0 0.4782608695652173 0.5105031753786029
0.0003319950001241523 0.47239863214460187 0.5144113336590133
0.0005402880001383892 0.47142159257449934 0.5046409379579873
0.0007394330000352056 0.46946751343429405 0.48998534440644836
0.0009575230001246382 0.47728382999511476 0.47728382999511476
0.0011597790003179398 0.4733756717147044 0.4733756717147044
0.0013844610002706759 0.4782608695652173 0.46946751343429405
0.00157540300006076 0.48216902784562765 0.4636052760136786
0.001765733999945951 0.4811919882755251 0.4509037616023448
0.0019573050003600656 0.4851001465559355 0.4382022471910112
0.002149061000181973 0.4929164631167562 0.412799218368344
0.0023384850001093582 0.486077186126038 0.38251099169516367
0.002526167000269197 0.48900830483634583 0.3610161211529066
0.0027141640002810163 0.48705422569614076 0.35222276502198335
0.0029029580000496935 0.4938935026868587 0.3453834880312652
0.003090381000220077 0.48900830483634583 0.36199316072300936
0.0032788050002636737 0.486077186126038 0.3688324377137273
0.0034697090000008757 0.48705422569614076 0.38641914997557403
0.0036577990003934246 0.4831460674157304 0.4059599413776258
0.0038449820003734203 0.4831460674157304 0.431362970200293
0.004032812000332342 0.48412310698583294 0.4587200781631655
0.004219995000312338 0.4831460674157304 0.4811919882755251
0.004406881000249996 0.4851001465559355 0.5046409379579873
0.004593712000314554 0.4831460674157304 0.5183194919394236
0.0047804310001993144 0.4851001465559355 0.5378602833414754
0.0049669660002109595 0.4851001465559355 0.5534929164631168
0.005153463000169722 0.48705422569614076 0.567171470444553
0.005349997000394069 0.48900830483634583 0.5828041035661944
0.0055380130002049555 0.48705422569614076 0.5964826575476307
0.0057243440001002455 0.4909623839765511 0.6101612115290669
0.005912119000186067 0.49193942354665365 0.6072300928187591
0.0060994120003670105 0.4880312652662433 0.6072300928187591
0.00628572499999791 0.4909623839765511 0.605276013678554
0.0064749070002108056 0.4938935026868587 0.5945285784074255
0.006661756000085006 0.49682462139716654 0.5935515388373229
0.006848439000350481 0.495847581827064 0.5779189057156815
0.007035528999949747 0.4938935026868587 0.5652173913043479
0.007222137000098883 0.49877870053737183 0.5466536394723986
0.007409097000163456 0.49877870053737183 0.5319980459208598
0.007595243000196206 0.5007327796775769 0.5202735710796287
0.007782296000186761 0.5007327796775769 0.5036638983878847
0.00797588600016752 0.5007327796775769 0.4948705422569615
0.008170624000285898 0.5026868588177822 0.4929164631167562
0.008359399000255507 0.5065950170981925 0.4938935026868587
0.008546841000224958 0.5017098192476794 0.4978016609672691
0.008733467000183737 0.5036638983878847 0.5095261358085001
0.00892053899997336 0.4978016609672691 0.5095261358085001
0.009107129000312852 0.49877870053737183 0.5134342940889105
0.009299496000039653 0.49682462139716654 0.5144113336590133
0.00948890100016797 0.49975574010747437 0.5075720566682951
0.009676473000126862 0.495847581827064 0.49877870053737183
0.009863655000117433 0.49877870053737183 0.4929164631167562
0.010050949000287801 0.49682462139716654 0.4831460674157304
0.010239372000341973 0.49682462139716654 0.4831460674157304
0.010426110000025801 0.49877870053737183 0.48900830483634583
0.010613181000280747 0.49877870053737183 0.4831460674157304
0.01079962300036641 0.49877870053737183 0.4851001465559355
0.01098582400027226 0.49877870053737183 0.48705422569614076
0.01117298799999844 0.49682462139716654 0.4851001465559355
0.011359560000073543 0.49975574010747437 0.4802149487054226
0.011546094000095763 0.5065950170981925 0.4684904738641915
0.01173316500035071 0.4978016609672691 0.46165119687347334
0.011919570000372914 0.49877870053737183 0.4479726428920372
0.012105956000141305 0.4948705422569615 0.43429408891060084
0.01229488000035417 0.4938935026868587 0.42940889106008795
0.012484007000239217 0.4880312652662433 0.40889106008793363
0.012671189000229788 0.4880312652662433 0.4040058622374205
0.012857427000199095 0.4880312652662433 0.41182217879824123
0.013043980000020383 0.486077186126038 0.4333170493404983
0.013230829000349331 0.486077186126038 0.4704445530043966
0.013452196000343974 0.4880312652662433 0.4929164631167562
0.013639305000197055 0.4851001465559355 0.512457254518808
0.013826654000240524 0.48900830483634583 0.5183194919394236
0.014013299999987794 0.4909623839765511 0.5202735710796287
0.014199852000274404 0.48900830483634583 0.5183194919394236
0.014386368000032235 0.48900830483634583 0.5202735710796287
0.014573014000234252 0.49682462139716654 0.5046409379579873
0.014761400000224967 0.48998534440644836 0.48998534440644836
0.014947990000109712 0.4880312652662433 0.4763067904250122
0.015134765000311745 0.4938935026868587 0.4704445530043966
0.015320503000111785 0.48998534440644836 0.4684904738641915
0.015507575000356155 0.4880312652662433 0.4704445530043966
0.015693535000082193 0.4880312652662433 0.4782608695652173
0.015879662000315875 0.48705422569614076 0.4880312652662433
0.016066048000084265 0.4831460674157304 0.4763067904250122
0.01625226800024393 0.48216902784562765 0.4655593551538837
0.016439283000181604 0.4831460674157304 0.4538348803126526
0.016626299000108702 0.4782608695652173 0.4333170493404983
0.016812908000247262 0.47728382999511476 0.41963849535906195
0.01699960900032238 0.47728382999511476 0.4108451392281387
0.017186106000281143 0.4851001465559355 0.4079140205178309
0.017376918000081787 0.47435271128480694 0.40889106008793363
0.017567434000284265 0.4733756717147044 0.41963849535906195
0.017755876000137505 0.47435271128480694 0.42940889106008795
0.01794379900002241 0.4802149487054226 0.4401563263312165
0.018131352000182233 0.47239863214460187 0.44894968246213973
0.01831872000002477 0.4753297508549097 0.46458231558378116
0.018505810000078782 0.4782608695652173 0.46946751343429405
0.01869349200023862 0.4753297508549097 0.4851001465559355
0.018881008000334987 0.47142159257449934 0.48705422569614076
0.019068487000367895 0.47239863214460187 0.4978016609672691
0.019256021000273904 0.47728382999511476 0.49682462139716654
0.019443037000201002 0.4733756717147044 0.4948705422569615
0.01963071900036084 0.46946751343429405 0.48900830483634583
0.01981792000015048 0.46946751343429405 0.48705422569614076
0.02001175100031105 0.4733756717147044 0.486077186126038
0.020199304000016127 0.4684904738641915 0.48705422569614076
0.020386690000123053 0.4733756717147044 0.4851001465559355
0.020573965000039607 0.4684904738641915 0.49193942354665365
0.02076151800019943 0.47142159257449934 0.4929164631167562
0.02094862700005251 0.47239863214460187 0.49975574010747437
0.021135494000191102 0.47239863214460187 0.5095261358085001
0.021330103000309464 0.4704445530043966 0.5202735710796287
0.021519396000257984 0.4763067904250122 0.5310210063507572
0.021706838000227435 0.4704445530043966 0.5290669272105519
0.021897557000102097 0.47239863214460187 0.5163654127992183
0.022093609999956243 0.4733756717147044 0.4948705422569615
0.022290978000000905 0.48216902784562765 0.47142159257449934
0.022479586000372365 0.48216902784562765 0.4528578407425501
0.0226671760001409 0.48900830483634583 0.4430874450415241
0.022855340000205615 0.48705422569614076 0.4528578407425501
0.02304279999998471 0.4880312652662433 0.4802149487054226
0.023229852999975265 0.486077186126038 0.4938935026868587
0.023416943000029278 0.486077186126038 0.5173424523693209
0.023603996000019833 0.4880312652662433 0.5329750854909623
0.02379097500033822 0.486077186126038 0.5398143624816805
0.02397845400037113 0.48900830483634583 0.5515388373229115
0.024165562000234786 0.486077186126038 0.5564240351734244
0.024357059000067238 0.49193942354665365 0.5486077186126037
0.024545520000174292 0.4851001465559355 0.5388373229115779
0.024733313000069757 0.4851001465559355 0.5378602833414754
0.024921255000208475 0.48998534440644836 0.5329750854909623
0.02510936299995592 0.4938935026868587 0.5310210063507572
0.02530800900012764 0.4948705422569615 0.5271128480703469
0.025521339000079024 0.4909623839765511 0.5232046897899365
0.02571261399998548 0.49682462139716654 0.5202735710796287
0.02590498200015645 0.4929164631167562 0.5144113336590133
0.026099201000306493 0.5007327796775769 0.4978016609672691
0.026290698000138946 0.4978016609672691 0.47923790913532005
0.02648158500005593 0.49975574010747437 0.4665363947239862
0.026672599999983504 0.49975574010747437 0.46165119687347334
0.026863911999953416 0.5007327796775769 0.4606741573033708
0.027055762000145478 0.4978016609672691 0.46458231558378116
0.027247037000051932 0.5007327796775769 0.4704445530043966
0.027437997000106407 0.5017098192476794 0.4753297508549097
0.02762973500011867 0.5065950170981925 0.4733756717147044
0.027820936000352958 0.5017098192476794 0.47239863214460187
0.028011841000079585 0.49975574010747437 0.47728382999511476
0.02820257900020806 0.49877870053737183 0.48216902784562765
0.028394094000304904 0.4948705422569615 0.48412310698583294
0.02858592500024315 0.495847581827064 0.48705422569614076
0.02877699600003325 0.5046409379579873 0.49682462139716654
0.028967994000140607 0.4978016609672691 0.49975574010747437
0.02915926900004706 0.495847581827064 0.512457254518808
0.029350062000048638 0.4978016609672691 0.5173424523693209
0.029541226000219467 0.4948705422569615 0.5280898876404494
0.029732426999999007 0.4978016609672691 0.5192965315095261
0.029923424000116938 0.49193942354665365 0.5144113336590133
0.030114829000012833 0.49682462139716654 0.49975574010747437
0.0303063450000991 0.4948705422569615 0.4851001465559355
0.030497398000079556 0.4978016609672691 0.47239863214460187
0.030687876000229153 0.5017098192476794 0.46165119687347334
0.0308782440001778 0.4909623839765511 0.45969711773326827
0.03106907500023226 0.4938935026868587 0.4636052760136786
0.03125949800005401 0.4938935026868587 0.4753297508549097
0.03145021700038342 0.4929164631167562 0.48412310698583294
0.03164067800025805 0.4880312652662433 0.48412310698583294
0.031831138000143255 0.4880312652662433 0.47728382999511476
0.032021617000282276 0.49682462139716654 0.46946751343429405
0.03221970599997803 0.4880312652662433 0.4557889594528579
0.032411017999947944 0.48900830483634583 0.4509037616023448
0.032601293999960035 0.4909623839765511 0.45969711773326827
0.03279269800032125 0.4851001465559355 0.4665363947239862
0.032983788000365166 0.48412310698583294 0.47435271128480694
0.033175174000007246 0.48705422569614076 0.47728382999511476
0.03337232000012591 0.486077186126038 0.4782608695652173
0.03356368699996892 0.4802149487054226 0.47923790913532005
0.033754444000351214 0.48412310698583294 0.4684904738641915
0.03394546000026821 0.4831460674157304 0.457743038593063
0.03413632699994196 0.47728382999511476 0.44211040547142155
0.034327306000250246 0.4811919882755251 0.44406448461162684
0.03451791400038928 0.4851001465559355 0.44211040547142155
0.03470868900012647 0.4802149487054226 0.4479726428920372
0.034899427000254946 0.4811919882755251 0.4587200781631655
0.035090110000055574 0.47923790913532005 0.4811919882755251
0.035280922000310966 0.4851001465559355 0.4929164631167562
0.03547236400027032 0.4802149487054226 0.5065950170981925
0.03566299100020842 0.4782608695652173 0.5105031753786029
0.035854358000051434 0.47728382999511476 0.5056179775280898
0.03604474400026447 0.47923790913532005 0.5026868588177822
0.03623546400012856 0.4782608695652173 0.495847581827064
0.03642553500003487 0.48412310698583294 0.49975574010747437
0.036616809999941324 0.47728382999511476 0.5046409379579873
0.03680760400038707 0.47435271128480694 0.5007327796775769
0.03699828600019828 0.47728382999511476 0.5095261358085001
0.037188876000072923 0.4753297508549097 0.5163654127992183
0.03737976200000048 0.4684904738641915 0.5232046897899365
0.037570649000372214 0.4733756717147044 0.5359062042012701
0.037762331000067206 0.47435271128480694 0.5446995603321934
0.03795306900019568 0.4763067904250122 0.5437225207620908
0.0381450110003243 0.46946751343429405 0.5446995603321934
0.0383364710000933 0.4704445530043966 0.5476306790425012
0.038527578999946854 0.4733756717147044 0.5476306790425012
0.03871872500030804 0.47239863214460187 0.5476306790425012
0.03890925900032016 0.4733756717147044 0.5446995603321934
0.03909970099994098 0.4733756717147044 0.5486077186126037
0.03929006800035495 0.47239863214460187 0.5534929164631168
0.03948082500028249 0.4811919882755251 0.550561797752809
0.03967108200004077 0.4733756717147044 0.540791402051783
0.039861505000317266 0.4782608695652173 0.5300439667806547
0.04005190900033995 0.4782608695652173 0.5183194919394236
0.04024220300016168 0.48216902784562765 0.4880312652662433
0.0404329040002267 0.4733756717147044 0.4655593551538837
0.0406235860000379 0.4753297508549097 0.44211040547142155
0.0408145470000818 0.47728382999511476 0.4235466536394723
0.04100682200032679 0.47728382999511476 0.4157303370786516
0.041197726000063994 0.4802149487054226 0.4010747435271129
0.04139024200003405 0.47923790913532005 0.40205178309721545
0.041587776000142185 0.4851001465559355 0.3952125061064973
0.041779848000260245 0.4811919882755251 0.39912066438690763
0.0419711230001667 0.4802149487054226 0.40889106008793363
0.04216221300021061 0.48412310698583294 0.39912066438690763
0.04235309900013817 0.486077186126038 0.38935026868588185
0.04254430000037246 0.48900830483634583 0.3786028334147533
0.04273514900023656 0.47923790913532005 0.37274059599413767
0.04292581300023812 0.48216902784562765 0.3678553981436248
0.043116810000356054 0.4851001465559355 0.376648754274548
0.04330806699999812 0.4880312652662433 0.3854421104054715
0.04349884200019005 0.486077186126038 0.39228138739618945
0.04369022800028688 0.4831460674157304 0.4059599413776258
0.043881466000129876 0.48705422569614076 0.42745481191988266
0.04407244499998342 0.48705422569614076 0.43429408891060084
0.04426331200011191 0.48998534440644836 0.44406448461162684
0.044465106000188825 0.48998534440644836 0.44699560332193444
0.044656140000370215 0.48705422569614076 0.44992672203224227
0.04484771100032958 0.4909623839765511 0.4509037616023448
0.04503822700007731 0.4948705422569615 0.4528578407425501
0.04522872400002598 0.4880312652662433 0.4479726428920372
0.04543759200032582 0.4929164631167562 0.44699560332193444
0.045628588999989006 0.4938935026868587 0.4430874450415241
0.045820549000382016 0.4948705422569615 0.4460185637518319
0.04601199100034137 0.4938935026868587 0.45481191988275516
0.04620285900000454 0.4938935026868587 0.4655593551538837
0.04639300400003776 0.4938935026868587 0.47142159257449934
0.04658385300035661 0.4929164631167562 0.4802149487054226
0.04677411000011489 0.4948705422569615 0.48900830483634583
0.04696514400029628 0.4978016609672691 0.49975574010747437
0.047156049000022904 0.49682462139716654 0.5153883732291158
0.04734649100009847 0.495847581827064 0.5319980459208598
0.047537284000100044 0.5017098192476794 0.5388373229115779
0.04772778100004871 0.49877870053737183 0.5525158768930141
0.0479185930003041 0.49877870053737183 0.5613092330239375
0.04810920199997781 0.5017098192476794 0.5583781143136297
0.048299735999989934 0.5007327796775769 0.5593551538837322
0.048491141000340576 0.5065950170981925 0.5613092330239375
0.04868506399998296 0.5007327796775769 0.5642403517342451
0.04887972799997442 0.5065950170981925 0.5720566682950659
0.049072207000335766 0.495847581827064 0.5808500244259893
0.04926283400027387 0.49877870053737183 0.5906204201270151
0.04945531200019104 0.4978016609672691 0.5974596971177333
0.04964673600034075 0.49682462139716654 0.6003908158280411
0.049848159000248415 0.495847581827064 0.6013678553981436
0.050039508000281785 0.49682462139716654 0.6072300928187591
0.050230449000082444 0.4948705422569615 0.6062530532486565
0.05042089100015801 0.4938935026868587 0.6082071323888618
0.05061196199994811 0.49682462139716654 0.6130923302393747
0.05080212600023515 0.4948705422569615 0.6082071323888618
0.05099280900003578 0.4978016609672691 0.6189545676599901
0.0511843620001855 0.4948705422569615 0.6160234489496825
0.051375452000229416 0.4929164631167562 0.6160234489496825
0.05156643000009353 0.49193942354665365 0.6013678553981436
0.05175650199998927 0.495847581827064 0.5779189057156815
0.0519476660001601 0.4929164631167562 0.550561797752809
0.05213933000004545 0.4909623839765511 0.5300439667806547
0.05233041900009994 0.4938935026868587 0.522227650219834
0.0525208610001755 0.4909623839765511 0.5085490962383976
0.052711303000251064 0.4880312652662433 0.5065950170981925
0.05290211500005171 0.49193942354665365 0.5065950170981925
0.053091926999968564 0.48900830483634583 0.5017098192476794
0.05328281300035087 0.4880312652662433 0.48705422569614076
0.05347314400023606 0.48412310698583294 0.45481191988275516
0.053663586000311625 0.48705422569614076 0.42159257449926724
0.053854787000091164 0.4851001465559355 0.3932584269662922
0.054045321000103286 0.48412310698583294 0.3629702002931119
0.05423629999995683 0.4811919882755251 0.3385442110405472
0.05442646400024387 0.4802149487054226 0.3258426966292134
0.05461777600021378 0.4811919882755251 0.33463605276013686
0.05480851400034226 0.48412310698583294 0.3287738153395212
0.054999492000206374 0.4851001465559355 0.3502686858817783
0.055189953000081005 0.48216902784562765 0.3756717147044455
0.05538033900029404 0.4782608695652173 0.40009770395701016
0.055570410000200354 0.4811919882755251 0.42159257449926724
0.05576064800015956 0.47728382999511476 0.4382022471910112
0.05595107099998131 0.47239863214460187 0.4479726428920372
0.05614143900038471 0.47435271128480694 0.4509037616023448
0.056331529000090086 0.4753297508549097 0.4557889594528579
0.05652291500018691 0.4753297508549097 0.4636052760136786
0.05671989400025268 0.47142159257449934 0.46458231558378116
0.05691239099996892 0.4753297508549097 0.467513434294089
0.057103351000023395 0.4704445530043966 0.4704445530043966
0.05729468200024712 0.47142159257449934 0.46458231558378116
0.05748612400020647 0.4753297508549097 0.46262823644357587
0.05767693600000712 0.4753297508549097 0.46946751343429405
0.057873118000316026 0.47728382999511476 0.47239863214460187
0.05806383800018011 0.4733756717147044 0.48216902784562765
0.058253872000022966 0.4733756717147044 0.48900830483634583
0.05844366600013018 0.47239863214460187 0.49682462139716654
0.05863360700004705 0.47239863214460187 0.49877870053737183
0.058824475000164966 0.47142159257449934 0.5017098192476794
0.059015306000219425 0.47435271128480694 0.5183194919394236
0.059466225000051054 0.47142159257449934 0.5144113336590133
0.059659148000264395 0.4733756717147044 0.5232046897899365
0.05984944200008613 0.47435271128480694 0.5290669272105519
0.06003988300017227 0.4684904738641915 0.5359062042012701
0.06023021400005746 0.47239863214460187 0.540791402051783
0.06042121100017539 0.4733756717147044 0.5466536394723986
0.060611283000071126 0.47142159257449934 0.5495847581827065
0.06080165000003035 0.4704445530043966 0.5446995603321934
0.06099212900016937 0.4763067904250122 0.5388373229115779
0.06118266300018149 0.4763067904250122 0.5280898876404494
0.061374419999992824 0.4753297508549097 0.512457254518808
0.06156519500018476 0.4782608695652173 0.495847581827064
0.06175589600024978 0.4782608695652173 0.4811919882755251
0.0619464300002619 0.4811919882755251 0.4655593551538837
0.06213731700017888 0.4782608695652173 0.4636052760136786
0.06232798000019102 0.4831460674157304 0.4557889594528579
0.06251894100023492 0.4831460674157304 0.467513434294089
0.06270882700027869 0.4811919882755251 0.4811919882755251
0.06289936100029081 0.48412310698583294 0.49877870053737183
0.06309006200035583 0.4851001465559355 0.5163654127992183
0.06328028200005065 0.48900830483634583 0.5398143624816805
0.0634716490003484 0.48705422569614076 0.5564240351734244
0.06366325800036066 0.4880312652662433 0.5720566682950659
0.0638540700001613 0.48412310698583294 0.5837811431362969
0.06404454900030032 0.4851001465559355 0.5915974596971176
0.064235175000249 0.4851001465559355 0.5779189057156815
0.06442607999997563 0.4802149487054226 0.5652173913043479
0.06461674399997719 0.48412310698583294 0.5427454811919883
0.06480774100009512 0.48412310698583294 0.5271128480703469
0.06499829400036106 0.48900830483634583 0.5046409379579873
0.06518986600030985 0.48216902784562765 0.48216902784562765
0.06538193699998374 0.4802149487054226 0.4733756717147044
0.06557298999996419 0.4782608695652173 0.4655593551538837
0.06576350600016667 0.48412310698583294 0.45676599902296044
0.0659543360002317 0.48900830483634583 0.44699560332193444
0.06615440700034014 0.48705422569614076 0.41670737664875435
0.06634599700009858 0.4929164631167562 0.38739618954567656
0.06653651300030106 0.4978016609672691 0.3561309233023937
0.06672645500020735 0.49682462139716654 0.3365901319003419
0.06691695200015602 0.49877870053737183 0.33952125061064975
0.06710759700035851 0.49975574010747437 0.358085002442599
0.06729803899997933 0.49975574010747437 0.3932584269662922
0.06748835100006545 0.5046409379579873 0.4323400097703958
0.06767983000008826 0.495847581827064 0.467513434294089
0.06787103100032255 0.495847581827064 0.4938935026868587
0.06806130600034521 0.49682462139716654 0.4978016609672691
0.0682514700001775 0.49877870053737183 0.4938935026868587
0.06844161500021073 0.5026868588177822 0.47728382999511476
0.06863176100023338 0.495847581827064 0.45481191988275516
0.06882257300003403 0.4978016609672691 0.4333170493404983
0.06901740400007839 0.49193942354665365 0.40889106008793363
0.06920830800027034 0.4978016609672691 0.3854421104054715
0.0693993429999864 0.4929164631167562 0.38153395212506114
0.06958984000038981 0.4938935026868587 0.38641914997557403
0.06978015200002119 0.49193942354665365 0.4059599413776258
0.06997057500029769 0.4909623839765511 0.4264777723497801
0.07016185000020414 0.49193942354665365 0.4401563263312165
0.0703526810002586 0.4909623839765511 0.4587200781631655
0.07054266000022835 0.4948705422569615 0.46946751343429405
0.07073310100031449 0.4880312652662433 0.4733756717147044
0.07092374700005166 0.4938935026868587 0.48216902784562765
0.0711145770001167 0.4938935026868587 0.47923790913532005
0.07130587100027697 0.4948705422569615 0.48998534440644836
0.071496701000342 0.4948705422569615 0.49682462139716654
0.07168690200023775 0.495847581827064 0.495847581827064
0.0718774370002393 0.5017098192476794 0.5007327796775769
0.07206797100025142 0.5007327796775769 0.5007327796775769
0.07225839400007317 0.49877870053737183 0.49193942354665365
0.07244898399994781 0.49975574010747437 0.49877870053737183
0.07263916700003392 0.5065950170981925 0.5056179775280898
0.07283010800028933 0.49877870053737183 0.5280898876404494
0.0730203650000476 0.495847581827064 0.5486077186126037
0.07321163999995406 0.49682462139716654 0.5652173913043479
0.0734130069999992 0.4948705422569615 0.5867122618466047
0.07360426400009601 0.4978016609672691 0.5818270639960919
0.07379479800010813 0.4880312652662433 0.578895945285784
0.07398555500003567 0.4831460674157304 0.5691255495847583
0.07417657099995267 0.486077186126038 0.5622862725940401
0.0743725679999443 0.4851001465559355 0.5515388373229115
0.0745630650003477 0.4802149487054226 0.5319980459208598
0.07475337699997908 0.48412310698583294 0.5114802149487054
0.07494391199998063 0.4831460674157304 0.5017098192476794
0.07513424200033114 0.4802149487054226 0.4929164631167562
0.07532468399995196 0.48216902784562765 0.48705422569614076
0.07551534799995352 0.4831460674157304 0.48216902784562765
0.07570590100021946 0.4811919882755251 0.4851001465559355
0.07589787899996736 0.4811919882755251 0.486077186126038
0.0761063390000345 0.47923790913532005 0.4851001465559355
0.0763154660003238 0.4811919882755251 0.4802149487054226
0.0765147040001466 0.4782608695652173 0.47923790913532005
0.07672440500027733 0.47923790913532005 0.48216902784562765
0.07693399400022827 0.4763067904250122 0.4831460674157304
0.07713373200022033 0.4763067904250122 0.47142159257449934
0.07735919200013086 0.47728382999511476 0.4684904738641915
0.07756026300012309 0.47728382999511476 0.4587200781631655
0.07775718600032633 0.47728382999511476 0.4430874450415241
0.07794990599995799 0.47923790913532005 0.4255007327796776
0.07814714400001321 0.4763067904250122 0.4206155349291647
0.07836640000004991 0.47728382999511476 0.40693698094772834
0.0785807490001389 0.4782608695652173 0.4137762579384465
0.07878596800037485 0.4763067904250122 0.42159257449926724
0.07898476100035623 0.4763067904250122 0.4450415241817294
0.07918901800030653 0.4753297508549097 0.4763067904250122
0.0793900520002353 0.4704445530043966 0.49193942354665365
0.0795876050001425 0.47142159257449934 0.5173424523693209
0.07978665700011334 0.47142159257449934 0.5446995603321934
0.07999024700029622 0.47142159257449934 0.567171470444553
0.08019150300015099 0.4704445530043966 0.5818270639960919
0.0804347780003809 0.4704445530043966 0.5847581827063997
0.0806506819999413 0.47142159257449934 0.5818270639960919
0.08084384600033445 0.4704445530043966 0.5661944308744504
0.08103651000010359 0.467513434294089 0.5564240351734244
0.0812292850000631 0.46946751343429405 0.540791402051783
0.0814563190001536 0.46946751343429405 0.5271128480703469
0.08167185299998891 0.46946751343429405 0.5173424523693209
0.08187158999999156 0.47728382999511476 0.5192965315095261
0.08206973599999401 0.4753297508549097 0.5183194919394236
0.0822664550000809 0.47923790913532005 0.522227650219834
0.08247380400007387 0.4831460674157304 0.49682462139716654
0.08267485700025645 0.4811919882755251 0.47142159257449934
0.08287485400023797 0.47923790913532005 0.4382022471910112
0.08312196199995014 0.4802149487054226 0.4206155349291647
0.08335788400017918 0.48412310698583294 0.4186614557889594
0.08357252900032108 0.4880312652662433 0.4264777723497801
0.08378435900021941 0.48705422569614076 0.43722520762090866
0.08398550500032798 0.49193942354665365 0.4557889594528579
0.08418379800014009 0.48705422569614076 0.4665363947239862
0.0843812030002482 0.48998534440644836 0.4753297508549097
0.0846088480002436 0.4831460674157304 0.4811919882755251
0.08485714000016742 0.4851001465559355 0.48705422569614076
0.08508221100009905 0.4851001465559355 0.4704445530043966
0.08528302300010182 0.48412310698583294 0.46946751343429405
0.08548122399997737 0.4851001465559355 0.4587200781631655
0.0856786290000855 0.48900830483634583 0.45969711773326827
0.08588627400013138 0.48998534440644836 0.45188080117244755
0.08610932600004162 0.4909623839765511 0.4460185637518319
0.0863350449999416 0.49877870053737183 0.4460185637518319
0.08656974600035028 0.4938935026868587 0.4655593551538837
0.08682433500007392 0.4938935026868587 0.48216902784562765
0.08708105300001989 0.495847581827064 0.495847581827064
0.08728904999998122 0.4978016609672691 0.5046409379579873
0.08748897300029057 0.5046409379579873 0.5144113336590133
0.08768656300026123 0.49682462139716654 0.5095261358085001
0.08788265300017883 0.5007327796775769 0.5075720566682951
0.08808311300026617 0.4938935026868587 0.5056179775280898
0.08830923899995469 0.4948705422569615 0.5075720566682951
0.08854499500012025 0.49682462139716654 0.5163654127992183
0.0887959920000867 0.49975574010747437 0.5290669272105519
0.08903589600004125 0.49877870053737183 0.5290669272105519
0.08927409600028113 0.4978016609672691 0.533952125061065
0.08950535200028753 0.4938935026868587 0.5183194919394236
0.08971151600007943 0.49877870053737183 0.5026868588177822
0.08993525300002148 0.4929164631167562 0.48412310698583294
0.09014191699998264 0.49193942354665365 0.4636052760136786
0.09035269200012408 0.4938935026868587 0.43917928676111373
0.09055046699995728 0.49193942354665365 0.4206155349291647
0.09074940800019249 0.4929164631167562 0.4157303370786516
0.09096562700005961 0.4929164631167562 0.4284318514899854
0.09118471700003283 0.48998534440644836 0.44406448461162684
0.09138649200031068 0.48998534440644836 0.45676599902296044
0.09158785900035582 0.4938935026868587 0.4655593551538837
0.0917890969999462 0.4929164631167562 0.4763067904250122
0.09199250200026654 0.4909623839765511 0.48705422569614076
0.09222792400032631 0.4909623839765511 0.49682462139716654
0.09243312500029788 0.4880312652662433 0.5183194919394236
0.09263597400013168 0.48900830483634583 0.5310210063507572
0.09287532200005444 0.4909623839765511 0.5456765999022961
0.09309294900003806 0.48900830483634583 0.550561797752809
0.09338418500010448 0.49193942354665365 0.5534929164631168
0.09362360800014358 0.486077186126038 0.5525158768930141
0.0938461600003393 0.4802149487054226 0.5476306790425012
0.09405838000020594 0.4880312652662433 0.5398143624816805
0.09430895000014061 0.49193942354665365 0.522227650219834
0.09452991000034672 0.486077186126038 0.5017098192476794
0.09475596200036307 0.48705422569614076 0.47435271128480694
0.09498720000010508 0.4880312652662433 0.45481191988275516
0.09522878899997522 0.4851001465559355 0.4430874450415241
0.09547811900029046 0.4851001465559355 0.43722520762090866
0.09574396700008947 0.4811919882755251 0.4303859306301905
0.09596770400003152 0.4802149487054226 0.43917928676111373
0.09617088599998169 0.4782608695652173 0.43722520762090866
0.09636947600029089 0.4782608695652173 0.4401563263312165
0.0965693990001455 0.4753297508549097 0.44894968246213973
0.09677139600034934 0.47728382999511476 0.4528578407425501
0.09697254200000316 0.48705422569614076 0.4538348803126526
0.09721990800017011 0.48216902784562765 0.4606741573033708
0.097486015999948 0.47923790913532005 0.4665363947239862
0.09768949399995108 0.47923790913532005 0.4811919882755251
0.09789425100007065 0.4811919882755251 0.48900830483634583
0.09809313699997801 0.4763067904250122 0.49975574010747437
0.09829289300023447 0.4753297508549097 0.5153883732291158
0.09850113100037561 0.4733756717147044 0.5251587689301416
0.09869962800030407 0.47142159257449934 0.5280898876404494
0.09889927300037016 0.4811919882755251 0.5300439667806547
0.09910115900038363 0.4802149487054226 0.5232046897899365
0.09930184200038639 0.4753297508549097 0.495847581827064
0.09950945000036882 0.4763067904250122 0.4763067904250122
0.09970126200005325 0.47923790913532005 0.46165119687347334
0.09989290700013953 0.47435271128480694 0.44406448461162684
0.10008384900038436 0.47435271128480694 0.4430874450415241
0.10027532799995242 0.4733756717147044 0.44406448461162684
0.10047334399996544 0.47142159257449934 0.4479726428920372
0.10066435900034776 0.47728382999511476 0.44894968246213973
0.10085767100008525 0.46946751343429405 0.457743038593063
0.10105140900031984 0.4704445530043966 0.46165119687347334
0.10127346200033571 0.4704445530043966 0.47142159257449934
0.10147301400002107 0.4733756717147044 0.4782608695652173
0.10166060400024435 0.47435271128480694 0.4880312652662433
0.10184778700022434 0.4753297508549097 0.4880312652662433
0.10203572900036306 0.47435271128480694 0.5026868588177822
0.10222783700010041 0.4733756717147044 0.5163654127992183
0.10241737100022874 0.47435271128480694 0.5417684416218858
0.10260564600002908 0.4763067904250122 0.5534929164631168
0.10279316200012545 0.4763067904250122 0.5603321934538348
0.10298067800022181 0.4733756717147044 0.5613092330239375
0.10316812000019127 0.47923790913532005 0.5515388373229115
0.10335569100016073 0.47923790913532005 0.533952125061065
0.103543596000236 0.4880312652662433 0.5114802149487054
0.10373061200016309 0.48900830483634583 0.4948705422569615
0.10391727600017475 0.4909623839765511 0.486077186126038
0.10410412500004895 0.49682462139716654 0.48216902784562765
0.10429206700018767 0.49682462139716654 0.48216902784562765
0.10448391600039031 0.495847581827064 0.48412310698583294
0.10468956100021387 0.49975574010747437 0.4811919882755251
0.104909391000092 0.4978016609672691 0.47142159257449934
0.10512485100025515 0.4948705422569615 0.46946751343429405
0.10543079100034447 0.4938935026868587 0.44992672203224227
0.10567367700014074 0.4909623839765511 0.43429408891060084
0.10587167400035469 0.4978016609672691 0.4255007327796776
0.1060686710002301 0.4938935026868587 0.4206155349291647
0.10626742800013744 0.4909623839765511 0.4137762579384465
0.10646738800005551 0.49682462139716654 0.41963849535906195
0.10666971800037572 0.49682462139716654 0.4186614557889594
0.10686373399994409 0.5026868588177822 0.43429408891060084
0.10710174900032143 0.495847581827064 0.46165119687347334
0.10730778300012389 0.495847581827064 0.4880312652662433
0.10752052099996945 0.49682462139716654 0.5075720566682951
0.10771579600032055 0.4929164631167562 0.5271128480703469
0.10791620000009061 0.4909623839765511 0.5368832437713726
0.10811301200010348 0.495847581827064 0.5378602833414754
0.10831252800016955 0.4929164631167562 0.5368832437713726
0.10852141400027904 0.495847581827064 0.5349291646311676
0.10878052099997149 0.49877870053737183 0.5359062042012701
0.10898833300007027 0.5026868588177822 0.5378602833414754
0.10918244100002994 0.49877870053737183 0.5378602833414754
0.10940834600023663 0.49877870053737183 0.5319980459208598
0.10961852800028282 0.49877870053737183 0.5319980459208598
0.1098129320002954 0.49975574010747437 0.5007327796775769
0.11004461400034415 0.5065950170981925 0.47923790913532005
0.11024542600034692 0.49975574010747437 0.45481191988275516
0.11043792400005259 0.4948705422569615 0.4479726428920372
0.11063238400038244 0.4948705422569615 0.4528578407425501
0.1108984360002978 0.4938935026868587 0.457743038593063
0.11109771000019464 0.49682462139716654 0.4606741573033708
0.11129548500002784 0.48998534440644836 0.4665363947239862
0.11149250100015706 0.48900830483634583 0.4655593551538837
0.11168559099996855 0.48705422569614076 0.46165119687347334
0.11187879199997042 0.486077186126038 0.4528578407425501
0.11208197400037534 0.4851001465559355 0.45676599902296044
0.11227612000038789 0.495847581827064 0.45481191988275516
0.1124642650001988 0.48900830483634583 0.44211040547142155
0.11265133599999899 0.48998534440644836 0.4382022471910112
0.11283851899997899 0.48900830483634583 0.4333170493404983
0.11302686800036099 0.486077186126038 0.4255007327796776
0.11321449500019298 0.486077186126038 0.4206155349291647
0.11342719599997508 0.48216902784562765 0.4352711284807034
0.11362987800021074 0.4880312652662433 0.4528578407425501
0.11382326400007514 0.48412310698583294 0.4733756717147044
0.1140111690001504 0.4851001465559355 0.4938935026868587
0.11419955500014112 0.48900830483634583 0.5007327796775769
0.11438764500007892 0.47923790913532005 0.5114802149487054
0.11457542000016474 0.486077186126038 0.5163654127992183
0.1147631580001871 0.4831460674157304 0.5095261358085001
0.1149512480001249 0.48412310698583294 0.5026868588177822
0.11513900499994634 0.4802149487054226 0.4802149487054226
0.11532640900031765 0.4782608695652173 0.4655593551538837
0.11551357300004383 0.4811919882755251 0.4479726428920372
0.11570036700004493 0.4851001465559355 0.44406448461162684
0.1158879380000144 0.4782608695652173 0.4509037616023448
0.11607584300008966 0.47728382999511476 0.4665363947239862
0.11626422900008038 0.47435271128480694 0.4851001465559355
0.11645131900013439 0.4733756717147044 0.5153883732291158
0.11663889100009328 0.47435271128480694 0.5300439667806547
0.11682892500039088 0.4733756717147044 0.5554469956033219
0.11701675600033923 0.48216902784562765 0.5710796287249633
0.11720462300036161 0.4753297508549097 0.5720566682950659
0.11739612100018348 0.4831460674157304 0.5652173913043479
0.1175858030001109 0.4782608695652173 0.5534929164631168
0.11777378200031308 0.486077186126038 0.540791402051783
0.11796196400018744 0.4851001465559355 0.5144113336590133
0.11815066500003013 0.4929164631167562 0.5046409379579873
0.11836353300031988 0.48998534440644836 0.49682462139716654
0.11855119700021532 0.4851001465559355 0.4938935026868587
0.11873825000020588 0.486077186126038 0.4909623839765511
0.11892615400029172 0.4880312652662433 0.48412310698583294
0.11911341099994388 0.4831460674157304 0.4831460674157304
0.1193035190003684 0.48216902784562765 0.4811919882755251
0.11949090600001 0.47923790913532005 0.4831460674157304
0.11967799500007459 0.47239863214460187 0.48412310698583294
0.11986484500039296 0.47435271128480694 0.48900830483634583
0.12005178600020372 0.47142159257449934 0.48705422569614076
0.12023876500006736 0.47142159257449934 0.48216902784562765
0.12042602200017427 0.47728382999511476 0.4831460674157304
0.12061242700019648 0.4733756717147044 0.4753297508549097
0.1208015530000921 0.4684904738641915 0.4665363947239862
0.12103156900002432 0.4753297508549097 0.4636052760136786
0.12122819600017465 0.4733756717147044 0.457743038593063
0.12145780300033948 0.4704445530043966 0.4509037616023448
0.12166537400025845 0.4753297508549097 0.4450415241817294
0.12186239000038768 0.47923790913532005 0.43917928676111373
0.12206018400001994 0.47239863214460187 0.4323400097703958
0.12225127400006386 0.4763067904250122 0.43624816805080613
0.12244760400017185 0.47728382999511476 0.44211040547142155
0.12264513800027999 0.4831460674157304 0.457743038593063
0.12286291300006269 0.4763067904250122 0.4978016609672691
0.12307635400020445 0.4753297508549097 0.5359062042012701
0.12328583299995444 0.47239863214460187 0.5847581827063997
0.12350584800014985 0.47435271128480694 0.6248168050806058
0.12373945600029401 0.47435271128480694 0.6638983878847093
0.12393973100006406 0.47728382999511476 0.6873473375671715
0.12414708000005703 0.4802149487054226 0.6932095749877869
0.12434805800012327 0.4851001465559355 0.688324377137274
0.12455309300003137 0.4802149487054226 0.67171470444553
0.12474886800009699 0.48216902784562765 0.6560820713238886
0.12495058700005757 0.48216902784562765 0.6365412799218368
0.12514562100022886 0.4851001465559355 0.6062530532486565
0.12537850700027775 0.48216902784562765 0.5730337078651686
0.1255852440003764 0.48216902784562765 0.5446995603321934
0.1257844080000723 0.4831460674157304 0.5095261358085001
0.12597653500006345 0.48705422569614076 0.4831460674157304
0.12617601400006606 0.4909623839765511 0.4479726428920372
0.1263769920001323 0.4978016609672691 0.40009770395701016
0.12657758200020908 0.5046409379579873 0.33170493404982904
0.12681322700018427 0.5046409379579873 0.25940400586223733
0.12700161300017498 0.5075720566682951 0.17733268197361984
0.12719018500001766 0.5075720566682951 0.11675622862725943
0.12737981100008255 0.5036638983878847 0.08744504152418164
0.12757286400028534 0.5065950170981925 0.09330727894479729
0.12778106500036301 0.5026868588177822 0.1362970200293112
0.12798411800031317 0.5075720566682951 0.19687347337567163
0.12817944800008263 0.5046409379579873 0.2681973619931608
0.12836816800017914 0.5026868588177822 0.33952125061064975
0.12855638700011696 0.49975574010747437 0.4059599413776258
0.12874407000026622 0.49877870053737183 0.4538348803126526
0.12893190000022514 0.49975574010747437 0.4909623839765511
0.1291193420001946 0.49682462139716654 0.5114802149487054
0.12930656200023805 0.49877870053737183 0.524181729360039
0.12952528100004201 0.4938935026868587 0.5310210063507572
0.12971255599995857 0.4880312652662433 0.5437225207620908
0.129901701000108 0.48998534440644836 0.5603321934538348
0.13010058700001537 0.4851001465559355 0.5818270639960919
0.1302973810002186 0.4802149487054226 0.6130923302393747
0.1304969150000943 0.4811919882755251 0.6463116756228626
0.1306888010003604 0.47728382999511476 0.6707376648754275
0.13088152099999206 0.47435271128480694 0.6756228627259404
0.13109177700016517 0.4763067904250122 0.6658524670249144
0.1313007000003381 0.4802149487054226 0.6531509526135808
0.1314969380000548 0.48412310698583294 0.6355642403517343
0.13170176800031186 0.4782608695652173 0.6130923302393747
0.13190008000037778 0.4831460674157304 0.5896433805569126
0.13215978000016548 0.4782608695652173 0.5691255495847583
0.13236672200036992 0.4811919882755251 0.5456765999022961
0.13258555200036426 0.4802149487054226 0.5398143624816805
0.13279849300033675 0.48705422569614076 0.5437225207620908
0.1330019350002658 0.4851001465559355 0.5476306790425012
0.13319167300005574 0.4880312652662433 0.5427454811919883
0.13339252200012197 0.49193942354665365 0.5319980459208598
0.13358361200016589 0.4929164631167562 0.5036638983878847
0.1337713679999979 0.4978016609672691 0.4509037616023448
0.13400229100034267 0.49877870053737183 0.4108451392281387
0.13419045499995264 0.5065950170981925 0.36980947728383007
0.1343781560003663 0.49975574010747437 0.3502686858817783
0.13456815300014568 0.5007327796775769 0.33756717147044446
0.13475698399997782 0.4948705422569615 0.34440644846116264
0.13494701800027542 0.4948705422569615 0.3678553981436248
0.13514457100018262 0.4948705422569615 0.3981436248168051
0.13533167900004628 0.48900830483634583 0.4430874450415241
0.1355197880002379 0.48705422569614076 0.4938935026868587
0.1357074890001968 0.4851001465559355 0.5310210063507572
0.13589922700020907 0.48216902784562765 0.5632633121641426
0.1360887610003374 0.48216902784562765 0.578895945285784
0.13627622200010592 0.4782608695652173 0.5906204201270151
0.13646379300007538 0.47923790913532005 0.578895945285784
0.1366509570002563 0.47435271128480694 0.5691255495847583
0.1368388060000143 0.4763067904250122 0.5486077186126037
0.13702641500003665 0.47142159257449934 0.5251587689301416
0.13721367100015414 0.4753297508549097 0.5026868588177822
0.13741902000037953 0.4753297508549097 0.47142159257449934
0.13760824000019056 0.4733756717147044 0.4636052760136786
0.13779497800032914 0.47239863214460187 0.44894968246213973
0.1379820860001928 0.4733756717147044 0.44211040547142155
0.13816960200028916 0.47142159257449934 0.44699560332193444
0.1383570990001317 0.47239863214460187 0.44992672203224227
0.13854385600006935 0.46946751343429405 0.44992672203224227
0.13873177899995426 0.4733756717147044 0.44699560332193444
0.138919184000315 0.4733756717147044 0.4557889594528579
0.13910690300008355 0.46946751343429405 0.45969711773326827
0.13929427100038083 0.47239863214460187 0.4811919882755251
0.1394819910001388 0.4606741573033708 0.5105031753786029
0.13967015500020352 0.4655593551538837 0.5349291646311676
0.13985844800026825 0.4655593551538837 0.5583781143136297
0.1400460380000368 0.4655593551538837 0.5691255495847583
0.14023396100037644 0.4665363947239862 0.576941866145579
0.1404216810001344 0.4655593551538837 0.567171470444553
0.1406089189999875 0.46165119687347334 0.5613092330239375
0.14079676800020025 0.46458231558378116 0.5398143624816805
0.1409840620003706 0.4655593551538837 0.5349291646311676
0.14117141099995933 0.4665363947239862 0.5349291646311676
0.1413684080002895 0.47435271128480694 0.5486077186126037
0.14155997900024886 0.4763067904250122 0.5642403517342451
0.1417480320001232 0.47142159257449934 0.567171470444553
0.14193532600029357 0.4704445530043966 0.5701025891548608
0.14212663800026348 0.47239863214460187 0.5622862725940401
0.14231700600021213 0.47239863214460187 0.5300439667806547
0.14250459599998067 0.47435271128480694 0.4831460674157304
0.14269201900015105 0.4802149487054226 0.44211040547142155
0.14287910900020506 0.486077186126038 0.38153395212506114
0.14306753200025923 0.4831460674157304 0.3287738153395212
0.14328419599996778 0.48412310698583294 0.30434782608695654
0.14347154500001125 0.48900830483634583 0.2955544699560333
0.14365983800007598 0.48998534440644836 0.30434782608695654
0.14384683600019343 0.49193942354665365 0.3277967757694187
0.14403385200012053 0.49682462139716654 0.3453834880312652
0.14422134899996308 0.49877870053737183 0.36687835857352225
0.14440832800028147 0.5007327796775769 0.38251099169516367
0.1445959360003144 0.5017098192476794 0.3913043478260869
0.14478248900013568 0.5007327796775769 0.3961895456765998
0.14496922700027426 0.49877870053737183 0.4040058622374205
0.14515635400039173 0.49877870053737183 0.4176844162188569
0.14535111100030917 0.49975574010747437 0.4382022471910112
0.14554046000012022 0.495847581827064 0.4538348803126526
0.14572773500003677 0.49877870053737183 0.4665363947239862
0.1459145100002388 0.4978016609672691 0.48216902784562765
0.14611191500034693 0.495847581827064 0.49682462139716654
0.14630022700021073 0.4948705422569615 0.5036638983878847
0.1464873540003282 0.5007327796775769 0.5017098192476794
0.14669905400023708 0.48998534440644836 0.49877870053737183
0.14688668100006907 0.4929164631167562 0.4851001465559355
0.1470747900002607 0.495847581827064 0.47728382999511476
0.14726250900002924 0.49682462139716654 0.46165119687347334
0.14744928400023127 0.49877870053737183 0.4430874450415241
0.1476370410000527 0.5026868588177822 0.4323400097703958
0.14783014900012859 0.5036638983878847 0.42256961406936977
0.14802996100024757 0.49682462139716654 0.4323400097703958
0.14824762500029465 0.495847581827064 0.4509037616023448
0.14846649200035245 0.4929164631167562 0.4704445530043966
0.14868771100009326 0.4909623839765511 0.4948705422569615
0.14890826300006665 0.49682462139716654 0.5144113336590133
0.14913031600008253 0.4938935026868587 0.5290669272105519
0.1493817380001019 0.5056179775280898 0.5437225207620908
0.1495987910002441 0.49877870053737183 0.5691255495847583
0.14981108400024823 0.5026868588177822 0.576941866145579
0.15002297000000908 0.4978016609672691 0.5808500244259893
0.15027054000029239 0.49975574010747437 0.5681485100146555
0.15049246300031882 0.5007327796775769 0.5476306790425012
0.15069925600028 0.5026868588177822 0.5329750854909623
0.15088968000009118 0.5007327796775769 0.512457254518808
0.1510768440002721 0.49877870053737183 0.5075720566682951
0.15126350800028376 0.5026868588177822 0.5036638983878847
0.15145106099998884 0.5036638983878847 0.5095261358085001
0.15163887300013812 0.495847581827064 0.5144113336590133
0.15185379600006854 0.4948705422569615 0.5173424523693209
0.1520442930000172 0.4929164631167562 0.5144113336590133
0.15224697500025286 0.4909623839765511 0.5056179775280898
0.15244375000020227 0.4880312652662433 0.5036638983878847
0.15264254400017307 0.486077186126038 0.49975574010747437
0.152853485000378 0.4938935026868587 0.4929164631167562
0.15305033399999957 0.4880312652662433 0.48998534440644836
0.15325731300026746 0.48705422569614076 0.5007327796775769
0.15347475399994437 0.4909623839765511 0.5036638983878847
0.15367388100003154 0.48216902784562765 0.5114802149487054
0.15389126600030067 0.48412310698583294 0.5085490962383976
0.15412759600030768 0.486077186126038 0.4909623839765511
0.15436787099997673 0.4831460674157304 0.48900830483634583
0.15458823800008759 0.48216902784562765 0.486077186126038
0.15481699400015714 0.4851001465559355 0.49877870053737183
0.15503056500028833 0.4782608695652173 0.512457254518808
0.15523208100012198 0.4851001465559355 0.5300439667806547
0.15542522600026132 0.486077186126038 0.5427454811919883
0.15561314900014622 0.47923790913532005 0.5476306790425012
0.15583129400010876 0.4763067904250122 0.5456765999022961
0.15602203200023723 0.4704445530043966 0.5310210063507572
0.15621049300034429 0.47435271128480694 0.5183194919394236
0.15639878599995427 0.4763067904250122 0.5105031753786029
0.15658648700036792 0.47239863214460187 0.4929164631167562
0.1567744290000519 0.4684904738641915 0.4811919882755251
0.1569618339999579 0.47239863214460187 0.4811919882755251
0.15714918300000136 0.4733756717147044 0.4763067904250122
0.15739151300022058 0.47239863214460187 0.47142159257449934
0.15758134299994708 0.47142159257449934 0.4704445530043966
0.1577699150002445 0.47435271128480694 0.467513434294089
0.15795632000026671 0.47728382999511476 0.46165119687347334
0.15814478000038434 0.4763067904250122 0.4606741573033708
0.15833170300038546 0.4753297508549097 0.4538348803126526
0.158519071000228 0.4753297508549097 0.44699560332193444
0.1587060870001551 0.4753297508549097 0.4401563263312165
0.15889336200007165 0.48216902784562765 0.4284318514899854
0.1591250620003848 0.47435271128480694 0.4255007327796776
0.15931480000017473 0.4733756717147044 0.42452369320957506
0.1595019090000278 0.47435271128480694 0.42452369320957506
0.15968936900026165 0.47435271128480694 0.4264777723497801
0.1598764770001253 0.4782608695652173 0.43722520762090866
0.16006488200036983 0.4782608695652173 0.4430874450415241
0.16027058300005592 0.4782608695652173 0.45676599902296044
0.1604585620002581 0.48412310698583294 0.4606741573033708
0.16064559599999484 0.47239863214460187 0.47728382999511476
0.1608316490001016 0.47435271128480694 0.48900830483634583
0.16101775700008147 0.4763067904250122 0.5036638983878847
0.16120447699995566 0.4782608695652173 0.5065950170981925
0.1613961590001054 0.4802149487054226 0.5163654127992183
0.16159460100016076 0.47239863214460187 0.5192965315095261
0.1617975430003753 0.47923790913532005 0.5153883732291158
0.1619865210000171 0.4763067904250122 0.5173424523693209
0.1621741670001029 0.4851001465559355 0.5095261358085001
0.16236231200036855 0.4811919882755251 0.49877870053737183
0.16254910600036965 0.4782608695652173 0.4909623839765511
0.16273664000027566 0.4802149487054226 0.48216902784562765
0.1629310080002142 0.4831460674157304 0.4811919882755251
0.16314170900022873 0.4831460674157304 0.46946751343429405
0.16335783500016987 0.48705422569614076 0.45481191988275516
0.16356699900006788 0.48412310698583294 0.4450415241817294
0.16378184800032614 0.48705422569614076 0.4382022471910112
0.16399669600014022 0.4782608695652173 0.42745481191988266
0.16421274899994387 0.48216902784562765 0.4382022471910112
0.16442928300011772 0.4831460674157304 0.43917928676111373
0.16464422400031253 0.4909623839765511 0.4479726428920372
0.16485586900034832 0.49193942354665365 0.4538348803126526
0.16506655100010903 0.48900830483634583 0.4636052760136786
0.16527532600002814 0.4909623839765511 0.4655593551538837
0.16548121200003152 0.4929164631167562 0.47239863214460187
0.16570069099998364 0.4909623839765511 0.4880312652662433
0.16593066900031772 0.4929164631167562 0.5017098192476794
0.1661805359999562 0.4929164631167562 0.5065950170981925
0.16639166200002364 0.4948705422569615 0.5114802149487054
0.16658621500027948 0.495847581827064 0.5046409379579873
0.16677380500004801 0.5046409379579873 0.5026868588177822
0.16696080200017605 0.49877870053737183 0.5017098192476794
0.1671476880001137 0.5007327796775769 0.49682462139716654
0.16733518599994568 0.5046409379579873 0.48900830483634583
0.1675225720000526 0.5007327796775769 0.48900830483634583
0.16770906900001137 0.4978016609672691 0.48705422569614076
0.16789740000012898 0.4948705422569615 0.5007327796775769
0.16808417500033102 0.49682462139716654 0.5026868588177822
0.1682714130001841 0.5046409379579873 0.5085490962383976
0.16845879900029104 0.4948705422569615 0.5056179775280898
0.16868272200008505 0.495847581827064 0.49975574010747437
0.1688710710000123 0.49877870053737183 0.4851001465559355
0.16905858700010867 0.49877870053737183 0.4733756717147044
0.16924599200001467 0.4948705422569615 0.4704445530043966
0.16949709900018206 0.49975574010747437 0.4704445530043966
0.16969304100030058 0.49877870053737183 0.4665363947239862
0.16988729700005933 0.5007327796775769 0.46946751343429405
0.1700745170001028 0.495847581827064 0.4655593551538837
0.1702613850002308 0.4948705422569615 0.4665363947239862
0.1704476230002001 0.49193942354665365 0.4606741573033708
0.17063478700038104 0.4938935026868587 0.4606741573033708
0.17082106199995906 0.495847581827064 0.4606741573033708
0.17100833700033036 0.495847581827064 0.4587200781631655
0.171195445000194 0.49682462139716654 0.4684904738641915
0.171382628000174 0.5007327796775769 0.47239863214460187
0.1715851440003462 0.49975574010747437 0.48216902784562765
0.1717761220002103 0.49877870053737183 0.4929164631167562
0.17196341600038068 0.5046409379579873 0.5065950170981925
0.17215030200031833 0.4938935026868587 0.49877870053737183
0.17233726300037233 0.5056179775280898 0.49877870053737183
0.1725248890002149 0.4938935026868587 0.49193942354665365
0.17271218300038527 0.4929164631167562 0.4811919882755251
0.17289925400018546 0.4929164631167562 0.4782608695652173
0.17308749300036652 0.48705422569614076 0.47435271128480694
0.17327337899996564 0.48900830483634583 0.4802149487054226
0.17346820900002058 0.48705422569614076 0.486077186126038
0.17365613300034966 0.48900830483634583 0.4948705422569615
0.17384305600035077 0.48900830483634583 0.4909623839765511
0.17403231200023583 0.486077186126038 0.4851001465559355
0.17422095800020543 0.486077186126038 0.4763067904250122
0.17440827000018544 0.4831460674157304 0.4636052760136786
0.17459615600000689 0.48705422569614076 0.45481191988275516
0.17478406100008215 0.4831460674157304 0.4528578407425501
0.1749721880000834 0.4811919882755251 0.45676599902296044
0.1751590000003489 0.48216902784562765 0.4636052760136786
0.17534551600010673 0.4811919882755251 0.4684904738641915
0.17553297600034057 0.4831460674157304 0.46458231558378116
0.17572204800035252 0.48705422569614076 0.467513434294089
0.17591043400034323 0.47923790913532005 0.467513434294089
0.17609770900025978 0.4782608695652173 0.46458231558378116
0.176284336000208 0.47923790913532005 0.46262823644357587
0.17647177800017744 0.4782608695652173 0.46458231558378116
0.1766591270002209 0.47728382999511476 0.4704445530043966
0.17685660500001177 0.47728382999511476 0.47435271128480694
0.1770439360002456 0.47435271128480694 0.48705422569614076
0.17723093300037362 0.48216902784562765 0.49877870053737183
0.17743270800019673 0.47435271128480694 0.512457254518808
0.1776198350003142 0.47142159257449934 0.5300439667806547
0.17780940700004066 0.47239863214460187 0.540791402051783
0.17799744100011594 0.4753297508549097 0.5593551538837322
0.1781855860003816 0.4802149487054226 0.5476306790425012
0.17837269500023467 0.46946751343429405 0.5486077186126037
0.17855980300009833 0.4782608695652173 0.5378602833414754
0.17874665299996195 0.47142159257449934 0.5310210063507572
0.17893259400034367 0.47435271128480694 0.524181729360039
0.1791201099999853 0.4684904738641915 0.533952125061065
0.17930721900029312 0.47435271128480694 0.5476306790425012
0.1794952899999771 0.4733756717147044 0.5710796287249633
0.17968276900001 0.47923790913532005 0.5857352222765022
0.17986967400020148 0.4704445530043966 0.5984367366878358
0.18005700399999114 0.467513434294089 0.6062530532486565
0.18024916800004576 0.46946751343429405 0.605276013678554
0.180444388000069 0.46946751343429405 0.5984367366878358
0.18064125499995498 0.4684904738641915 0.5837811431362969
0.180839049000042 0.4684904738641915 0.5661944308744504
0.18104554599995026 0.47142159257449934 0.5554469956033219
0.18125817200007077 0.47435271128480694 0.540791402051783
0.18148403900022458 0.47239863214460187 0.5261358085002443
0.18167238900014127 0.4704445530043966 0.512457254518808
0.1818598490003751 0.47239863214460187 0.5065950170981925
0.18204810500037638 0.47435271128480694 0.4929164631167562
0.18223880599998665 0.4753297508549097 0.4782608695652173
0.18242597000016758 0.47728382999511476 0.45969711773326827
0.1826136710001265 0.47728382999511476 0.441133365901319
0.18280150200007483 0.4831460674157304 0.41963849535906195
0.18299227700026677 0.4802149487054226 0.40986809965803617
0.18319668200001615 0.4782608695652173 0.4157303370786516
0.18339677100038898 0.4831460674157304 0.4137762579384465
0.18358549100003074 0.48705422569614076 0.42745481191988266
0.18380950600021606 0.48412310698583294 0.44699560332193444
0.18399761499995293 0.4938935026868587 0.45188080117244755
0.18418637100012347 0.4851001465559355 0.4704445530043966
0.18437518300015654 0.4880312652662433 0.47435271128480694
0.18456238399994618 0.4909623839765511 0.4851001465559355
0.18475014100022236 0.48998534440644836 0.4851001465559355
0.18494019400031902 0.48900830483634583 0.4802149487054226
0.18514650600036475 0.4880312652662433 0.47142159257449934
0.18537048400003187 0.4909623839765511 0.4538348803126526
0.18557137000016155 0.48900830483634583 0.441133365901319
0.18576757100026953 0.4948705422569615 0.4382022471910112
0.1859656609999547 0.4880312652662433 0.42940889106008795
0.18618971300020348 0.48900830483634583 0.4323400097703958
0.18639345100018545 0.48998534440644836 0.42940889106008795
0.18659637400014617 0.4929164631167562 0.431362970200293
0.18679738900027587 0.4880312652662433 0.4450415241817294
0.18699809000008827 0.49682462139716654 0.4655593551538837
0.187211180000304 0.4929164631167562 0.4811919882755251
0.18746345399995334 0.49682462139716654 0.48998534440644836
0.18771063600024718 0.49975574010747437 0.4851001465559355
0.1879506510003921 0.4929164631167562 0.4851001465559355
0.1881558700001733 0.49682462139716654 0.4782608695652173
0.18835349700020743 0.4929164631167562 0.48216902784562765
0.18855271600023116 0.4938935026868587 0.48998534440644836
0.18875154700026542 0.4948705422569615 0.5007327796775769
0.1889475630000561 0.4938935026868587 0.5202735710796287
0.18914498599997387 0.4948705422569615 0.5144113336590133
0.18939172299997153 0.49682462139716654 0.5153883732291158
0.18960340500007078 0.49877870053737183 0.5085490962383976
0.1897949389999667 0.49682462139716654 0.5046409379579873
0.1899876770003175 0.4938935026868587 0.4929164631167562
0.19018060000007608 0.4978016609672691 0.4831460674157304
0.19037554200031082 0.49682462139716654 0.46458231558378116
0.19058320600015577 0.5007327796775769 0.45676599902296044
0.19078853600012735 0.49975574010747437 0.4606741573033708
0.19098666300033074 0.49877870053737183 0.47923790913532005
0.1911873080002806 0.5036638983878847 0.48412310698583294
0.1913791570000285 0.49682462139716654 0.5065950170981925
0.1915720440001678 0.49682462139716654 0.512457254518808
0.19176180000022214 0.4938935026868587 0.5163654127992183
0.19194963100017048 0.49975574010747437 0.5085490962383976
0.19213722100039377 0.4938935026868587 0.4978016609672691
0.19232497700022577 0.4938935026868587 0.4831460674157304
0.1925119010002163 0.48900830483634583 0.45676599902296044
0.19269956500011176 0.4929164631167562 0.4382022471910112
0.1928866170001129 0.4909623839765511 0.4255007327796776
0.1930740410002727 0.4909623839765511 0.4235466536394723
0.1932617420002316 0.48998534440644836 0.42745481191988266
0.19345562800026528 0.48998534440644836 0.4382022471910112
0.19366493999996237 0.4909623839765511 0.4538348803126526
0.19385260400031257 0.49193942354665365 0.47435271128480694
0.19404428600000756 0.4880312652662433 0.49877870053737183
0.19423730200014688 0.48412310698583294 0.5183194919394236
0.1944252250000318 0.4851001465559355 0.5398143624816805
0.19461288900038198 0.47728382999511476 0.5534929164631168
0.19480190500007666 0.4782608695652173 0.5828041035661944
0.19498981000015192 0.4753297508549097 0.5974596971177333
0.19517678800002614 0.47435271128480694 0.621885686370298
0.19536480400029177 0.4763067904250122 0.6257938446507083
0.19555243100012376 0.4763067904250122 0.621885686370298
0.19573933600031523 0.4831460674157304 0.6130923302393747
0.19592718500007322 0.4753297508549097 0.5876893014167073
0.19611634900002173 0.4753297508549097 0.550561797752809
0.19630401300037192 0.486077186126038 0.4851001465559355
0.19651538000016444 0.48216902784562765 0.42452369320957506
0.1967042850001235 0.47923790913532005 0.3756717147044455
0.19689243100037856 0.47923790913532005 0.35222276502198335
0.19708003899995674 0.4811919882755251 0.34636052760136793
0.1972673330001271 0.4802149487054226 0.3561309233023937
0.19748738500038598 0.48998534440644836 0.3659013190034197
0.19767532700006996 0.4782608695652173 0.38739618954567656
0.19786213900033545 0.4802149487054226 0.40693698094772834
0.1980495810003049 0.4763067904250122 0.431362970200293
0.19834154000000126 0.47435271128480694 0.4538348803126526
0.1985309810002036 0.47239863214460187 0.46946751343429405
0.1987189970000145 0.47239863214460187 0.486077186126038
0.19890734599994175 0.4665363947239862 0.5046409379579873
0.19909469499998522 0.4684904738641915 0.522227650219834
0.19928287800030375 0.46946751343429405 0.5329750854909623
0.19947057900026266 0.46946751343429405 0.5486077186126037
0.19965818700029558 0.47142159257449934 0.5525158768930141
0.19984620300010647 0.4733756717147044 0.5525158768930141
0.20003399699999136 0.4733756717147044 0.5583781143136297
0.20022136500028864 0.46946751343429405 0.5446995603321934
0.20040878800000428 0.46946751343429405 0.540791402051783
0.20059598900024866 0.4733756717147044 0.5310210063507572
0.20078304200023922 0.4704445530043966 0.5300439667806547
0.20097103900025104 0.4753297508549097 0.5251587689301416
0.20116703600024266 0.47728382999511476 0.5290669272105519
0.2013575710002442 0.47239863214460187 0.533952125061065
0.20154677200025617 0.4802149487054226 0.5310210063507572
0.20175008400019578 0.4831460674157304 0.5212506106497312
0.20194002500011266 0.486077186126038 0.5046409379579873
0.20213054100031513 0.48705422569614076 0.48900830483634583
0.20231816800014712 0.48705422569614076 0.47239863214460187
0.20250496200014823 0.48998534440644836 0.4509037616023448
0.20269223700006478 0.4929164631167562 0.4460185637518319
0.20287967900003423 0.49193942354665365 0.44406448461162684
0.2030672680002681 0.48998534440644836 0.44211040547142155
0.20325448800031154 0.4909623839765511 0.44894968246213973
0.20344139300004827 0.48998534440644836 0.467513434294089
0.2036282420003772 0.48705422569614076 0.48412310698583294
0.2038160170000083 0.48900830483634583 0.4851001465559355
0.20400318100018922 0.4880312652662433 0.49682462139716654
0.20419473400033894 0.4831460674157304 0.49975574010747437
0.20439104600018254 0.486077186126038 0.5017098192476794
0.20459024699994188 0.49193942354665365 0.5036638983878847
0.20479355900033624 0.48705422569614076 0.5183194919394236
0.2049848340002427 0.4880312652662433 0.5144113336590133
0.20523753400038913 0.48412310698583294 0.5280898876404494
0.2057376750003641 0.48705422569614076 0.5173424523693209
0.20594943100013552 0.4880312652662433 0.5183194919394236
0.20615003900002193 0.4880312652662433 0.524181729360039
0.2063647029999629 0.4909623839765511 0.512457254518808
0.20659847700017053 0.4978016609672691 0.48900830483634583
0.2068146040001011 0.5017098192476794 0.4606741573033708
0.20705574900011925 0.49877870053737183 0.44699560332193444
0.20730928200009657 0.49975574010747437 0.42256961406936977
0.2075179090002166 0.4978016609672691 0.40693698094772834
0.20770970200010197 0.4978016609672691 0.4040058622374205
0.2078995700003361 0.4948705422569615 0.4049829018075233
0.20808802999999898 0.4978016609672691 0.4108451392281387
0.2082761390001906 0.49682462139716654 0.4284318514899854
0.20846417300026587 0.4938935026868587 0.4479726428920372
0.20865102200014007 0.4948705422569615 0.4636052760136786
0.20884022300015204 0.4938935026868587 0.4802149487054226
0.20902738700033296 0.49877870053737183 0.48412310698583294
0.20921686600013345 0.5026868588177822 0.4763067904250122
0.20952491700018072 0.4948705422569615 0.4665363947239862
0.20971771100039405 0.4978016609672691 0.45676599902296044
0.20990602300025785 0.4978016609672691 0.4450415241817294
0.21009320500024842 0.4938935026868587 0.4323400097703958
0.21028201700028148 0.495847581827064 0.4303859306301905
0.21052751400020497 0.4938935026868587 0.4333170493404983
0.21072584400008054 0.4929164631167562 0.4430874450415241
0.21091415599994434 0.49682462139716654 0.4587200781631655
0.21110356100007266 0.4938935026868587 0.4665363947239862
0.211291392000021 0.49193942354665365 0.4782608695652173
0.21147924100023374 0.49682462139716654 0.486077186126038
0.21166794200007644 0.4948705422569615 0.486077186126038
0.2118554580001728 0.4929164631167562 0.48705422569614076
0.21204664000015327 0.4938935026868587 0.4929164631167562
0.2122335080002813 0.4938935026868587 0.4948705422569615
0.2124207650003882 0.4948705422569615 0.49682462139716654
0.21260848400015675 0.4929164631167562 0.4938935026868587
0.2127956300000733 0.4978016609672691 0.4938935026868587
0.2129854790000536 0.49877870053737183 0.495847581827064
0.21317230900012873 0.48998534440644836 0.49877870053737183
0.21336264000001393 0.49193942354665365 0.5017098192476794
0.2135523230003855 0.4948705422569615 0.512457254518808
0.21374106100029167 0.486077186126038 0.5202735710796287
0.21392891000004965 0.486077186126038 0.5271128480703469
0.21411768500001926 0.48705422569614076 0.5271128480703469
0.2143046270002742 0.4811919882755251 0.533952125061065
0.21449221700004273 0.48216902784562765 0.5359062042012701
0.21467921400017076 0.4802149487054226 0.5388373229115779
0.2148672670000451 0.4831460674157304 0.5329750854909623
0.2150542080003106 0.4811919882755251 0.5075720566682951
0.21524126100030117 0.47728382999511476 0.4909623839765511
0.2154281110001648 0.4802149487054226 0.4606741573033708
0.21561651499996515 0.4831460674157304 0.4352711284807034
0.21580440100024134 0.4763067904250122 0.4137762579384465
0.21599215800006277 0.4831460674157304 0.40009770395701016
0.21617985900002168 0.4831460674157304 0.39228138739618945
0.21636746800004403 0.4831460674157304 0.4040058622374205
0.2165767980000055 0.47435271128480694 0.40205178309721545
0.21676570299996456 0.47728382999511476 0.4176844162188569
0.2169567549999556 0.47923790913532005 0.42452369320957506
0.21714532700025302 0.47435271128480694 0.42256961406936977
0.21734488000038255 0.4704445530043966 0.431362970200293
0.21753508000028887 0.4733756717147044 0.441133365901319
0.2177223740000045 0.4684904738641915 0.44992672203224227
0.2179107050001221 0.47239863214460187 0.4636052760136786
0.2180983500002185 0.4753297508549097 0.4782608695652173
0.21828632899996592 0.4733756717147044 0.49193942354665365
0.21847388200012574 0.4763067904250122 0.5114802149487054
0.2186626200000319 0.47923790913532005 0.533952125061065
0.2188777280002796 0.4753297508549097 0.5534929164631168
0.2190750590002608 0.4802149487054226 0.5632633121641426
0.21926913000015702 0.47435271128480694 0.5740107474352711
0.21946903400021256 0.4763067904250122 0.578895945285784
0.21966375400006655 0.4763067904250122 0.5681485100146555
0.21986375100004807 0.47435271128480694 0.5652173913043479
0.22005847000036738 0.47435271128480694 0.5515388373229115
0.22025780100011616 0.4782608695652173 0.533952125061065
0.22045546500021374 0.47435271128480694 0.5134342940889105
0.22065348000023732 0.4753297508549097 0.48412310698583294
0.22084912600030293 0.47142159257449934 0.4704445530043966
0.22105469699999958 0.4811919882755251 0.4538348803126526
0.22126108300017222 0.48412310698583294 0.4538348803126526
0.22152104199994938 0.4782608695652173 0.4655593551538837
0.22181664900017495 0.47728382999511476 0.4802149487054226
0.22205329400003393 0.4831460674157304 0.49193942354665365
0.22226936500010197 0.486077186126038 0.5026868588177822
0.22248256500006391 0.4851001465559355 0.5163654127992183
0.22271508100038773 0.4802149487054226 0.5261358085002443
0.22295159600025727 0.4811919882755251 0.5261358085002443
0.2231905920002646 0.4802149487054226 0.5271128480703469
0.2233961450001516 0.4851001465559355 0.533952125061065
0.2235909390001325 0.4831460674157304 0.5329750854909623
0.2237944910002625 0.4831460674157304 0.5290669272105519
0.22399522900013835 0.4811919882755251 0.5280898876404494
0.22420550400011052 0.4802149487054226 0.5232046897899365
0.22442190800029493 0.4811919882755251 0.512457254518808
0.22463388699998177 0.48216902784562765 0.4978016609672691
0.22485656900016693 0.4802149487054226 0.47728382999511476
0.22507371400024567 0.4880312652662433 0.4665363947239862
0.22529374800024016 0.48900830483634583 0.46458231558378116
0.22551791100022456 0.4880312652662433 0.4704445530043966
0.22579818500025794 0.49193942354665365 0.4733756717147044
0.22610834700026317 0.49193942354665365 0.4753297508549097
0.22632934400007798 0.49682462139716654 0.4733756717147044
0.22652074899997388 0.4978016609672691 0.4782608695652173
0.2267081899999539 0.49682462139716654 0.4811919882755251
0.2268954470000608 0.495847581827064 0.4851001465559355
0.22708300000022064 0.5017098192476794 0.4929164631167562
0.22727309000038076 0.4948705422569615 0.5065950170981925
0.2274603460000435 0.5007327796775769 0.5192965315095261
0.22764832500024568 0.49975574010747437 0.5359062042012701
0.22786011800008055 0.495847581827064 0.5398143624816805
0.22804917100029343 0.5065950170981925 0.5300439667806547
0.2282366870003898 0.5026868588177822 0.5212506106497312
0.22842424000009487 0.5056179775280898 0.5134342940889105
0.2286110150002969 0.5036638983878847 0.512457254518808
0.22879816100021344 0.5046409379579873 0.5065950170981925
0.22898478700017222 0.5046409379579873 0.5046409379579873
0.2291709510000146 0.5046409379579873 0.512457254518808
0.22937357800037717 0.5065950170981925 0.5056179775280898
0.22956276100012474 0.5046409379579873 0.5036638983878847
0.22974959100019987 0.5017098192476794 0.5056179775280898
0.22993699600010586 0.5056179775280898 0.4909623839765511
0.23012467900025513 0.4978016609672691 0.486077186126038
0.23031239800002368 0.49877870053737183 0.47728382999511476
0.23049947000026805 0.4978016609672691 0.47239863214460187
0.23073194800008423 0.4978016609672691 0.4763067904250122
0.23092192700005398 0.4978016609672691 0.4733756717147044
0.23110964600027728 0.49877870053737183 0.47239863214460187
0.23129684700006692 0.4938935026868587 0.4704445530043966
0.23148493700000472 0.495847581827064 0.4782608695652173
0.23167215700004817 0.4978016609672691 0.4831460674157304
0.23185926500036658 0.4948705422569615 0.48705422569614076
0.23204629900010332 0.4929164631167562 0.4978016609672691
0.23223288899998806 0.48998534440644836 0.49975574010747437
0.23241953500019008 0.4929164631167562 0.495847581827064
0.23260795800024425 0.4938935026868587 0.4909623839765511
0.23279510300017137 0.4880312652662433 0.4880312652662433
0.2329828599999928 0.4909623839765511 0.48412310698583294
0.23317030199996225 0.4880312652662433 0.48216902784562765
0.23335863200009044 0.486077186126038 0.47923790913532005
0.2335467590000917 0.4880312652662433 0.4811919882755251
0.23373388600020917 0.4909623839765511 0.48998534440644836
0.23392099500006225 0.48412310698583294 0.4880312652662433
0.23412519600015003 0.4831460674157304 0.49193942354665365
0.23431273000005604 0.4802149487054226 0.4909623839765511
0.23450019000028988 0.4802149487054226 0.486077186126038
0.23469807600031345 0.4802149487054226 0.4851001465559355
0.23488540700009253 0.4763067904250122 0.4753297508549097
0.2350729230001889 0.48216902784562765 0.46946751343429405
0.2352666050001062 0.48216902784562765 0.46458231558378116
0.2354546400001709 0.4831460674157304 0.46262823644357587
0.23564276700017217 0.4811919882755251 0.4655593551538837
0.23583728200037513 0.47728382999511476 0.4665363947239862
0.2360261310000169 0.4753297508549097 0.4763067904250122
0.236212925000018 0.4753297508549097 0.47142159257449934
0.23639964500034694 0.47239863214460187 0.4802149487054226
0.2365865310002846 0.47239863214460187 0.4753297508549097
0.23677330600003188 0.46946751343429405 0.4763067904250122
0.23696048800002245 0.47239863214460187 0.47435271128480694
0.23714791200018226 0.47142159257449934 0.4851001465559355
0.23735070500015354 0.4684904738641915 0.48900830483634583
0.23754516500002865 0.46458231558378116 0.495847581827064
0.23774660700019012 0.46946751343429405 0.49877870053737183
0.23794445600015024 0.4802149487054226 0.49682462139716654
0.23814056400033223 0.47142159257449934 0.49682462139716654
0.23832989500033364 0.4733756717147044 0.5046409379579873
0.23851770700002817 0.47239863214460187 0.49877870053737183
0.2387387779999699 0.4684904738641915 0.5007327796775769
0.23893079400022543 0.467513434294089 0.5056179775280898
0.23912710600006903 0.46946751343429405 0.5075720566682951
0.2393232330000501 0.467513434294089 0.5085490962383976
0.2395128780003688 0.4665363947239862 0.5036638983878847
0.2397006720002537 0.4665363947239862 0.49877870053737183
0.2398887620001915 0.46458231558378116 0.4938935026868587
0.24007540699994934 0.4665363947239862 0.4851001465559355
0.24026349700034189 0.47142159257449934 0.48998534440644836
0.2404510310002479 0.4753297508549097 0.4831460674157304
0.24064193599997452 0.4704445530043966 0.48705422569614076
0.2408296930002507 0.47239863214460187 0.495847581827064
0.2410183560000405 0.4704445530043966 0.49682462139716654
0.24120559500033778 0.4763067904250122 0.4978016609672691
0.24139533300012772 0.4763067904250122 0.49877870053737183
0.24158451500034062 0.47728382999511476 0.4938935026868587
0.24177182700032063 0.47435271128480694 0.4851001465559355
0.24196876900032294 0.4811919882755251 0.47435271128480694
0.24215878500035615 0.4802149487054226 0.46165119687347334
0.24234626299994488 0.4782608695652173 0.44211040547142155
0.24253409400034798 0.48412310698583294 0.4255007327796776
0.2427230729999792 0.48216902784562765 0.42256961406936977
0.24291040400021302 0.486077186126038 0.4206155349291647
0.243098031000045 0.4851001465559355 0.4264777723497801
0.24328725000032136 0.4880312652662433 0.44406448461162684
0.24347456200030138 0.486077186126038 0.45969711773326827
0.24366228200005935 0.4851001465559355 0.4811919882755251
0.24385031600013463 0.48412310698583294 0.5026868588177822
0.2440819790003843 0.48412310698583294 0.5114802149487054
0.2442693100001634 0.486077186126038 0.5163654127992183
0.2444567890001963 0.4831460674157304 0.5192965315095261
0.2446442489999754 0.486077186126038 0.5232046897899365
0.24483139500034667 0.4851001465559355 0.5173424523693209
0.24501872500013633 0.48900830483634583 0.5192965315095261
0.24520642600009523 0.4909623839765511 0.5105031753786029
0.24540007200039327 0.48216902784562765 0.5105031753786029
0.2455898100001832 0.48412310698583294 0.5105031753786029
0.2457766770003218 0.48216902784562765 0.5065950170981925
0.2459634710003229 0.48216902784562765 0.5085490962383976
0.2461507830003029 0.4802149487054226 0.5105031753786029
0.24635955800022202 0.4880312652662433 0.5134342940889105
0.24655001800010723 0.48900830483634583 0.4938935026868587
0.24673727500021414 0.48412310698583294 0.4831460674157304
0.24693055000034292 0.48998534440644836 0.45188080117244755
0.24711799200031237 0.486077186126038 0.42940889106008795
0.24730589599994346 0.49193942354665365 0.412799218368344
0.2474934680003571 0.4948705422569615 0.412799218368344
0.24768029799997748 0.4909623839765511 0.4176844162188569
0.24786764800001038 0.49682462139716654 0.4352711284807034
0.24805625600038184 0.49682462139716654 0.4538348803126526
0.24824617900003432 0.495847581827064 0.4763067904250122
0.2484326769999825 0.49682462139716654 0.4978016609672691
0.24862035900014234 0.4978016609672691 0.5114802149487054
0.24880774500024927 0.5007327796775769 0.5417684416218858
0.24899548300027163 0.5046409379579873 0.5622862725940401
0.24918292500024108 0.5056179775280898 0.5730337078651686
0.24941314400030024 0.5036638983878847 0.5906204201270151
0.2496065489999637 0.5056179775280898 0.5935515388373229
0.2497946020002928 0.5085490962383976 0.5896433805569126
0.24998289500035753 0.5046409379579873 0.5867122618466047
0.25017250400014746 0.5026868588177822 0.5749877870053737
0.25037429700023495 0.5007327796775769 0.5525158768930141
0.25057823900033327 0.495847581827064 0.5280898876404494
0.2507689210001445 0.49193942354665365 0.5026868588177822
0.2509561410001879 0.4948705422569615 0.4733756717147044
0.2511445449999883 0.4938935026868587 0.44894968246213973
0.2513332460002857 0.49193942354665365 0.441133365901319
0.2515226140003506 0.4948705422569615 0.43722520762090866
0.2517103150003095 0.49682462139716654 0.43722520762090866
0.25189764600008857 0.4938935026868587 0.42940889106008795
0.25209414300024946 0.495847581827064 0.4176844162188569
0.2523296399999708 0.49877870053737183 0.40009770395701016
0.25255209900024056 0.4938935026868587 0.3805569125549584
0.25276859600035095 0.4978016609672691 0.3707865168539326
0.2529688900003748 0.4851001465559355 0.3737176355642404
0.25316651599996476 0.4880312652662433 0.3805569125549584
0.2533843650003291 0.4851001465559355 0.39228138739618945
0.253581177000342 0.4802149487054226 0.40009770395701016
0.2537743410002804 0.4831460674157304 0.412799218368344
0.25397083799998654 0.4831460674157304 0.4284318514899854
0.25417866900033914 0.4802149487054226 0.44992672203224227
0.25438872099994114 0.4782608695652173 0.46946751343429405
0.2546093109999674 0.4782608695652173 0.49877870053737183
0.2548513440001443 0.47728382999511476 0.5232046897899365
0.2550934150003741 0.4782608695652173 0.5456765999022961
0.25532391200022175 0.4811919882755251 0.5613092330239375
0.2555425750001632 0.48900830483634583 0.5740107474352711
0.2557414800003244 0.4802149487054226 0.5779189057156815
0.2559392550001576 0.4802149487054226 0.578895945285784
0.25613758500003314 0.4831460674157304 0.578895945285784
0.2563336560001517 0.4851001465559355 0.576941866145579
0.25652985700025965 0.48412310698583294 0.5701025891548608
0.25672511400034637 0.47923790913532005 0.5622862725940401
0.25691618500013647 0.4763067904250122 0.5554469956033219
0.25710775700008526 0.4802149487054226 0.540791402051783
0.2572950320000018 0.4753297508549097 0.5261358085002443
0.25749647300017386 0.47923790913532005 0.5065950170981925
0.2576847110003655 0.4763067904250122 0.4811919882755251
0.25787293100029274 0.4831460674157304 0.45969711773326827
0.2580601130002833 0.4753297508549097 0.4401563263312165
0.2582490370000414 0.47239863214460187 0.431362970200293
0.2584694590000254 0.4753297508549097 0.4382022471910112
0.258657883000069 0.4704445530043966 0.4450415241817294
0.2588461760001337 0.46946751343429405 0.45969711773326827
0.2590332110003146 0.47142159257449934 0.4733756717147044
0.25922052300029463 0.467513434294089 0.4811919882755251
0.259412538000106 0.467513434294089 0.48412310698583294
0.2596514609999758 0.467513434294089 0.4938935026868587
0.25989823500003695 0.4684904738641915 0.5036638983878847
0.2601406390003831 0.4753297508549097 0.5144113336590133
0.26037213600011455 0.4704445530043966 0.5163654127992183
0.260605557999952 0.4753297508549097 0.4909623839765511
0.26089512800035664 0.4753297508549097 0.46946751343429405
0.2612424200001442 0.4802149487054226 0.47142159257449934
0.26150993400005973 0.4811919882755251 0.48412310698583294
0.2617142280000735 0.47923790913532005 0.4851001465559355
0.26191776200039385 0.47728382999511476 0.48412310698583294
0.26211375900038547 0.47923790913532005 0.4831460674157304
0.2623186640003041 0.47728382999511476 0.4811919882755251
0.2625129390003167 0.4763067904250122 0.48216902784562765
0.2627066029999696 0.4763067904250122 0.4851001465559355
0.2629015440002149 0.48412310698583294 0.49877870053737183
0.2630996900002174 0.4782608695652173 0.5007327796775769
0.2633000760001778 0.4831460674157304 0.5007327796775769
0.26350072100012767 0.4909623839765511 0.5065950170981925
0.26369936600030996 0.48900830483634583 0.4909623839765511
0.2639447149999796 0.4909623839765511 0.4753297508549097
0.2641495450002367 0.4929164631167562 0.44992672203224227
0.2643411530002595 0.4948705422569615 0.42940889106008795
0.26452961400036656 0.49682462139716654 0.4157303370786516
0.264717500000188 0.5007327796775769 0.4049829018075233
0.26490508999995654 0.49682462139716654 0.403028822667318
0.26509590200021194 0.4938935026868587 0.4040058622374205
0.2652928620000239 0.4948705422569615 0.4157303370786516
0.26550015500015434 0.49682462139716654 0.42159257449926724
0.26569256000038877 0.49682462139716654 0.431362970200293
0.2658932980002646 0.49682462139716654 0.42745481191988266
0.2660991279999507 0.5026868588177822 0.4284318514899854
0.2662966990001223 0.49975574010747437 0.412799218368344
0.26651271500031726 0.4978016609672691 0.4108451392281387
0.2667388039999423 0.4929164631167562 0.42159257449926724
0.2669462270000622 0.4929164631167562 0.4382022471910112
0.2672093529999984 0.4929164631167562 0.4831460674157304
0.2674408679999942 0.4909623839765511 0.5163654127992183
0.2676533100002416 0.48900830483634583 0.550561797752809
0.26786597299997084 0.48900830483634583 0.578895945285784
0.2680711190000693 0.4929164631167562 0.5906204201270151
0.2682752079999773 0.4880312652662433 0.5915974596971176
0.2684730760001912 0.49193942354665365 0.5984367366878358
0.2687154240002201 0.4948705422569615 0.5867122618466047
0.2689199579999695 0.4938935026868587 0.5720566682950659
0.2691176040002574 0.49877870053737183 0.5583781143136297
0.2693098600002486 0.49193942354665365 0.5476306790425012
0.2695737450003435 0.4929164631167562 0.5310210063507572
0.26977377900038846 0.4948705422569615 0.524181729360039
0.27001825700017434 0.4948705422569615 0.5251587689301416
0.2702210140000716 0.4929164631167562 0.5251587689301416
0.2704244000001381 0.495847581827064 0.5261358085002443
0.2706202860003941 0.49682462139716654 0.5202735710796287
0.27084841200030496 0.495847581827064 0.5114802149487054
0.27103981700020086 0.48998534440644836 0.5017098192476794
0.271237129000383 0.49877870053737183 0.5017098192476794
0.27144253300002674 0.48705422569614076 0.49193942354665365
0.2716475860001992 0.4880312652662433 0.4880312652662433
0.2718506940000225 0.4909623839765511 0.4851001465559355
0.27203974700023537 0.48998534440644836 0.48412310698583294
0.27222754100012025 0.48900830483634583 0.48705422569614076
0.2724152050000157 0.49193942354665365 0.4880312652662433
0.2726022209999428 0.48900830483634583 0.4948705422569615
0.2727892550001343 0.48900830483634583 0.4938935026868587
0.2730120109999916 0.48900830483634583 0.48900830483634583
0.2731998230001409 0.4880312652662433 0.47435271128480694
0.27339128300036464 0.48998534440644836 0.46946751343429405
0.2735799470001439 0.48900830483634583 0.4655593551538837
0.27376716700018733 0.48705422569614076 0.4606741573033708
0.2739538119999452 0.4851001465559355 0.4684904738641915
0.2741419020003377 0.48412310698583294 0.4811919882755251
0.2743301960003919 0.48412310698583294 0.4880312652662433
0.2745185080002557 0.48216902784562765 0.5007327796775769
0.2747056910002357 0.4811919882755251 0.5105031753786029
0.2748928360001628 0.4831460674157304 0.49193942354665365
0.27508087000023806 0.4802149487054226 0.4831460674157304
0.2752684600000066 0.4851001465559355 0.4733756717147044
0.27545823500031474 0.48412310698583294 0.4606741573033708
0.27564914000004137 0.48412310698583294 0.4538348803126526
0.27583665600013774 0.4831460674157304 0.4538348803126526
0.27602387500019177 0.48412310698583294 0.4538348803126526
0.27621059500006595 0.4831460674157304 0.45188080117244755
0.2763979810001729 0.4811919882755251 0.44406448461162684
0.27658599699998376 0.4782608695652173 0.4303859306301905
0.27677329100015413 0.4802149487054226 0.4137762579384465
0.2769605840003351 0.4782608695652173 0.40009770395701016
0.27714808200016705 0.47435271128480694 0.3961895456765998
0.27735724500007564 0.47435271128480694 0.4049829018075233
0.27754581700037306 0.4753297508549097 0.4235466536394723
0.277739295000174 0.4733756717147044 0.4479726428920372
0.27792666300001656 0.47435271128480694 0.4655593551538837
0.27811554900017654 0.47239863214460187 0.4811919882755251
0.2783189350002431 0.4763067904250122 0.4909623839765511
0.2785063220003394 0.47923790913532005 0.495847581827064
0.2786947820000023 0.4782608695652173 0.49877870053737183
0.27888514899996153 0.4851001465559355 0.5007327796775769
0.27907311000035406 0.48216902784562765 0.49193942354665365
0.2792604400001437 0.47923790913532005 0.4938935026868587
0.27944758600006026 0.4811919882755251 0.49975574010747437
0.2796344719999979 0.47923790913532005 0.5095261358085001
0.2798234140000204 0.47435271128480694 0.5261358085002443
0.28001087400025426 0.47239863214460187 0.5398143624816805
0.28019890900031896 0.4753297508549097 0.5525158768930141
0.28038648000028843 0.47728382999511476 0.5476306790425012
0.2805741440001839 0.47435271128480694 0.5476306790425012
0.2807616230002168 0.47435271128480694 0.5446995603321934
0.2809492129999853 0.47435271128480694 0.5417684416218858
0.2811369510000077 0.4753297508549097 0.5388373229115779
0.28133739200029595 0.4763067904250122 0.5398143624816805
0.28152701900035026 0.4753297508549097 0.5368832437713726
0.2817155350003304 0.47435271128480694 0.5359062042012701
0.2819036060000144 0.4753297508549097 0.5310210063507572
0.2820904190002693 0.4811919882755251 0.5271128480703469
0.28227778600012243 0.4802149487054226 0.5202735710796287
0.28246521000028224 0.4763067904250122 0.5065950170981925
0.28265172500005065 0.47435271128480694 0.49975574010747437
0.2828389450000941 0.47728382999511476 0.48998534440644836
0.28302605299995776 0.4782608695652173 0.48412310698583294
0.28321325400020214 0.4782608695652173 0.467513434294089
0.2834423990002506 0.4802149487054226 0.44894968246213973
0.283650100000159 0.4831460674157304 0.4284318514899854
0.28386917100033315 0.48705422569614076 0.412799218368344
0.28407194600004004 0.4851001465559355 0.40693698094772834
0.2842609799999991 0.4909623839765511 0.4137762579384465
0.2844482919999791 0.48900830483634583 0.4264777723497801
0.2846362710001813 0.4851001465559355 0.43917928676111373
0.28482386099994983 0.48412310698583294 0.4538348803126526
0.28501126600031057 0.4851001465559355 0.4587200781631655
0.28523142900030507 0.48412310698583294 0.4655593551538837
0.2854445740003939 0.4851001465559355 0.4655593551538837
0.2856327570002577 0.4880312652662433 0.4636052760136786
0.2858204580002166 0.48705422569614076 0.4636052760136786
0.2860080850000486 0.48998534440644836 0.46262823644357587
0.2861959530000604 0.48998534440644836 0.44992672203224227
0.2863845240003684 0.4909623839765511 0.45676599902296044
0.28658487300026536 0.48998534440644836 0.46262823644357587
0.2867727590000868 0.4929164631167562 0.4753297508549097
0.2869598310003312 0.4948705422569615 0.47435271128480694
0.2871529389999523 0.4948705422569615 0.4851001465559355
0.287343121000049 0.49877870053737183 0.4948705422569615
0.2875304710000819 0.4938935026868587 0.49877870053737183
0.28771826399997735 0.4938935026868587 0.5036638983878847
0.2879069470000104 0.4929164631167562 0.5046409379579873
0.2880944440003077 0.4948705422569615 0.5085490962383976
0.28828179300035117 0.49193942354665365 0.5114802149487054
0.2884692160000668 0.49877870053737183 0.5105031753786029
0.28865621400018426 0.4929164631167562 0.512457254518808
0.2888442110001961 0.4948705422569615 0.5163654127992183
0.28903163400036647 0.4938935026868587 0.5173424523693209
0.289219002000209 0.49682462139716654 0.5192965315095261
0.2894164809999893 0.4978016609672691 0.5261358085002443
0.28960958900006517 0.495847581827064 0.5319980459208598
0.2898005860001831 0.495847581827064 0.5359062042012701
0.28998919500008924 0.495847581827064 0.5368832437713726
0.29017606200022783 0.49682462139716654 0.5437225207620908
0.29036263400030293 0.495847581827064 0.5515388373229115
0.29055085300024075 0.4948705422569615 0.5583781143136297
0.2907377770002313 0.4929164631167562 0.5622862725940401
0.29092583000010563 0.4909623839765511 0.567171470444553
0.2911129010003606 0.49193942354665365 0.5642403517342451
0.2913001390002137 0.49193942354665365 0.5642403517342451
0.2914870070003417 0.5007327796775769 0.5632633121641426
0.2916743740001948 0.49193942354665365 0.5476306790425012
0.2918613900001219 0.4909623839765511 0.533952125061065
0.29204890600021827 0.49193942354665365 0.5153883732291158
0.29223564400035684 0.4909623839765511 0.48998534440644836
0.2924241969999457 0.4909623839765511 0.46458231558378116
0.29261210200002097 0.48998534440644836 0.44211040547142155
0.29279908100033936 0.49193942354665365 0.4235466536394723
0.2929860409999492 0.48998534440644836 0.4186614557889594
0.29317357500030994 0.4880312652662433 0.41963849535906195
0.2933641650001846 0.48900830483634583 0.42745481191988266
0.2935522360003233 0.4851001465559355 0.4401563263312165
0.2937394190003033 0.4851001465559355 0.44699560332193444
0.29392671300001894 0.4831460674157304 0.4684904738641915
0.29411561699998856 0.486077186126038 0.4733756717147044
0.29430420700009563 0.48705422569614076 0.486077186126038
0.2945015010000134 0.4880312652662433 0.48998534440644836
0.29468907199998284 0.48216902784562765 0.49975574010747437
0.2948761440002272 0.4831460674157304 0.48900830483634583
0.2950628080002389 0.4851001465559355 0.4831460674157304
0.29524989700030346 0.4851001465559355 0.47239863214460187
0.2954380240003047 0.4880312652662433 0.457743038593063
0.2956254109999463 0.48705422569614076 0.4479726428920372
0.2958129080002436 0.4851001465559355 0.4264777723497801
0.2959999240001707 0.48900830483634583 0.403028822667318
0.2961867730000449 0.4909623839765511 0.3786028334147533
0.2963742700003422 0.48216902784562765 0.35906204201270153
0.2965623049999522 0.4831460674157304 0.35710796287249624
0.29674983900031293 0.48705422569614076 0.35222276502198335
0.2969371140002295 0.48216902784562765 0.37274059599413767
0.297124260000146 0.4811919882755251 0.4049829018075233
0.2973183490003066 0.47923790913532005 0.4460185637518319
0.297520402000373 0.47923790913532005 0.48412310698583294
0.2977075660000992 0.4831460674157304 0.5095261358085001
0.29789513700006864 0.47435271128480694 0.5329750854909623
0.298082968000017 0.4753297508549097 0.5495847581827065
0.29827042800025083 0.47239863214460187 0.5632633121641426
0.2984581480000088 0.4763067904250122 0.5701025891548608
0.29864531200018973 0.47142159257449934 0.5720566682950659
0.2988333650000641 0.4704445530043966 0.5847581827063997
0.2990208250002979 0.47142159257449934 0.5974596971177333
0.2992083970002568 0.4684904738641915 0.6091841719589643
0.29939583800023684 0.4704445530043966 0.621885686370298
0.2995829840001534 0.4733756717147044 0.6248168050806058
0.2997708699999748 0.47239863214460187 0.6189545676599901
0.29995810800028266 0.47142159257449934 0.5915974596971176
0.3001449940002203 0.4733756717147044 0.5515388373229115
0.3003320100001474 0.4753297508549097 0.49877870053737183
0.3005185629999687 0.4753297508549097 0.4538348803126526
0.30070561599995926 0.47728382999511476 0.42159257449926724
0.30089250200035167 0.4753297508549097 0.40693698094772834
0.3010800179999933 0.47728382999511476 0.4049829018075233
0.3012668119999944 0.47923790913532005 0.41670737664875435
0.301457068000218 0.47728382999511476 0.4264777723497801
0.301644380000198 0.47923790913532005 0.4460185637518319
0.30183198900022035 0.4802149487054226 0.4509037616023448
0.3020191160003378 0.47728382999511476 0.4528578407425501
0.3022131310003715 0.48216902784562765 0.44211040547142155
0.3024214619999839 0.4802149487054226 0.42159257449926724
0.30262168100034614 0.4831460674157304 0.38739618954567656
0.3028517699999611 0.48216902784562765 0.3737176355642404
0.3030550640000911 0.48216902784562765 0.37176355642403514
0.303253691000009 0.4831460674157304 0.38641914997557403
0.303445966000254 0.4831460674157304 0.4137762579384465
0.3036385740001606 0.48216902784562765 0.43624816805080613
0.30384077500002604 0.4802149487054226 0.45188080117244755
0.304053753000062 0.4811919882755251 0.4509037616023448
0.3042820089999623 0.47923790913532005 0.4557889594528579
0.3045403940000142 0.4782608695652173 0.45188080117244755
0.30480002000012973 0.47923790913532005 0.45481191988275516
0.3050372390002849 0.47728382999511476 0.4479726428920372
0.30525516200032143 0.4782608695652173 0.43917928676111373
0.30550417700032995 0.48216902784562765 0.43624816805080613
0.3057059150000896 0.4909623839765511 0.4303859306301905
0.30590381900037755 0.48998534440644836 0.4176844162188569
0.30610372399996777 0.4938935026868587 0.4040058622374205
0.306300647000171 0.4978016609672691 0.3952125061064973
0.30649501500010956 0.5026868588177822 0.39912066438690763
0.30668982700035485 0.5046409379579873 0.38446507083536874
0.30689621300007275 0.5046409379579873 0.40205178309721545
0.30717746800019086 0.5046409379579873 0.44699560332193444
0.3074593530000129 0.5017098192476794 0.49193942354665365
0.3077102750003178 0.5056179775280898 0.5368832437713726
0.3079765120000957 0.5105031753786029 0.5730337078651686
0.3082472300002337 0.49975574010747437 0.5984367366878358
0.30853367100007745 0.5036638983878847 0.6062530532486565
0.30883622200008176 0.49682462139716654 0.6101612115290669
0.3090712930002155 0.4938935026868587 0.6082071323888618
0.30930725200005327 0.4929164631167562 0.6121152906692722
0.30962676600029226 0.5017098192476794 0.6140693698094772
0.3098426890001065 0.49682462139716654 0.6091841719589643
0.3100468530001308 0.4978016609672691 0.5994137762579383
0.3102521830001024 0.49682462139716654 0.5837811431362969
0.31049475400004667 0.49975574010747437 0.5691255495847583
0.31070117700028277 0.49877870053737183 0.5495847581827065
0.3109423590003644 0.49682462139716654 0.5378602833414754
0.31113559699997495 0.49975574010747437 0.5319980459208598
0.31132461200013495 0.5026868588177822 0.5261358085002443
0.31151255400027367 0.495847581827064 0.5251587689301416
0.31170027400003164 0.4929164631167562 0.5280898876404494
0.3118885670000964 0.48998534440644836 0.5183194919394236
0.3120918240001629 0.48998534440644836 0.522227650219834
0.312280321000344 0.49682462139716654 0.512457254518808
0.31246789200031344 0.4909623839765511 0.5085490962383976
0.31265581600018777 0.4929164631167562 0.5056179775280898
0.312842443000136 0.4851001465559355 0.5085490962383976
0.31302957000025344 0.486077186126038 0.5046409379579873
0.31321810400004324 0.486077186126038 0.5134342940889105
0.3134608970003683 0.48900830483634583 0.5183194919394236
0.3136487270003272 0.4851001465559355 0.5202735710796287
0.31383609500016973 0.48998534440644836 0.5163654127992183
0.3140236110002661 0.486077186126038 0.5105031753786029
0.3142107560001932 0.486077186126038 0.4938935026868587
0.31439830900035304 0.4851001465559355 0.47923790913532005
0.3145856770001956 0.4851001465559355 0.46946751343429405
0.3147737300000699 0.48705422569614076 0.4704445530043966
0.3149621720003779 0.4880312652662433 0.47435271128480694
0.31514915100024155 0.48216902784562765 0.4763067904250122
0.31534007400023256 0.4880312652662433 0.4782608695652173
0.31552794100025494 0.4880312652662433 0.47435271128480694
0.3157151420000446 0.48900830483634583 0.4753297508549097
0.3159031580003102 0.49193942354665365 0.46165119687347334
0.31609069300020565 0.48705422569614076 0.44699560332193444
0.3162783750003655 0.48705422569614076 0.431362970200293
0.3164666689999649 0.48900830483634583 0.41475329750854906
0.3166543140000613 0.4831460674157304 0.40009770395701016
0.3168418670002211 0.48216902784562765 0.3913043478260869
0.3170294010001271 0.48216902784562765 0.39228138739618945
0.3172163620001811 0.4811919882755251 0.41670737664875435
0.3174237289999837 0.486077186126038 0.43624816805080613
0.317611541000133 0.486077186126038 0.44699560332193444
0.3177983350001341 0.47923790913532005 0.4684904738641915
0.3179854800000612 0.4802149487054226 0.4851001465559355
0.31817308900008356 0.4802149487054226 0.495847581827064
0.3183600679999472 0.4811919882755251 0.5065950170981925
0.31854821300021285 0.4763067904250122 0.5095261358085001
0.31876887700036605 0.4753297508549097 0.4978016609672691
0.3189561330000288 0.47435271128480694 0.48900830483634583
0.3191432970002097 0.4753297508549097 0.4782608695652173
0.3193300910002108 0.47142159257449934 0.4684904738641915
0.31951825500027553 0.4684904738641915 0.4655593551538837
0.31970678900006533 0.47142159257449934 0.46946751343429405
0.3198959350002042 0.47142159257449934 0.47239863214460187
0.32008359900009964 0.47142159257449934 0.4753297508549097
0.32028641100032473 0.47142159257449934 0.4802149487054226
0.3204735930003153 0.4782608695652173 0.4831460674157304
0.32066062700005205 0.4763067904250122 0.4763067904250122
0.32084781000003204 0.4753297508549097 0.4782608695652173
0.32103514100026587 0.4763067904250122 0.4782608695652173
0.32123115600006713 0.48216902784562765 0.48900830483634583
0.3214721340000324 0.4802149487054226 0.49682462139716654
0.3216755200000989 0.4802149487054226 0.5007327796775769
0.3218742580002072 0.4811919882755251 0.5075720566682951
0.32206508900026165 0.4811919882755251 0.5114802149487054
0.3222531970000091 0.4831460674157304 0.5134342940889105
0.3224419170001056 0.4831460674157304 0.5134342940889105
0.32262880300004326 0.4802149487054226 0.5065950170981925
0.32281630000034056 0.4831460674157304 0.49975574010747437
0.3230266680002387 0.4811919882755251 0.4909623839765511
0.32321394300015527 0.4851001465559355 0.48216902784562765
0.32340073600016694 0.48216902784562765 0.4753297508549097
0.3235901040002318 0.4831460674157304 0.46458231558378116
0.32377725000014834 0.4831460674157304 0.4460185637518319
0.32396595099999104 0.4851001465559355 0.42159257449926724
0.3241526890001296 0.486077186126038 0.4079140205178309
0.3243411860003107 0.4811919882755251 0.40009770395701016
0.32452914600025906 0.4831460674157304 0.40009770395701016
0.3247161990002496 0.48216902784562765 0.4049829018075233
0.32490403000019796 0.48705422569614076 0.4137762579384465
0.3250921570001992 0.48705422569614076 0.4186614557889594
0.3252800059999572 0.48705422569614076 0.42452369320957506
0.3254714290001175 0.486077186126038 0.43429408891060084
0.325660149000214 0.486077186126038 0.44992672203224227
0.3258487570001307 0.4909623839765511 0.4587200781631655
0.326043662000302 0.4938935026868587 0.4763067904250122
0.32623325200029285 0.495847581827064 0.486077186126038
0.32642095300025176 0.4938935026868587 0.48900830483634583
0.32660972800022137 0.49877870053737183 0.486077186126038
0.3267968180002754 0.49682462139716654 0.486077186126038
0.32698461100017084 0.49682462139716654 0.4948705422569615
0.32717146000004504 0.49877870053737183 0.5046409379579873
0.3273586990003423 0.49975574010747437 0.5163654127992183
0.3275459920000685 0.49877870053737183 0.5251587689301416
0.3277330640003129 0.4978016609672691 0.5378602833414754
0.32792107900013434 0.49877870053737183 0.5427454811919883
0.32810950300017794 0.4978016609672691 0.5544699560332194
0.32831435200023407 0.49877870053737183 0.5593551538837322
0.32850260800023534 0.5007327796775769 0.5574010747435272
0.3286902720001308 0.4978016609672691 0.5534929164631168
0.3288775290002377 0.5026868588177822 0.5495847581827065
0.3290644520002388 0.49682462139716654 0.5456765999022961
0.3292519310002717 0.5026868588177822 0.5388373229115779
0.3294437240001571 0.49682462139716654 0.5310210063507572
0.3296322030000738 0.49877870053737183 0.5290669272105519
0.3298204600000645 0.495847581827064 0.5271128480703469
0.33001593800008777 0.4948705422569615 0.5212506106497312
0.3302040280000256 0.4929164631167562 0.524181729360039
0.33039102600014303 0.4929164631167562 0.524181729360039
0.3305795969999963 0.49193942354665365 0.5280898876404494
0.33077011300019876 0.49193942354665365 0.5251587689301416
0.33095736900031625 0.4938935026868587 0.5153883732291158
0.33114394100039135 0.48998534440644836 0.5085490962383976
0.3313309940003819 0.4909623839765511 0.5036638983878847
0.33151793500019267 0.4909623839765511 0.4978016609672691
0.33170521100009864 0.49193942354665365 0.4929164631167562
0.331892634000269 0.48998534440644836 0.48900830483634583
0.3320795940003336 0.4929164631167562 0.486077186126038
0.3322679800003243 0.4929164631167562 0.486077186126038
0.33245512600024085 0.4978016609672691 0.486077186126038
0.33264238200035834 0.4929164631167562 0.4929164631167562
0.3328289720002431 0.48998534440644836 0.5065950170981925
0.33301613599996926 0.495847581827064 0.5192965315095261
0.3332123190002676 0.4880312652662433 0.524181729360039
0.33343057499996576 0.4948705422569615 0.5329750854909623
0.3336187940003583 0.48705422569614076 0.533952125061065
0.3338065689999894 0.4831460674157304 0.5349291646311676
0.33399306700039233 0.4802149487054226 0.540791402051783
0.33418037900037234 0.4782608695652173 0.5544699560332194
0.334369173000141 0.48412310698583294 0.5515388373229115
0.33455661400012104 0.47728382999511476 0.5456765999022961
0.3347436670001116 0.4763067904250122 0.5359062042012701
0.3349304050002502 0.4763067904250122 0.5183194919394236
0.33513260600011563 0.4753297508549097 0.48705422569614076
0.33532143699994776 0.4782608695652173 0.4528578407425501
0.33552302600037365 0.4763067904250122 0.4186614557889594
0.33571928300034415 0.47435271128480694 0.39228138739618945
0.335942002000138 0.47923790913532005 0.3883732291157791
0.33635047799998574 0.47728382999511476 0.38446507083536874
0.33659049300013066 0.4733756717147044 0.3981436248168051
0.3367887120002706 0.47239863214460187 0.40889106008793363
0.33698769100010395 0.47728382999511476 0.41963849535906195
0.3371845030001168 0.4704445530043966 0.4255007327796776
0.33739566600024773 0.4684904738641915 0.4323400097703958
0.3376386630002344 0.4704445530043966 0.431362970200293
0.33787321499994505 0.46946751343429405 0.4352711284807034
0.3381081190000259 0.46946751343429405 0.4401563263312165
0.33833894899998995 0.46946751343429405 0.44992672203224227
0.33856385300032343 0.46946751343429405 0.45188080117244755
0.3387928870001815 0.4733756717147044 0.4528578407425501
0.3389932180002688 0.4733756717147044 0.4538348803126526
0.33918827000024976 0.47728382999511476 0.4450415241817294
0.3393831010002941 0.47728382999511476 0.4323400097703958
0.3396463010003572 0.4753297508549097 0.4137762579384465
0.33992001900014657 0.4782608695652173 0.42159257449926724
0.34016523800028153 0.4753297508549097 0.4401563263312165
0.3403776610002751 0.47923790913532005 0.45481191988275516
0.3405832690000352 0.47435271128480694 0.48412310698583294
0.34079709900015587 0.4782608695652173 0.49877870053737183
0.3410136520001288 0.4733756717147044 0.5095261358085001
0.34123048200035555 0.47435271128480694 0.5134342940889105
0.341556440000204 0.48412310698583294 0.5153883732291158
0.34177228900034606 0.4802149487054226 0.5036638983878847
0.34198002700031793 0.4802149487054226 0.49877870053737183
0.3421941159999733 0.4811919882755251 0.5085490962383976
0.34240396500035786 0.4880312652662433 0.5368832437713726
0.3426980170002025 0.4880312652662433 0.5710796287249633
0.34294871700012663 0.4831460674157304 0.5867122618466047
0.34323019400017074 0.4831460674157304 0.5837811431362969
0.343485394000254 0.4851001465559355 0.5710796287249633
0.34380207499998505 0.49193942354665365 0.5437225207620908
0.3441900689999784 0.486077186126038 0.5271128480703469
0.34441730700018525 0.48900830483634583 0.5095261358085001
0.3446192860001247 0.4938935026868587 0.5017098192476794
0.3448210050000853 0.4880312652662433 0.4929164631167562
0.34502194600008806 0.486077186126038 0.4851001465559355
0.34522238800036575 0.48998534440644836 0.4811919882755251
0.3454846810000163 0.48412310698583294 0.48216902784562765
0.34568606700031523 0.4880312652662433 0.48216902784562765
0.34589711900025577 0.4909623839765511 0.4763067904250122
0.34610113500002626 0.4909623839765511 0.46946751343429405
0.3463059840000824 0.4909623839765511 0.46946751343429405
0.34654444300031173 0.4929164631167562 0.4655593551538837
0.3467345890003344 0.4880312652662433 0.467513434294089
0.3469226970000818 0.4929164631167562 0.47239863214460187
0.3471102130001782 0.49975574010747437 0.4802149487054226
0.34730082100031723 0.4929164631167562 0.486077186126038
0.34748850400001174 0.495847581827064 0.5017098192476794
0.34767561200033015 0.4938935026868587 0.5134342940889105
0.3478635540000141 0.4948705422569615 0.5290669272105519
0.3480514400002903 0.49682462139716654 0.5388373229115779
0.3482397709999532 0.4938935026868587 0.5446995603321934
0.3484289530001661 0.495847581827064 0.5534929164631168
0.34862141400026303 0.49975574010747437 0.5515388373229115
0.3488117440001588 0.4948705422569615 0.5456765999022961
0.3489996670000437 0.49193942354665365 0.5427454811919883
0.34918727600006605 0.4929164631167562 0.5310210063507572
0.34943184600024324 0.49193942354665365 0.5261358085002443
0.34962186200027645 0.49193942354665365 0.5105031753786029
0.34980895200033046 0.49193942354665365 0.4909623839765511
0.3499966160002259 0.4929164631167562 0.4665363947239862
0.35018390999994153 0.49193942354665365 0.4382022471910112
0.3503717220000908 0.4929164631167562 0.40986809965803617
0.35055918200032465 0.5017098192476794 0.38446507083536874
0.35074634600005083 0.4978016609672691 0.3678553981436248
0.35093443599998864 0.5046409379579873 0.35417684416218864
0.3511224150001908 0.5007327796775769 0.3453834880312652
0.35131013399995936 0.49877870053737183 0.34733756717147046
0.3514977429999817 0.4978016609672691 0.34636052760136793
0.3516852590000781 0.49682462139716654 0.3561309233023937
0.35187483000026987 0.495847581827064 0.3707865168539326
0.3521013640001911 0.4978016609672691 0.4049829018075233
0.3522893610002029 0.4948705422569615 0.42159257449926724
0.3524770990002253 0.49193942354665365 0.44211040547142155
0.35266530000035345 0.4929164631167562 0.45676599902296044
0.35285270500025945 0.48900830483634583 0.4704445530043966
0.3530399250003029 0.486077186126038 0.4802149487054226
0.3532273660002829 0.48412310698583294 0.4831460674157304
0.3534355490000962 0.4978016609672691 0.4909623839765511
0.35362536100001307 0.4880312652662433 0.4811919882755251
0.3538222280003538 0.4831460674157304 0.48216902784562765
0.3540331510002943 0.48216902784562765 0.4880312652662433
0.35423805600021296 0.48412310698583294 0.49877870053737183
0.35445153399996343 0.4851001465559355 0.5144113336590133
0.35465140199994494 0.4782608695652173 0.5349291646311676
0.35490443500020774 0.4802149487054226 0.5437225207620908
0.3550937100003466 0.4831460674157304 0.5466536394723986
0.35528376299998854 0.4802149487054226 0.5574010747435272
0.35547537100001136 0.4802149487054226 0.5632633121641426
0.355663480000203 0.4831460674157304 0.5740107474352711
0.3558515330000773 0.4831460674157304 0.58866634098681
0.3560398820000046 0.4851001465559355 0.6023448949682462
0.35622669400027007 0.48900830483634583 0.5974596971177333
0.35641421000036644 0.48216902784562765 0.5945285784074255
0.3566035769999871 0.4782608695652173 0.576941866145579
0.35684585200033325 0.4782608695652173 0.5525158768930141
0.35703333100036616 0.4811919882755251 0.5349291646311676
0.3572206610001558 0.47728382999511476 0.5144113336590133
0.3574421580001399 0.47728382999511476 0.5007327796775769
0.3576293220003208 0.4802149487054226 0.48705422569614076
0.3578173380001317 0.48216902784562765 0.4753297508549097
0.3580043540000588 0.4753297508549097 0.4655593551538837
0.3581926100000601 0.4851001465559355 0.4528578407425501
0.3583831820001251 0.47923790913532005 0.45481191988275516
0.3585720860000947 0.4782608695652173 0.45481191988275516
0.3587584910001169 0.47728382999511476 0.46165119687347334
0.35894648800012874 0.4802149487054226 0.4636052760136786
0.35913420800034146 0.4802149487054226 0.467513434294089
0.3593213160002051 0.48216902784562765 0.4811919882755251
0.35950911000009 0.48216902784562765 0.47923790913532005
0.3596971070001018 0.4763067904250122 0.4831460674157304
0.359883826999976 0.47435271128480694 0.48900830483634583
0.3600711950002733 0.4753297508549097 0.49193942354665365
0.36025885900016874 0.47435271128480694 0.4929164631167562
0.3604488740002125 0.4704445530043966 0.4948705422569615
0.36063702000001285 0.4704445530043966 0.4978016609672691
0.3608247580000352 0.47239863214460187 0.49975574010747437
0.3610117370003536 0.4733756717147044 0.5007327796775769
0.36119823400031237 0.4763067904250122 0.495847581827064
0.3613873610001974 0.47728382999511476 0.495847581827064
0.3615762470003574 0.47728382999511476 0.48705422569614076
0.36177881799994793 0.47728382999511476 0.48705422569614076
0.36196809400007623 0.47728382999511476 0.4811919882755251
0.36215553500005626 0.47923790913532005 0.4948705422569615
0.36234227300019484 0.47728382999511476 0.495847581827064
0.36252878899995267 0.48412310698583294 0.5007327796775769
0.36271699000008084 0.47435271128480694 0.5036638983878847
0.3629315060002227 0.4753297508549097 0.5026868588177822
0.36312279900039357 0.47239863214460187 0.5007327796775769
0.3633099450003101 0.4753297508549097 0.4978016609672691
0.36349744200015266 0.4733756717147044 0.495847581827064
0.363685273000101 0.4782608695652173 0.49877870053737183
0.3638728630003243 0.4782608695652173 0.4909623839765511
0.36405958200020905 0.4802149487054226 0.4909623839765511
0.36425150500008385 0.4831460674157304 0.4938935026868587
0.3644410950000747 0.49193942354665365 0.4938935026868587
0.3646339810002246 0.49193942354665365 0.4909623839765511
0.3648265340002581 0.49877870053737183 0.48900830483634583
0.36501903099997435 0.4948705422569615 0.49193942354665365
0.3652186399999664 0.5007327796775769 0.49682462139716654
0.36548102500000823 0.49682462139716654 0.48412310698583294
0.3656808550003916 0.5007327796775769 0.47923790913532005
0.3658839449999505 0.4929164631167562 0.4655593551538837
0.3660819420001644 0.4978016609672691 0.46458231558378116
0.3662811250001141 0.49682462139716654 0.4636052760136786
0.36647880700002133 0.4938935026868587 0.45969711773326827
0.36667521200024566 0.495847581827064 0.4587200781631655
0.3671015019999686 0.4978016609672691 0.44211040547142155
0.36731327699999383 0.49682462139716654 0.42452369320957506
0.36751081100010197 0.5007327796775769 0.4079140205178309
0.3677191040001162 0.5075720566682951 0.40009770395701016
0.3679550450001443 0.5017098192476794 0.40205178309721545
0.36816035700030625 0.5046409379579873 0.41670737664875435
0.36836452100033057 0.5036638983878847 0.4284318514899854
0.3685617590003858 0.5026868588177822 0.44211040547142155
0.3687703110003895 0.5007327796775769 0.4557889594528579
0.3689714010001808 0.5036638983878847 0.4655593551538837
0.3691732680003952 0.49975574010747437 0.46946751343429405
0.3693874320001669 0.5017098192476794 0.4802149487054226
0.36962233600024774 0.5046409379579873 0.48998534440644836
0.3698371110003791 0.4978016609672691 0.48900830483634583
0.37005614500003503 0.49975574010747437 0.48900830483634583
0.3702901040001052 0.495847581827064 0.4831460674157304
0.3705103790002795 0.5007327796775769 0.4782608695652173
0.37074091300019063 0.4929164631167562 0.4948705422569615
0.3710176310000861 0.4909623839765511 0.5017098192476794
0.3713135900002271 0.4909623839765511 0.5173424523693209
0.37157810500002597 0.49193942354665365 0.5251587689301416
0.37185313800000586 0.4909623839765511 0.5290669272105519
0.3721408370001882 0.4948705422569615 0.5310210063507572
0.3723911670003872 0.49193942354665365 0.5300439667806547
0.37261662700029774 0.4909623839765511 0.5232046897899365
0.37284606799994435 0.48998534440644836 0.5173424523693209
0.3730473059999895 0.48900830483634583 0.5153883732291158
0.373261968999941 0.48900830483634583 0.5153883732291158
0.37351298400017185 0.486077186126038 0.5163654127992183
0.37373746299999766 0.486077186126038 0.522227650219834
0.3739540520000446 0.4851001465559355 0.5114802149487054
0.37418690100003005 0.48412310698583294 0.49877870053737183
0.3744149340000149 0.4909623839765511 0.4753297508549097
0.37463493099994594 0.4909623839765511 0.44992672203224227
0.3748596870000256 0.4851001465559355 0.4255007327796776
0.37509275800039177 0.48412310698583294 0.4186614557889594
0.3753274400000919 0.48216902784562765 0.4264777723497801
0.37559288100010235 0.4851001465559355 0.43722520762090866
0.3758110260000649 0.48900830483634583 0.45676599902296044
0.3760114120000253 0.4811919882755251 0.4606741573033708
0.3762025569999423 0.4831460674157304 0.4753297508549097
0.3763911470000494 0.4880312652662433 0.4831460674157304
0.37657944100010354 0.47923790913532005 0.49193942354665365
0.37676697500000955 0.47435271128480694 0.48412310698583294
0.3769545830000425 0.4782608695652173 0.48705422569614076
0.3771857470001123 0.47142159257449934 0.486077186126038
0.3774274659999719 0.46946751343429405 0.49193942354665365
0.37762259200007975 0.467513434294089 0.5017098192476794
0.3778112190002503 0.4753297508549097 0.5105031753786029
0.3779996430002939 0.467513434294089 0.5232046897899365
0.37818845500032694 0.4704445530043966 0.5319980459208598
0.3783763410001484 0.46165119687347334 0.5388373229115779
0.3785662830000547 0.46165119687347334 0.5417684416218858
0.37875500200016177 0.457743038593063 0.5476306790425012
0.3789439440001843 0.4557889594528579 0.5456765999022961
0.3791316260003441 0.4538348803126526 0.5290669272105519
0.37931967900021846 0.4509037616023448 0.5173424523693209
0.37950732500030426 0.45481191988275516 0.5085490962383976
0.37969519200032664 0.44992672203224227 0.5065950170981925
0.3798825230001057 0.4528578407425501 0.5046409379579873
0.38007035400005407 0.45188080117244755 0.5036638983878847
0.3802585360003832 0.45188080117244755 0.4948705422569615
0.3804675330002283 0.4509037616023448 0.4811919882755251
0.38065710499995475 0.45676599902296044 0.46946751343429405
0.38084538000020984 0.4587200781631655 0.45481191988275516
0.3810558029999811 0.4655593551538837 0.4479726428920372
0.38124405899998237 0.4684904738641915 0.4460185637518319
0.3814412970000376 0.4704445530043966 0.44211040547142155
0.3816292940000494 0.47239863214460187 0.44211040547142155
0.38181731000031505 0.47923790913532005 0.43722520762090866
0.3820051410002634 0.4811919882755251 0.43917928676111373
0.38219319400013774 0.4811919882755251 0.43722520762090866
0.3823807100002341 0.486077186126038 0.4323400097703958
0.38256967000006625 0.4782608695652173 0.4303859306301905
0.3827573339999617 0.4831460674157304 0.42940889106008795
0.38294509000024846 0.4811919882755251 0.4264777723497801
0.38313288400013334 0.4851001465559355 0.4235466536394723
0.3833202330001768 0.48412310698583294 0.42940889106008795
0.38350808200038955 0.4851001465559355 0.4401563263312165
0.383695839000211 0.4938935026868587 0.43917928676111373
0.38388294700007464 0.486077186126038 0.4479726428920372
0.38407037100023445 0.48998534440644836 0.45481191988275516
0.38425775700034137 0.48900830483634583 0.46165119687347334
0.3844457909999619 0.49877870053737183 0.4733756717147044
0.38463380700022753 0.4929164631167562 0.47435271128480694
0.384821693000049 0.49193942354665365 0.4851001465559355
0.3850099129999762 0.49193942354665365 0.48998534440644836
0.38519831800022075 0.4929164631167562 0.5036638983878847
0.3853893519999474 0.49193942354665365 0.5192965315095261
0.38557727500028705 0.4909623839765511 0.5329750854909623
0.3857644760000767 0.4938935026868587 0.5466536394723986
0.38595169600012014 0.4929164631167562 0.5603321934538348
0.38613863700038564 0.4938935026868587 0.5691255495847583
0.3863261900000907 0.49682462139716654 0.5740107474352711
0.3865137620000496 0.4929164631167562 0.5720566682950659
0.3867021480000403 0.49193942354665365 0.567171470444553
0.3868942750000315 0.4938935026868587 0.5583781143136297
0.3870865680000861 0.4929164631167562 0.5427454811919883
0.38728036200018323 0.4948705422569615 0.524181729360039
0.38748998900018705 0.495847581827064 0.5036638983878847
0.3876879120002741 0.5007327796775769 0.4753297508549097
0.38790613100036353 0.49682462139716654 0.44894968246213973
0.38809455399996295 0.49877870053737183 0.42452369320957506
0.38832366199994794 0.5036638983878847 0.4186614557889594
0.3885140110000975 0.49877870053737183 0.4157303370786516
0.3887024900000142 0.5007327796775769 0.41963849535906195
0.388891617000354 0.4978016609672691 0.4284318514899854
0.3890797990002284 0.49682462139716654 0.4401563263312165
0.3892921850001585 0.4929164631167562 0.46165119687347334
0.3894917750003515 0.4978016609672691 0.4753297508549097
0.38967916100000366 0.495847581827064 0.4948705422569615
0.3898692320003647 0.49682462139716654 0.5036638983878847
0.3900567850000698 0.4938935026868587 0.5114802149487054
0.3902443750002931 0.4929164631167562 0.5075720566682951
0.3904318170002625 0.4948705422569615 0.5017098192476794
0.39061923999997816 0.49682462139716654 0.49975574010747437
0.3908062750001591 0.4948705422569615 0.4978016609672691
0.39099353100027656 0.4948705422569615 0.48998534440644836
0.39118093600018256 0.4929164631167562 0.4909623839765511
0.391368600000078 0.4938935026868587 0.4811919882755251
0.39155581900013203 0.5065950170981925 0.4704445530043966
0.3917429279999851 0.5026868588177822 0.467513434294089
0.3919311290001133 0.5026868588177822 0.45969711773326827
0.3921191260001251 0.5017098192476794 0.4557889594528579
0.3923072350003167 0.5075720566682951 0.4557889594528579
0.39249517600001127 0.5036638983878847 0.45188080117244755
0.3926823400001922 0.49975574010747437 0.4538348803126526
0.3928752820002046 0.5036638983878847 0.4557889594528579
0.39306372400005785 0.5017098192476794 0.45188080117244755
0.3932512950000273 0.5026868588177822 0.4606741573033708
0.39344566299996586 0.5026868588177822 0.4704445530043966
0.3936331790000622 0.4978016609672691 0.48900830483634583
0.39381980600001043 0.49877870053737183 0.5114802149487054
0.39400721000038175 0.49877870053737183 0.5329750854909623
0.39419400400038285 0.4978016609672691 0.5515388373229115
0.39438085300025705 0.49193942354665365 0.5749877870053737
0.3945712019999519 0.48705422569614076 0.5906204201270151
0.3947598290001224 0.48216902784562765 0.5984367366878358
0.39494699300030334 0.48216902784562765 0.5984367366878358
0.395135565000146 0.4782608695652173 0.5964826575476307
0.39532317300017894 0.4811919882755251 0.5925744992672204
0.39551024499996856 0.4782608695652173 0.578895945285784
0.3956983900002342 0.4802149487054226 0.5710796287249633
0.39588568399994983 0.47728382999511476 0.5593551538837322
0.3960726620002788 0.47923790913532005 0.5388373229115779
0.3962597710001319 0.4763067904250122 0.5300439667806547
0.3964467499999955 0.47142159257449934 0.512457254518808
0.39663728400000764 0.47142159257449934 0.5007327796775769
0.3968238000002202 0.47239863214460187 0.48900830483634583
0.3970119450000311 0.4753297508549097 0.47923790913532005
0.39721271999997043 0.47435271128480694 0.4704445530043966
0.3974187730000267 0.47435271128480694 0.4655593551538837
0.3976067520002289 0.47239863214460187 0.4665363947239862
0.39779402700014543 0.47435271128480694 0.46458231558378116
0.39798048700004074 0.47728382999511476 0.46946751343429405
0.39816781800027456 0.47142159257449934 0.46946751343429405
0.39835529600031805 0.4733756717147044 0.4753297508549097
0.3985426270000971 0.47435271128480694 0.47435271128480694
0.3987296430000242 0.47239863214460187 0.4811919882755251
0.39891664000015226 0.4733756717147044 0.4851001465559355
0.3991105630002494 0.4733756717147044 0.4909623839765511
0.3992981900000814 0.47728382999511476 0.49193942354665365
0.3994855210003152 0.4733756717147044 0.486077186126038
0.3996724810003798 0.47142159257449934 0.48705422569614076
0.3998638309999478 0.4665363947239862 0.4811919882755251
0.40007719799996266 0.467513434294089 0.48216902784562765
0.40027852799994434 0.47239863214460187 0.49193942354665365
0.4004837850002332 0.46946751343429405 0.5095261358085001
0.4006726150000759 0.4733756717147044 0.5105031753786029
0.40086007600029916 0.47239863214460187 0.5163654127992183
0.4010476280000148 0.4753297508549097 0.524181729360039
0.40123525500030155 0.4753297508549097 0.5261358085002443
0.4014587520000532 0.47435271128480694 0.5300439667806547
0.40164652700013903 0.47728382999511476 0.5310210063507572
0.40183332100014013 0.4763067904250122 0.5310210063507572
0.4020222070003001 0.4753297508549097 0.5261358085002443
0.4022173710000061 0.4763067904250122 0.5085490962383976
0.40241564600000856 0.47728382999511476 0.48412310698583294
0.40260823600010553 0.4753297508549097 0.4665363947239862
0.40280569600008675 0.47923790913532005 0.46165119687347334
0.40299847100004627 0.4753297508549097 0.46262823644357587
0.40319872700001724 0.4802149487054226 0.4763067904250122
0.40340041000035853 0.4782608695652173 0.48412310698583294
0.4036111290001827 0.4802149487054226 0.49877870053737183
0.4038156070000696 0.4851001465559355 0.4909623839765511
0.40405367800030945 0.4851001465559355 0.4831460674157304
0.4042598790001648 0.486077186126038 0.4782608695652173
0.40447839400030716 0.4880312652662433 0.457743038593063
0.40470133600001645 0.4929164631167562 0.4382022471910112
0.4049393880000025 0.486077186126038 0.403028822667318
0.40517699500014714 0.48412310698583294 0.3805569125549584
0.40540723300000536 0.48412310698583294 0.3756717147044455
0.40566841400004705 0.486077186126038 0.37957987298485585
0.40588118899995607 0.48998534440644836 0.3854421104054715
0.4060802789999798 0.4909623839765511 0.39716658524670256
0.40627992400004587 0.4929164631167562 0.41475329750854906
0.40647510700000566 0.49193942354665365 0.4284318514899854
0.40667453000014575 0.495847581827064 0.44211040547142155
0.4068763600002967 0.495847581827064 0.4528578407425501
0.4070756910000455 0.49682462139716654 0.46262823644357587
0.40726959500034354 0.495847581827064 0.46946751343429405
0.4074623149999752 0.5026868588177822 0.4831460674157304
0.4076563300000089 0.49682462139716654 0.4782608695652173
0.407852142000138 0.49682462139716654 0.4831460674157304
0.4080484539999816 0.4948705422569615 0.48900830483634583
0.408252100000027 0.49975574010747437 0.4938935026868587
0.4084468010000819 0.49682462139716654 0.4938935026868587
