0 0.4880312652662433 0.467513434294089
0.0008461460001853993 0.48705422569614076 0.4733756717147044
0.0010647340000105032 0.4851001465559355 0.47728382999511476
0.0012656730000344396 0.48412310698583294 0.4831460674157304
0.0014942789998713124 0.4831460674157304 0.48216902784562765
0.0017034779998539307 0.4851001465559355 0.4880312652662433
0.0018963810002787795 0.47923790913532005 0.48900830483634583
0.0020853390001320804 0.4811919882755251 0.4948705422569615
0.0022752969998691697 0.47728382999511476 0.4948705422569615
0.002464904000134993 0.4782608695652173 0.49877870053737183
0.002656048000062583 0.4802149487054226 0.5017098192476794
0.002845340000021679 0.4811919882755251 0.5036638983878847
0.0030343720000018948 0.4811919882755251 0.5036638983878847
0.003223571000035008 0.4831460674157304 0.5046409379579873
0.003412252000089211 0.4831460674157304 0.5095261358085001
0.0035995990001538303 0.48412310698583294 0.5046409379579873
0.0037874469999223948 0.49193942354665365 0.49975574010747437
0.003977702000156569 0.4929164631167562 0.512457254518808
0.004165159999956813 0.495847581827064 0.5065950170981925
0.004353489000095578 0.49193942354665365 0.512457254518808
0.004540836000160198 0.4978016609672691 0.5075720566682951
0.004727572999854601 0.49193942354665365 0.512457254518808
0.004914660999929765 0.4929164631167562 0.5095261358085001
0.005101231000026019 0.4929164631167562 0.5114802149487054
0.005291930000112188 0.495847581827064 0.5173424523693209
0.005499740000232123 0.486077186126038 0.5114802149487054
0.005693457000234048 0.48998534440644836 0.5134342940889105
0.005881379000129527 0.4938935026868587 0.5144113336590133
0.006068540999876859 0.48900830483634583 0.522227650219834
0.006255518000216398 0.48998534440644836 0.5153883732291158
0.0064442910002071585 0.48900830483634583 0.5183194919394236
0.0066322500001660956 0.48900830483634583 0.5114802149487054
0.006820652999977028 0.4929164631167562 0.5095261358085001
0.007011666999915178 0.4880312652662433 0.5085490962383976
0.007199292000223068 0.4948705422569615 0.5075720566682951
0.007388175999949453 0.48705422569614076 0.5017098192476794
0.00757522699996116 0.4909623839765511 0.5017098192476794
0.007762666999951762 0.48705422569614076 0.495847581827064
0.007949700000153825 0.48412310698583294 0.4948705422569615
0.008135992000006809 0.4851001465559355 0.4938935026868587
0.00833069100008288 0.4880312652662433 0.4929164631167562
0.008524520000264602 0.4831460674157304 0.48998534440644836
0.008713459999853512 0.48705422569614076 0.4929164631167562
0.008900769999854674 0.4929164631167562 0.4929164631167562
0.00908763600000384 0.4851001465559355 0.495847581827064
0.009273854000184656 0.48900830483634583 0.5007327796775769
0.009462942000027397 0.4909623839765511 0.49975574010747437
0.009650641000007454 0.48900830483634583 0.5017098192476794
0.009842933000072662 0.4948705422569615 0.5085490962383976
0.010029762000158371 0.4929164631167562 0.5007327796775769
0.010217517000000953 0.4948705422569615 0.49975574010747437
0.010406531000171526 0.4948705422569615 0.5017098192476794
0.01059256300004563 0.5017098192476794 0.48705422569614076
0.010780281000279501 0.49975574010747437 0.4851001465559355
0.010967036000238295 0.5026868588177822 0.48216902784562765
0.011154235000049084 0.49877870053737183 0.47728382999511476
0.01134108299993386 0.5036638983878847 0.4763067904250122
0.011527912000019569 0.5056179775280898 0.4763067904250122
0.011715074000221648 0.5036638983878847 0.4763067904250122
0.011902088000169897 0.5017098192476794 0.4782608695652173
0.01208915799998067 0.49975574010747437 0.4782608695652173
0.012275635000150942 0.5007327796775769 0.4802149487054226
0.012462260000120295 0.49975574010747437 0.48216902784562765
0.012648866000290582 0.5075720566682951 0.4880312652662433
0.012839103000260366 0.5007327796775769 0.4851001465559355
0.01303220899990265 0.49877870053737183 0.48412310698583294
0.013221278999935748 0.5065950170981925 0.4929164631167562
0.013416608000170527 0.49877870053737183 0.4811919882755251
0.013602343999991717 0.49877870053737183 0.48705422569614076
0.013789506000193796 0.495847581827064 0.49193942354665365
0.01397657600000457 0.4978016609672691 0.4851001465559355
0.014163718999952835 0.49682462139716654 0.48705422569614076
0.014351178000197251 0.4978016609672691 0.4909623839765511
0.014537840000230062 0.495847581827064 0.48705422569614076
0.014724928000305226 0.4909623839765511 0.4851001465559355
0.014911257000221667 0.48900830483634583 0.48412310698583294
0.015097716000127548 0.4851001465559355 0.486077186126038
0.015285767000023043 0.4880312652662433 0.4753297508549097
0.01547268800004531 0.48216902784562765 0.47435271128480694
0.01565849899998284 0.4782608695652173 0.467513434294089
0.015844717000163655 0.47923790913532005 0.46946751343429405
0.01603130500006955 0.4782608695652173 0.467513434294089
0.016217299999880197 0.4851001465559355 0.46946751343429405
0.016403277999870625 0.4831460674157304 0.4704445530043966
0.01658892100022058 0.4831460674157304 0.47239863214460187
0.016775490999862086 0.48705422569614076 0.4831460674157304
0.016962005000095814 0.48705422569614076 0.4753297508549097
0.017148149000149715 0.4880312652662433 0.4851001465559355
0.017356680999910168 0.49682462139716654 0.4880312652662433
0.01754625000012311 0.48900830483634583 0.48998534440644836
0.01773382000010315 0.48900830483634583 0.49682462139716654
0.017923667000104615 0.4909623839765511 0.5007327796775769
0.018111940999915532 0.4938935026868587 0.49877870053737183
0.018300733000160108 0.49193942354665365 0.49877870053737183
0.018487839000044914 0.48998534440644836 0.4938935026868587
0.018675131000236433 0.4909623839765511 0.495847581827064
0.01886203399999431 0.49193942354665365 0.495847581827064
0.019050326000069617 0.48705422569614076 0.48900830483634583
0.01923776600006022 0.48998534440644836 0.4938935026868587
0.0194247610002094 0.48998534440644836 0.4880312652662433
0.0196123680002529 0.49193942354665365 0.486077186126038
0.019798511999852053 0.49193942354665365 0.48412310698583294
0.019985970000107045 0.4880312652662433 0.48705422569614076
0.02018118800015145 0.4909623839765511 0.48216902784562765
0.020368479999888223 0.49193942354665365 0.48900830483634583
0.020555753000280674 0.49193942354665365 0.4831460674157304
0.020742618999975093 0.49193942354665365 0.4782608695652173
0.020930300000145508 0.48998534440644836 0.4763067904250122
0.02111898100019971 0.4938935026868587 0.48705422569614076
0.021315697999853 0.4948705422569615 0.4831460674157304
0.02150404600024558 0.49682462139716654 0.48900830483634583
0.021691170999929454 0.4948705422569615 0.49193942354665365
0.02187859200012099 0.48900830483634583 0.4851001465559355
0.022066921000259754 0.4880312652662433 0.486077186126038
0.02225460199997542 0.4880312652662433 0.4880312652662433
0.022442616000262205 0.48216902784562765 0.48412310698583294
0.022634463000031246 0.486077186126038 0.4909623839765511
0.022823550999873987 0.4831460674157304 0.4948705422569615
0.02301039900021351 0.4851001465559355 0.4978016609672691
0.023198228000183008 0.4851001465559355 0.5017098192476794
0.02338587100030054 0.48705422569614076 0.4948705422569615
0.023572941000111314 0.48412310698583294 0.49975574010747437
0.023759788000006665 0.4802149487054226 0.5017098192476794
0.023946894999880897 0.4811919882755251 0.5017098192476794
0.024133742000230995 0.4831460674157304 0.5026868588177822
0.024320774999978312 0.48216902784562765 0.5036638983878847
0.02450778899992656 0.48705422569614076 0.4978016609672691
0.024694729000202642 0.4811919882755251 0.5036638983878847
0.024887502000183304 0.47923790913532005 0.5085490962383976
0.025075738999930763 0.48216902784562765 0.5017098192476794
0.02526377100002719 0.4763067904250122 0.5026868588177822
0.02545298899985937 0.47728382999511476 0.49975574010747437
0.02564111399988178 0.4802149487054226 0.5036638983878847
0.02583777600011672 0.47923790913532005 0.5007327796775769
0.02602556800002276 0.48216902784562765 0.5065950170981925
0.026215470999886747 0.48900830483634583 0.5065950170981925
0.026406244000099832 0.4851001465559355 0.5114802149487054
0.026595092000206932 0.48900830483634583 0.5153883732291158
0.02678216100002828 0.4851001465559355 0.5144113336590133
0.026969286000166903 0.48216902784562765 0.5183194919394236
0.027156225999988237 0.486077186126038 0.5163654127992183
0.0273434260002432 0.4880312652662433 0.5153883732291158
0.027531068999905983 0.48998534440644836 0.5163654127992183
0.027717917000245507 0.4929164631167562 0.5114802149487054
0.027905098000246653 0.4948705422569615 0.512457254518808
0.028092481999919983 0.48900830483634583 0.5144113336590133
0.028279921999910584 0.48705422569614076 0.5144113336590133
0.02846771400027137 0.48705422569614076 0.5183194919394236
0.028654691000156163 0.48900830483634583 0.5173424523693209
0.028843075000168028 0.4929164631167562 0.5183194919394236
0.029030126000179735 0.48998534440644836 0.5183194919394236
0.029216991999874153 0.4929164631167562 0.5183194919394236
0.029426469000100042 0.4929164631167562 0.5095261358085001
0.029617890000281477 0.49193942354665365 0.5095261358085001
0.02980884899989178 0.48998534440644836 0.5144113336590133
0.02999901100019997 0.5036638983878847 0.5056179775280898
0.030189636000159226 0.48998534440644836 0.5046409379579873
0.030379539000023215 0.4929164631167562 0.4938935026868587
0.03056970099987666 0.48998534440644836 0.49193942354665365
0.03076004800004739 0.4909623839765511 0.49193942354665365
0.030949840000175755 0.49193942354665365 0.4880312652662433
0.031140151000272454 0.4948705422569615 0.48705422569614076
0.03133010900000954 0.4948705422569615 0.48216902784562765
0.03152049300024373 0.49682462139716654 0.47923790913532005
0.03171052600009716 0.495847581827064 0.47728382999511476
0.03190074400026788 0.4938935026868587 0.4763067904250122
0.032090869000057864 0.4948705422569615 0.47728382999511476
0.032286846000260994 0.4978016609672691 0.4753297508549097
0.032477451999966434 0.4948705422569615 0.46458231558378116
0.03266828100004204 0.4929164631167562 0.46262823644357587
0.03285849900021276 0.49682462139716654 0.45676599902296044
0.033048494000013307 0.4978016609672691 0.45676599902296044
0.03323930400028985 0.5026868588177822 0.4557889594528579
0.03343109600018579 0.5036638983878847 0.4636052760136786
0.033622220999859564 0.5075720566682951 0.47142159257449934
0.033817791000274156 0.5056179775280898 0.4753297508549097
0.03400882300002195 0.5105031753786029 0.48412310698583294
0.03419902199993885 0.5036638983878847 0.4948705422569615
0.03438957400021536 0.5046409379579873 0.5065950170981925
0.03458221700020658 0.5007327796775769 0.5075720566682951
0.03477247199998601 0.5026868588177822 0.5105031753786029
0.03496328200026255 0.4948705422569615 0.5153883732291158
0.03515433300026416 0.4929164631167562 0.512457254518808
0.03534469900023396 0.4948705422569615 0.5192965315095261
0.035535823999907734 0.4938935026868587 0.5192965315095261
0.03572682000003624 0.48998534440644836 0.5192965315095261
0.03591692600002716 0.48998534440644836 0.522227650219834
0.036106903000018065 0.49193942354665365 0.5134342940889105
0.0362977879999562 0.4948705422569615 0.5075720566682951
0.036487931000010576 0.49682462139716654 0.5017098192476794
0.036678630000096746 0.4909623839765511 0.495847581827064
0.03686979300027815 0.4948705422569615 0.48412310698583294
0.03705971399995178 0.49193942354665365 0.4811919882755251
0.037249709000207076 0.4978016609672691 0.47239863214460187
0.03744092700026158 0.495847581827064 0.46458231558378116
0.037634422999872186 0.49877870053737183 0.4606741573033708
0.03782719599985285 0.49877870053737183 0.4509037616023448
0.03801800600012939 0.49682462139716654 0.4460185637518319
0.03820868699995117 0.49682462139716654 0.441133365901319
0.03839894100019592 0.49975574010747437 0.4352711284807034
0.03858953000008114 0.49682462139716654 0.43722520762090866
0.03878046899990295 0.495847581827064 0.4382022471910112
0.03897105800024292 0.49682462139716654 0.4430874450415241
0.03916212700005417 0.4978016609672691 0.44992672203224227
0.03935251100028836 0.5046409379579873 0.45969711773326827
0.03954185900010998 0.49682462139716654 0.46458231558378116
0.03973242800020671 0.49682462139716654 0.4665363947239862
0.03992281299997558 0.49975574010747437 0.47728382999511476
0.04011290100015685 0.49877870053737183 0.4880312652662433
0.04030271100009486 0.4978016609672691 0.4880312652662433
0.040492466000159766 0.49877870053737183 0.4948705422569615
0.0406823319999603 0.4929164631167562 0.48900830483634583
0.04087277200005701 0.49877870053737183 0.49682462139716654
0.04106291500011139 0.48998534440644836 0.486077186126038
0.04125389199998608 0.486077186126038 0.48900830483634583
0.04144531400015694 0.48412310698583294 0.4909623839765511
0.04163540199988347 0.48412310698583294 0.49975574010747437
0.04182541599993783 0.4831460674157304 0.5046409379579873
0.04202391099988745 0.4831460674157304 0.5095261358085001
0.0422148699999525 0.4802149487054226 0.5114802149487054
0.04240518000005977 0.4811919882755251 0.5085490962383976
0.042595045999860304 0.4782608695652173 0.5153883732291158
0.04278524500023195 0.4763067904250122 0.5105031753786029
0.0429749630002334 0.4782608695652173 0.5105031753786029
0.04316536600026666 0.47728382999511476 0.5075720566682951
0.04335573100024703 0.47923790913532005 0.5075720566682951
0.04354580100016392 0.47923790913532005 0.5134342940889105
0.043735908000144263 0.4782608695652173 0.5153883732291158
0.04392549600015627 0.4811919882755251 0.524181729360039
0.044115010000041366 0.4782608695652173 0.5173424523693209
0.04430502400009573 0.4851001465559355 0.5173424523693209
0.04450598199991873 0.4831460674157304 0.5163654127992183
0.0446969029999309 0.4831460674157304 0.5075720566682951
0.04488760300000649 0.486077186126038 0.5095261358085001
0.045078783000008116 0.486077186126038 0.5056179775280898
0.04526859299994612 0.4831460674157304 0.5007327796775769
0.04545894100010628 0.48412310698583294 0.5007327796775769
0.0456489920002241 0.4831460674157304 0.4948705422569615
0.04583900600027846 0.48412310698583294 0.49193942354665365
0.04602863099989918 0.4880312652662433 0.48705422569614076
0.046219367000048805 0.486077186126038 0.48216902784562765
0.046409863000008045 0.4880312652662433 0.4782608695652173
0.046599747000072966 0.4909623839765511 0.4782608695652173
0.046790113000042766 0.48900830483634583 0.4763067904250122
0.04697999700010769 0.48900830483634583 0.47923790913532005
0.047170085000288964 0.48900830483634583 0.4802149487054226
0.04736065499992037 0.49193942354665365 0.4811919882755251
0.04755057600004875 0.4938935026868587 0.4811919882755251
0.04774085000008199 0.49193942354665365 0.4763067904250122
0.047935566999967705 0.495847581827064 0.47923790913532005
0.04812582200020188 0.49682462139716654 0.4811919882755251
0.04831615100010822 0.48900830483634583 0.47923790913532005
0.04850672000020495 0.4909623839765511 0.47728382999511476
0.04869704900011129 0.48900830483634583 0.48412310698583294
0.048887026000102196 0.49193942354665365 0.49682462139716654
0.049081670000305166 0.49682462139716654 0.4909623839765511
0.04927246199986257 0.4909623839765511 0.48998534440644836
0.04946362400005455 0.4909623839765511 0.4909623839765511
0.04965304500001366 0.4929164631167562 0.49193942354665365
0.04984363299990946 0.4929164631167562 0.48705422569614076
0.05003359200009072 0.495847581827064 0.4831460674157304
0.05023495700015701 0.49682462139716654 0.4831460674157304
0.05042547099992589 0.49682462139716654 0.4831460674157304
0.05061517000012827 0.49682462139716654 0.48216902784562765
0.05080522200023552 0.5007327796775769 0.48998534440644836
0.05099529100016298 0.4938935026868587 0.4929164631167562
0.0511853420002808 0.4948705422569615 0.495847581827064
0.05137544900026114 0.495847581827064 0.5065950170981925
0.051566166000156954 0.4948705422569615 0.5065950170981925
0.05175655099992582 0.495847581827064 0.512457254518808
0.051946991000022535 0.4948705422569615 0.5192965315095261
0.05213724600025671 0.49682462139716654 0.5202735710796287
0.05232655600002545 0.4938935026868587 0.5271128480703469
0.052516959000058705 0.5026868588177822 0.5251587689301416
0.052707213000303454 0.49975574010747437 0.524181729360039
0.052897709000262694 0.495847581827064 0.5212506106497312
0.05308761200012668 0.495847581827064 0.5183194919394236
0.053277681000054145 0.4929164631167562 0.512457254518808
0.05346930699988661 0.4929164631167562 0.5105031753786029
0.053659302000141906 0.49682462139716654 0.5114802149487054
0.05384863100016446 0.4978016609672691 0.5085490962383976
0.054038386000229366 0.4978016609672691 0.5036638983878847
0.054228807000072266 0.4978016609672691 0.5017098192476794
0.054419227999915165 0.495847581827064 0.5026868588177822
0.05460961300013878 0.495847581827064 0.49975574010747437
0.05479946000014024 0.4948705422569615 0.49877870053737183
0.0549896410002475 0.4929164631167562 0.4929164631167562
0.055179507000048034 0.4978016609672691 0.49877870053737183
0.055370353999933286 0.4929164631167562 0.4938935026868587
0.055559887000072194 0.49975574010747437 0.48900830483634583
0.055750955999883445 0.4929164631167562 0.4880312652662433
0.055940470000223286 0.4938935026868587 0.48705422569614076
0.05612989200017182 0.4948705422569615 0.48412310698583294
0.056319146000078035 0.4938935026868587 0.4851001465559355
0.05650858600029096 0.4938935026868587 0.4851001465559355
0.05670587800022986 0.4938935026868587 0.486077186126038
0.05689741000014692 0.4978016609672691 0.4880312652662433
0.05708757299998979 0.49682462139716654 0.48705422569614076
0.05727810500002306 0.4929164631167562 0.486077186126038
0.05746910100015157 0.49975574010747437 0.486077186126038
0.05765915200026939 0.49877870053737183 0.4880312652662433
0.057849277000059374 0.49877870053737183 0.4851001465559355
0.05803938300005029 0.49682462139716654 0.47728382999511476
0.05823536000025342 0.5026868588177822 0.47142159257449934
0.05842624500019156 0.4948705422569615 0.46165119687347334
0.058616148000055546 0.49682462139716654 0.4557889594528579
0.0588067730000148 0.4948705422569615 0.457743038593063
0.05899684199994226 0.4938935026868587 0.4479726428920372
0.05918668999993315 0.4938935026868587 0.44992672203224227
0.05937737000022025 0.49682462139716654 0.457743038593063
0.05983404500011602 0.4929164631167562 0.45969711773326827
0.06002765099992757 0.4948705422569615 0.4684904738641915
0.06021860999999262 0.4929164631167562 0.46946751343429405
0.06040919799988842 0.4938935026868587 0.47435271128480694
0.0605991190000168 0.4929164631167562 0.4782608695652173
0.06078915199987023 0.49193942354665365 0.4802149487054226
0.06098031400006221 0.4909623839765511 0.4763067904250122
0.061170124000000214 0.48900830483634583 0.4753297508549097
0.06136260099992796 0.48900830483634583 0.47435271128480694
0.061552763000236155 0.49193942354665365 0.47728382999511476
0.06174342500025887 0.49682462139716654 0.47435271128480694
0.06193418000020756 0.4978016609672691 0.4763067904250122
0.06212410099988119 0.495847581827064 0.47435271128480694
0.06231815199998891 0.495847581827064 0.47923790913532005
0.06250872200007507 0.4948705422569615 0.47923790913532005
0.06269894000024578 0.4948705422569615 0.4811919882755251
0.06288902799997231 0.495847581827064 0.4851001465559355
0.0630799680002383 0.4909623839765511 0.4802149487054226
0.06327342600025077 0.49877870053737183 0.4851001465559355
0.06346432899999854 0.49682462139716654 0.4831460674157304
0.0636551210000107 0.4978016609672691 0.4880312652662433
0.06384524600025543 0.4909623839765511 0.49682462139716654
0.06403590800027814 0.49877870053737183 0.5007327796775769
0.06422621799993067 0.48998534440644836 0.5095261358085001
0.06441643600010138 0.49193942354665365 0.5134342940889105
0.06460594999998648 0.48900830483634583 0.5212506106497312
0.06479603800016775 0.486077186126038 0.5271128480703469
0.0649852930000634 0.4880312652662433 0.533952125061065
0.06517658500024481 0.4929164631167562 0.5300439667806547
0.06536757999992915 0.4909623839765511 0.5349291646311676
0.06555839000020569 0.4851001465559355 0.5329750854909623
0.06574905300021783 0.4880312652662433 0.5300439667806547
0.065938714999902 0.47923790913532005 0.5232046897899365
0.06612945100005163 0.4753297508549097 0.5163654127992183
0.06631928000024345 0.47728382999511476 0.5183194919394236
0.06652147900013006 0.47923790913532005 0.512457254518808
0.06671197400009987 0.4763067904250122 0.5075720566682951
0.06690167300030225 0.4782608695652173 0.5085490962383976
0.06709222400013459 0.48216902784562765 0.5085490962383976
0.06728262700016785 0.48216902784562765 0.5085490962383976
0.06747236399996837 0.4851001465559355 0.5114802149487054
0.06766258100014966 0.486077186126038 0.5046409379579873
0.067852910000056 0.4851001465559355 0.5046409379579873
0.06804348000014215 0.4851001465559355 0.5065950170981925
0.06823406800003795 0.48412310698583294 0.5007327796775769
0.06842456300000777 0.4811919882755251 0.5007327796775769
0.06861422500014669 0.48412310698583294 0.4948705422569615
0.06880385100021158 0.4831460674157304 0.4938935026868587
0.06899884599988582 0.4811919882755251 0.4909623839765511
0.06918904500025747 0.48216902784562765 0.486077186126038
0.06939483699989069 0.48412310698583294 0.48900830483634583
0.06958551700017779 0.48412310698583294 0.486077186126038
0.06977553100023215 0.4880312652662433 0.4851001465559355
0.06996580500026539 0.4880312652662433 0.48705422569614076
0.07015537400002358 0.48900830483634583 0.48412310698583294
0.07034535100001449 0.495847581827064 0.4880312652662433
0.07053514300014285 0.49877870053737183 0.4831460674157304
0.07072456400010196 0.48998534440644836 0.4851001465559355
0.0709139860000505 0.495847581827064 0.4851001465559355
0.07110320299989326 0.49682462139716654 0.486077186126038
0.07129295799995816 0.49975574010747437 0.4909623839765511
0.07148302799987505 0.49877870053737183 0.48900830483634583
0.07167309700025726 0.5007327796775769 0.48900830483634583
0.07186329700016358 0.5036638983878847 0.495847581827064
0.07205332900002759 0.4978016609672691 0.4929164631167562
0.07224251000025106 0.5007327796775769 0.4938935026868587
0.0724324500001785 0.4948705422569615 0.49975574010747437
0.07262207500025397 0.49193942354665365 0.4948705422569615
0.07281212599991704 0.48900830483634583 0.48998534440644836
0.0730014549999396 0.48998534440644836 0.4938935026868587
0.0731918209999094 0.4909623839765511 0.4851001465559355
0.07339203800029281 0.4909623839765511 0.4851001465559355
0.07358290399997713 0.49193942354665365 0.4831460674157304
0.07377282500010551 0.4929164631167562 0.4802149487054226
0.07396295099988492 0.49877870053737183 0.4753297508549097
0.07415248300003441 0.49682462139716654 0.47435271128480694
0.07434275600007823 0.4978016609672691 0.4782608695652173
0.07453295599998455 0.4978016609672691 0.47728382999511476
0.07472909900025115 0.4978016609672691 0.4811919882755251
0.07491931699996712 0.4938935026868587 0.4802149487054226
0.07510922000028586 0.4929164631167562 0.4782608695652173
0.07529866000004404 0.48998534440644836 0.4704445530043966
0.0754882850001195 0.495847581827064 0.46946751343429405
0.07567770600007862 0.4909623839765511 0.46262823644357587
0.07586794200005897 0.4978016609672691 0.46458231558378116
0.07605786400017678 0.4938935026868587 0.46165119687347334
0.07624798899996676 0.4929164631167562 0.4606741573033708
0.07643779899990477 0.4938935026868587 0.4665363947239862
0.07662781299995913 0.48998534440644836 0.4704445530043966
0.07681749399989712 0.4929164631167562 0.47923790913532005
0.0770071380002264 0.49193942354665365 0.486077186126038
0.07719731799988949 0.49193942354665365 0.4909623839765511
0.07739836900009323 0.4938935026868587 0.4978016609672691
0.07758897600024284 0.4909623839765511 0.49975574010747437
0.07777876799991645 0.4909623839765511 0.5026868588177822
0.07796852199999194 0.4938935026868587 0.5095261358085001
0.07815801800006739 0.49193942354665365 0.5065950170981925
0.07834808699999485 0.4909623839765511 0.5007327796775769
0.07853798999985884 0.48900830483634583 0.5017098192476794
0.07872768900006122 0.4948705422569615 0.4978016609672691
0.0789165179999145 0.4938935026868587 0.4978016609672691
0.07910612500018033 0.495847581827064 0.49877870053737183
0.07929588000024523 0.4948705422569615 0.49682462139716654
0.07948565300011978 0.495847581827064 0.5017098192476794
0.07967518600025869 0.4948705422569615 0.49975574010747437
0.07986536599992178 0.4948705422569615 0.49877870053737183
0.08005469499994433 0.4938935026868587 0.5036638983878847
0.0802439310000409 0.4948705422569615 0.4938935026868587
0.08043327899986252 0.48998534440644836 0.49193942354665365
0.08062283000026582 0.4909623839765511 0.48900830483634583
0.0808128809999289 0.486077186126038 0.486077186126038
0.08100256099987746 0.48998534440644836 0.4851001465559355
0.0811975380001968 0.48705422569614076 0.4831460674157304
0.0813988300001256 0.4831460674157304 0.4831460674157304
0.08158978800020122 0.4831460674157304 0.4831460674157304
0.08177911700022378 0.48412310698583294 0.48998534440644836
0.08196885300003487 0.48216902784562765 0.4851001465559355
0.08215834900011032 0.486077186126038 0.495847581827064
0.08234786299999541 0.48900830483634583 0.5046409379579873
0.08253728399995452 0.4909623839765511 0.5017098192476794
0.08272648399997706 0.48705422569614076 0.5105031753786029
0.08292410900003233 0.4851001465559355 0.5144113336590133
0.08311406700022417 0.48216902784562765 0.5202735710796287
0.08330441399994015 0.4802149487054226 0.5095261358085001
0.08349420600006852 0.4851001465559355 0.5105031753786029
0.0836839050002709 0.4831460674157304 0.49682462139716654
0.08387380800013489 0.47923790913532005 0.4948705422569615
0.08406330400021034 0.47728382999511476 0.4929164631167562
0.08425268800010599 0.4802149487054226 0.4948705422569615
0.08444209100025546 0.4753297508549097 0.4938935026868587
0.08463186400013001 0.48412310698583294 0.5026868588177822
0.08482156399986707 0.48705422569614076 0.49975574010747437
0.08501194800010126 0.4811919882755251 0.49877870053737183
0.08520529499992335 0.4811919882755251 0.5017098192476794
0.08542762300021423 0.4851001465559355 0.5065950170981925
0.08563395200008017 0.48216902784562765 0.5085490962383976
0.08583946499993544 0.4851001465559355 0.5095261358085001
0.08604925700001331 0.486077186126038 0.5056179775280898
0.08624845600024855 0.4909623839765511 0.4938935026868587
0.08644341399985933 0.4880312652662433 0.48900830483634583
0.0866425019999042 0.4831460674157304 0.48900830483634583
0.08684053400020275 0.4880312652662433 0.4851001465559355
0.08703477000017301 0.48998534440644836 0.4831460674157304
0.08722615500028041 0.48998534440644836 0.486077186126038
0.08742042799985938 0.49193942354665365 0.4851001465559355
0.08761770099999922 0.4909623839765511 0.495847581827064
0.0878179370001817 0.4909623839765511 0.5017098192476794
0.08802509899987854 0.49193942354665365 0.49682462139716654
0.08822811200025171 0.48900830483634583 0.5085490962383976
0.08843060800018065 0.4929164631167562 0.5056179775280898
0.08862614000008762 0.48998534440644836 0.5075720566682951
0.08882337600016399 0.495847581827064 0.5095261358085001
0.08902126000020871 0.48900830483634583 0.5075720566682951
0.08922119999988354 0.48900830483634583 0.512457254518808
0.08942802799992933 0.4929164631167562 0.5192965315095261
0.089634894000028 0.4948705422569615 0.5173424523693209
0.08986766599991824 0.4929164631167562 0.5163654127992183
0.09006501300018499 0.4948705422569615 0.5183194919394236
0.09025878700003886 0.4938935026868587 0.5114802149487054
0.09045120800010409 0.49975574010747437 0.5046409379579873
0.09064244399996824 0.495847581827064 0.49682462139716654
0.0908334770001602 0.49975574010747437 0.48998534440644836
0.09102802799998244 0.4929164631167562 0.4880312652662433
0.09124050399987027 0.4948705422569615 0.4811919882755251
0.0914498319998529 0.4929164631167562 0.4851001465559355
0.09167499400018642 0.49682462139716654 0.4880312652662433
0.09191200700024638 0.49193942354665365 0.4948705422569615
0.09214235299987195 0.4929164631167562 0.48900830483634583
0.09237210700030118 0.4929164631167562 0.4909623839765511
0.09260571200002232 0.49682462139716654 0.48412310698583294
0.09282994800014421 0.5007327796775769 0.4763067904250122
0.09305662799988568 0.4929164631167562 0.47142159257449934
0.09333299099989745 0.495847581827064 0.4587200781631655
0.09359026299989637 0.5036638983878847 0.4479726428920372
0.09379464699986784 0.495847581827064 0.4430874450415241
0.09399914200002968 0.4948705422569615 0.4323400097703958
0.09423395200019513 0.49877870053737183 0.4284318514899854
0.0944508349998614 0.49193942354665365 0.4264777723497801
0.09467973700020593 0.495847581827064 0.42452369320957506
0.09491288000026543 0.4948705422569615 0.4352711284807034
0.0951418750000812 0.4929164631167562 0.4450415241817294
0.09535453600028632 0.4929164631167562 0.44992672203224227
0.09557128999995257 0.49682462139716654 0.4636052760136786
0.09580848799987507 0.4978016609672691 0.47142159257449934
0.09602350200020737 0.5036638983878847 0.4851001465559355
0.09622747799994613 0.495847581827064 0.4880312652662433
0.09643663999986529 0.49193942354665365 0.48900830483634583
0.09663565400023799 0.49193942354665365 0.48998534440644836
0.0968345380001665 0.4948705422569615 0.4929164631167562
0.09703403299999991 0.4929164631167562 0.4938935026868587
0.09725299100000484 0.4948705422569615 0.4948705422569615
0.09746604200017828 0.4929164631167562 0.49682462139716654
0.09766588899992712 0.49193942354665365 0.49975574010747437
0.09786201399992933 0.4929164631167562 0.4938935026868587
0.09805752800002665 0.4909623839765511 0.4938935026868587
0.0982941329998539 0.49682462139716654 0.5007327796775769
0.09849996200000533 0.48900830483634583 0.5026868588177822
0.09873643800028731 0.49193942354665365 0.4978016609672691
0.09893637699997271 0.4929164631167562 0.49877870053737183
0.09912931700000627 0.48998534440644836 0.4909623839765511
0.09932592399991336 0.4938935026868587 0.49193942354665365
0.09953440000026603 0.49193942354665365 0.49682462139716654
0.09978176499998881 0.4909623839765511 0.49975574010747437
0.10001233299999512 0.48900830483634583 0.5036638983878847
0.10022023600004104 0.49193942354665365 0.49682462139716654
0.10045080400004736 0.49682462139716654 0.4978016609672691
0.10064787400006026 0.48900830483634583 0.4948705422569615
0.10084573899985116 0.48900830483634583 0.4929164631167562
0.10105578999991849 0.4938935026868587 0.4948705422569615
0.10126124799990066 0.48900830483634583 0.4929164631167562
0.10147570600020117 0.4929164631167562 0.4909623839765511
0.10167044199988595 0.48998534440644836 0.49877870053737183
0.10185804899992945 0.48705422569614076 0.48998534440644836
0.10204580400022678 0.486077186126038 0.4909623839765511
0.10223287300004813 0.486077186126038 0.49682462139716654
0.10242014699997526 0.48998534440644836 0.4909623839765511
0.10260749400003988 0.4880312652662433 0.48998534440644836
0.10279424899999867 0.49682462139716654 0.4978016609672691
0.10298083699990457 0.486077186126038 0.4948705422569615
0.10316736999993736 0.48900830483634583 0.4938935026868587
0.1033617719999711 0.4909623839765511 0.495847581827064
0.1035548419999941 0.49193942354665365 0.4929164631167562
0.10374157800015382 0.48900830483634583 0.495847581827064
0.10392861099990114 0.48900830483634583 0.49975574010747437
0.10411642100007157 0.4880312652662433 0.4938935026868587
0.10430299100016782 0.48412310698583294 0.49975574010747437
0.10449013500010551 0.47923790913532005 0.5026868588177822
0.10467887100003281 0.48705422569614076 0.5056179775280898
0.10486614399997052 0.47923790913532005 0.5036638983878847
0.10505445399985547 0.47923790913532005 0.5075720566682951
0.1052411350001421 0.47435271128480694 0.5046409379579873
0.10542992699993192 0.4763067904250122 0.5095261358085001
0.10561696000013399 0.4811919882755251 0.5036638983878847
0.10580354800003988 0.47728382999511476 0.5046409379579873
0.1059908400002314 0.4782608695652173 0.5046409379579873
0.10617724300027476 0.4763067904250122 0.5075720566682951
0.10636438600022302 0.47923790913532005 0.5026868588177822
0.10655266000003394 0.48412310698583294 0.5075720566682951
0.10674100699998235 0.4811919882755251 0.5105031753786029
0.10692807700024787 0.486077186126038 0.5056179775280898
0.1071412380001675 0.48705422569614076 0.5144113336590133
0.10733078900011606 0.4948705422569615 0.512457254518808
0.10751767400006429 0.48705422569614076 0.5095261358085001
0.10770418800029802 0.4909623839765511 0.5036638983878847
0.10789073900014046 0.49193942354665365 0.5036638983878847
0.10807841999985612 0.486077186126038 0.4948705422569615
0.10826893400007975 0.48412310698583294 0.4948705422569615
0.10846513300020888 0.48900830483634583 0.4948705422569615
0.1086802939998961 0.48900830483634583 0.49193942354665365
0.10888095600012093 0.4909623839765511 0.49193942354665365
0.10907906300008108 0.4938935026868587 0.48216902784562765
0.10927928000000975 0.49193942354665365 0.4782608695652173
0.10951920100023926 0.48900830483634583 0.47435271128480694
0.10974126900009651 0.4909623839765511 0.4763067904250122
0.1099569490002068 0.49193942354665365 0.4802149487054226
0.11018698099996982 0.4909623839765511 0.4831460674157304
0.11041562399987015 0.4938935026868587 0.48900830483634583
0.11067035799987934 0.4929164631167562 0.5114802149487054
0.11090800100009801 0.48900830483634583 0.5056179775280898
0.1111796800000775 0.49193942354665365 0.512457254518808
0.11154648599995198 0.49193942354665365 0.5192965315095261
0.11179733200015107 0.4948705422569615 0.5144113336590133
0.11202303000027314 0.4929164631167562 0.5134342940889105
0.11224208000021463 0.4948705422569615 0.512457254518808
0.11245839000002888 0.4938935026868587 0.5114802149487054
0.11267045900012818 0.4978016609672691 0.5095261358085001
0.1128714910000781 0.49193942354665365 0.5075720566682951
0.11306511600014346 0.4929164631167562 0.5075720566682951
0.1132665380000617 0.4929164631167562 0.49877870053737183
0.11400352000009661 0.5007327796775769 0.48900830483634583
0.11424232900026254 0.49975574010747437 0.4909623839765511
0.11444428799995876 0.5036638983878847 0.4782608695652173
0.11464330099988729 0.5007327796775769 0.4753297508549097
0.11483724100025938 0.5036638983878847 0.4655593551538837
0.11503575500000807 0.5056179775280898 0.4606741573033708
0.11527208300003622 0.5007327796775769 0.45481191988275516
0.11547189300017635 0.5046409379579873 0.4450415241817294
0.11566812899991419 0.5007327796775769 0.441133365901319
0.1158625870002652 0.5105031753786029 0.4401563263312165
0.11605843400002414 0.5017098192476794 0.43429408891060084
0.11625698500029102 0.49682462139716654 0.4382022471910112
0.11645238800019797 0.49877870053737183 0.4382022471910112
0.11665055000003122 0.49975574010747437 0.44406448461162684
0.11688482199997452 0.495847581827064 0.45969711773326827
0.1171132980002767 0.5036638983878847 0.46458231558378116
0.11741375400015386 0.49975574010747437 0.47435271128480694
0.11763876700024412 0.4948705422569615 0.4733756717147044
0.11784046599996145 0.5056179775280898 0.4811919882755251
0.11803588800012221 0.5036638983878847 0.47728382999511476
0.11822508700015533 0.5017098192476794 0.4753297508549097
0.11841313800005082 0.495847581827064 0.47923790913532005
0.1186312990002989 0.5007327796775769 0.4753297508549097
0.11881835100030003 0.49193942354665365 0.4733756717147044
0.11900651299993115 0.48705422569614076 0.47239863214460187
0.1192613960001836 0.48216902784562765 0.48216902784562765
0.11951881499999217 0.4831460674157304 0.48412310698583294
0.11973527300006026 0.48412310698583294 0.4851001465559355
0.11993276900011551 0.48412310698583294 0.4880312652662433
0.1201286710002023 0.48412310698583294 0.495847581827064
0.1203283330000886 0.4851001465559355 0.495847581827064
0.12054592100002992 0.4929164631167562 0.5065950170981925
0.12077769300003638 0.486077186126038 0.5065950170981925
0.1209791139999652 0.4880312652662433 0.5114802149487054
0.12136788299994805 0.4909623839765511 0.5202735710796287
0.12161719200003063 0.4929164631167562 0.5144113336590133
0.12182342699998117 0.4938935026868587 0.5144113336590133
0.12202703399998427 0.48705422569614076 0.5153883732291158
0.12222717700024077 0.48900830483634583 0.5095261358085001
0.12242950600011682 0.48998534440644836 0.5085490962383976
0.12262416800012943 0.4880312652662433 0.5095261358085001
0.12281857100015259 0.4880312652662433 0.5036638983878847
0.12308593500029019 0.48998534440644836 0.5114802149487054
0.12330144799989284 0.4929164631167562 0.5007327796775769
0.123500943000181 0.48900830483634583 0.495847581827064
0.12369369799989727 0.48998534440644836 0.4929164631167562
0.12388400800000454 0.4909623839765511 0.49193942354665365
0.12407291099998474 0.495847581827064 0.4880312652662433
0.12426138799992259 0.4831460674157304 0.48998534440644836
0.12444888400023046 0.48412310698583294 0.48900830483634583
0.12463662000027398 0.4929164631167562 0.4909623839765511
0.12482413399993675 0.48412310698583294 0.4948705422569615
0.12501127799987444 0.4851001465559355 0.495847581827064
0.1252012919999288 0.4831460674157304 0.49975574010747437
0.12544367500004228 0.47923790913532005 0.5026868588177822
0.12563485600003332 0.48412310698583294 0.4929164631167562
0.12582273999987592 0.4802149487054226 0.4909623839765511
0.12600986500001454 0.4802149487054226 0.4938935026868587
0.12619769399998404 0.4851001465559355 0.48705422569614076
0.1263851900002919 0.48216902784562765 0.4880312652662433
0.12657246300022962 0.486077186126038 0.48900830483634583
0.12675962499997695 0.486077186126038 0.4880312652662433
0.12694780599986188 0.48998534440644836 0.4880312652662433
0.12713606099987373 0.48412310698583294 0.48998534440644836
0.12736403700000665 0.48900830483634583 0.4880312652662433
0.1275512920001347 0.48412310698583294 0.4831460674157304
0.1277389540000513 0.4978016609672691 0.48998534440644836
0.12792685700014772 0.4909623839765511 0.486077186126038
0.12811407500021232 0.48900830483634583 0.486077186126038
0.12830108900016057 0.48900830483634583 0.4880312652662433
0.12848784400011937 0.48900830483634583 0.486077186126038
0.1286756540002898 0.48900830483634583 0.48998534440644836
0.12888198200016632 0.4929164631167562 0.4948705422569615
0.1290828290002537 0.4880312652662433 0.49193942354665365
0.12928595399989717 0.48216902784562765 0.5007327796775769
0.1295150040000408 0.4880312652662433 0.5007327796775769
0.129703685000095 0.4851001465559355 0.5065950170981925
0.1298909580000327 0.4880312652662433 0.5075720566682951
0.1300791759999811 0.49193942354665365 0.5085490962383976
0.13026644999990822 0.4929164631167562 0.5046409379579873
0.13045337099993048 0.48900830483634583 0.5036638983878847
0.13064136699995288 0.48900830483634583 0.49975574010747437
0.13082869600020786 0.48900830483634583 0.5036638983878847
0.1310157100001561 0.4851001465559355 0.5095261358085001
0.13120383500017851 0.4938935026868587 0.5007327796775769
0.13139084900012676 0.49193942354665365 0.5007327796775769
0.1315772329999163 0.4929164631167562 0.5026868588177822
0.13176434000024528 0.495847581827064 0.5026868588177822
0.13195129899986568 0.4978016609672691 0.5065950170981925
0.13213833100007832 0.5036638983878847 0.5065950170981925
0.1323251970002275 0.5036638983878847 0.5085490962383976
0.132511673999943 0.5075720566682951 0.5065950170981925
0.1326984289999018 0.5065950170981925 0.5105031753786029
0.13288464700008262 0.5105031753786029 0.5095261358085001
0.1330745499999466 0.5075720566682951 0.5105031753786029
0.13326302699988446 0.5007327796775769 0.5095261358085001
0.1334565410002142 0.5026868588177822 0.5075720566682951
0.1336549800003013 0.49682462139716654 0.5095261358085001
0.13388629000019137 0.5036638983878847 0.5007327796775769
0.1340819330002887 0.495847581827064 0.5026868588177822
0.1342720030002056 0.4929164631167562 0.5017098192476794
0.1344588870001644 0.48900830483634583 0.49975574010747437
0.1346456420001232 0.49975574010747437 0.4929164631167562
0.13483367500020904 0.4978016609672691 0.48900830483634583
0.13502017000018895 0.4909623839765511 0.486077186126038
0.13520792500003154 0.49193942354665365 0.47728382999511476
0.13541890199985573 0.4909623839765511 0.47239863214460187
0.1356289889999971 0.4938935026868587 0.46458231558378116
0.1359918140001355 0.4948705422569615 0.47142159257449934
0.13625975200011453 0.4880312652662433 0.47923790913532005
0.13651426500018715 0.4929164631167562 0.4851001465559355
0.13671533400020053 0.49975574010747437 0.4880312652662433
0.13697164299992437 0.49877870053737183 0.4948705422569615
0.13717484100016009 0.5017098192476794 0.48216902784562765
0.13744614999995974 0.49975574010747437 0.47728382999511476
0.13766720000012356 0.5026868588177822 0.4763067904250122
0.13788843600013934 0.5075720566682951 0.4763067904250122
0.13814167000009547 0.4978016609672691 0.47239863214460187
0.13836036900011095 0.49877870053737183 0.4733756717147044
0.13856303100010336 0.5046409379579873 0.4802149487054226
0.13876341500008493 0.49682462139716654 0.4802149487054226
0.1389644290002252 0.4909623839765511 0.4802149487054226
0.13952356400022836 0.48998534440644836 0.47435271128480694
0.13974328099993727 0.4929164631167562 0.4763067904250122
0.13995333100001517 0.486077186126038 0.48216902784562765
0.14015158600022914 0.4880312652662433 0.4733756717147044
0.14036002500006362 0.495847581827064 0.47923790913532005
0.14056540899991887 0.4929164631167562 0.4811919882755251
0.1407667749999746 0.4948705422569615 0.48216902784562765
0.14096171500023047 0.4909623839765511 0.4831460674157304
0.14115537699990455 0.4929164631167562 0.486077186126038
0.1413913340002182 0.4978016609672691 0.4929164631167562
0.1416019960001904 0.4929164631167562 0.49682462139716654
0.14179984300017168 0.495847581827064 0.49682462139716654
0.14199046800013093 0.5017098192476794 0.5046409379579873
0.14218781499994293 0.49193942354665365 0.4978016609672691
0.14238686599992434 0.4938935026868587 0.4978016609672691
0.14258649100020193 0.48900830483634583 0.4948705422569615
0.14279191200012065 0.4948705422569615 0.4929164631167562
0.14298685199992178 0.4880312652662433 0.4929164631167562
0.14317421800024022 0.4880312652662433 0.4948705422569615
0.14336084300020957 0.48900830483634583 0.4978016609672691
0.14354845000025307 0.4851001465559355 0.4978016609672691
0.14377092599988828 0.48412310698583294 0.5026868588177822
0.1439756990002934 0.48216902784562765 0.5075720566682951
0.14416469400021015 0.4831460674157304 0.5056179775280898
0.14435691200014844 0.4802149487054226 0.5095261358085001
0.1445513890002985 0.48216902784562765 0.5085490962383976
0.14474547700001494 0.48900830483634583 0.5105031753786029
0.1449608050002098 0.4909623839765511 0.5085490962383976
0.14514854100025332 0.4851001465559355 0.495847581827064
0.14533898099989528 0.4811919882755251 0.4929164631167562
0.14552655099987533 0.4802149487054226 0.48705422569614076
0.14571339800022542 0.48900830483634583 0.4802149487054226
0.14590243100019507 0.4831460674157304 0.48216902784562765
0.1460889079999106 0.486077186126038 0.47239863214460187
0.14627560700000686 0.48412310698583294 0.4684904738641915
0.14646251000021948 0.4831460674157304 0.46458231558378116
0.14664948700010427 0.48216902784562765 0.46458231558378116
0.14683640900011596 0.47923790913532005 0.46946751343429405
0.14702281200015932 0.48216902784562765 0.4733756717147044
0.14721138100003373 0.48705422569614076 0.47923790913532005
0.14740752500028975 0.4831460674157304 0.48412310698583294
0.14759428000024855 0.4831460674157304 0.4782608695652173
0.14778047900017555 0.47728382999511476 0.47728382999511476
0.1479680490001556 0.47728382999511476 0.4753297508549097
0.1481556180001462 0.4802149487054226 0.4753297508549097
0.14836892799985435 0.4880312652662433 0.4802149487054226
0.14856138599998303 0.4909623839765511 0.486077186126038
0.1487497150001218 0.4880312652662433 0.48705422569614076
0.14893661799987967 0.4851001465559355 0.48998534440644836
0.1491242060001241 0.4909623839765511 0.48998534440644836
0.14935031200002413 0.49193942354665365 0.4948705422569615
0.1495406600001843 0.4909623839765511 0.4929164631167562
0.14972724800009019 0.48900830483634583 0.49193942354665365
0.14991404000011244 0.4929164631167562 0.495847581827064
0.15010103500026162 0.48900830483634583 0.4929164631167562
0.1502879380000195 0.48900830483634583 0.4948705422569615
0.15047417400000995 0.4909623839765511 0.49682462139716654
0.1506609110001591 0.48705422569614076 0.49877870053737183
0.15084716599994863 0.486077186126038 0.5056179775280898
0.1510349390000556 0.48705422569614076 0.49975574010747437
0.15122641600009956 0.4909623839765511 0.5065950170981925
0.1514144299999316 0.4851001465559355 0.5114802149487054
0.15160175900018658 0.4831460674157304 0.5017098192476794
0.1517884210002194 0.4831460674157304 0.5026868588177822
0.15197497200006183 0.4851001465559355 0.5075720566682951
0.15216230099986205 0.486077186126038 0.5026868588177822
0.1523491110001487 0.48705422569614076 0.49975574010747437
0.1525473100000454 0.4880312652662433 0.4978016609672691
0.15296433799994702 0.4938935026868587 0.4929164631167562
0.1531824990001951 0.4929164631167562 0.4929164631167562
0.1534584740002174 0.4978016609672691 0.4831460674157304
0.15367454299985184 0.5085490962383976 0.4851001465559355
0.15387827899985496 0.49975574010747437 0.4851001465559355
0.15407249700001557 0.5075720566682951 0.48216902784562765
0.15448515300022336 0.5085490962383976 0.4811919882755251
0.1547721649999403 0.5173424523693209 0.4782608695652173
0.1550096040000426 0.5144113336590133 0.47728382999511476
0.15542992700011382 0.5036638983878847 0.4782608695652173
0.15564890399991782 0.5065950170981925 0.4811919882755251
0.15588686099999904 0.4948705422569615 0.4851001465559355
0.1561464840001463 0.4929164631167562 0.4831460674157304
0.15635488699990674 0.4929164631167562 0.486077186126038
0.15655910400028006 0.5026868588177822 0.49877870053737183
0.15675056300005963 0.495847581827064 0.4909623839765511
0.15695002100028432 0.4938935026868587 0.5007327796775769
0.15715249799995945 0.49682462139716654 0.4938935026868587
0.1573901219999243 0.4929164631167562 0.4948705422569615
0.15761983800030066 0.5017098192476794 0.49682462139716654
0.15785311099989485 0.4909623839765511 0.49975574010747437
0.15810134599996672 0.48998534440644836 0.5017098192476794
0.1583470059999854 0.4929164631167562 0.5007327796775769
0.15856496400010656 0.4948705422569615 0.5007327796775769
0.15876538500015158 0.4948705422569615 0.5065950170981925
0.15896456600012243 0.4929164631167562 0.5046409379579873
0.15916176500013535 0.4978016609672691 0.49193942354665365
0.15935389000014766 0.4929164631167562 0.48998534440644836
0.15954312600024423 0.4929164631167562 0.4851001465559355
0.15972923300023467 0.5007327796775769 0.48900830483634583
0.15991522800004532 0.4978016609672691 0.47923790913532005
0.16010415000027933 0.5007327796775769 0.4831460674157304
0.16029049700000542 0.49877870053737183 0.4753297508549097
0.16047928900025 0.5017098192476794 0.47239863214460187
0.1606663769998704 0.49975574010747437 0.4753297508549097
0.160853594999935 0.49975574010747437 0.4733756717147044
0.16106686800003445 0.49682462139716654 0.48216902784562765
0.16125577100001465 0.5007327796775769 0.4880312652662433
0.16145319199995356 0.4948705422569615 0.486077186126038
0.16164181700014524 0.49193942354665365 0.4880312652662433
0.16182879400003003 0.48998534440644836 0.4880312652662433
0.16201493800008393 0.48705422569614076 0.48412310698583294
0.1622320070000569 0.486077186126038 0.486077186126038
0.16242118800028038 0.486077186126038 0.4802149487054226
0.1626228310001352 0.48216902784562765 0.4782608695652173
0.16281149299993558 0.4851001465559355 0.4763067904250122
0.1629987669998627 0.48412310698583294 0.4753297508549097
0.16318546599995898 0.48412310698583294 0.4802149487054226
0.16337218399985431 0.4811919882755251 0.47923790913532005
0.16356714199991984 0.486077186126038 0.4831460674157304
0.16375710000011168 0.48412310698583294 0.4851001465559355
0.16394450300003882 0.47923790913532005 0.4880312652662433
0.16413051700010328 0.4802149487054226 0.48705422569614076
0.1643174949999775 0.47728382999511476 0.49193942354665365
0.16450430500026414 0.4782608695652173 0.4929164631167562
0.1646921710002971 0.4753297508549097 0.49682462139716654
0.1648798149999493 0.47923790913532005 0.49682462139716654
0.16506714300021486 0.47239863214460187 0.5026868588177822
0.1652549169998565 0.4655593551538837 0.512457254518808
0.16544802299995354 0.4763067904250122 0.5232046897899365
0.16563616700022976 0.47142159257449934 0.5163654127992183
0.1658243480001147 0.47728382999511476 0.5251587689301416
0.1660113990001264 0.4753297508549097 0.522227650219834
0.16619872799992663 0.4763067904250122 0.5280898876404494
0.16638592700019217 0.4782608695652173 0.533952125061065
0.16657334799992896 0.4733756717147044 0.5329750854909623
0.1667609370001628 0.48216902784562765 0.5300439667806547
0.16694843200002651 0.4831460674157304 0.5319980459208598
0.1671351129998584 0.48705422569614076 0.5251587689301416
0.16732205300013447 0.4909623839765511 0.522227650219834
0.16750949300012508 0.49193942354665365 0.5153883732291158
0.16769685899998876 0.495847581827064 0.5075720566682951
0.16789811299986468 0.48900830483634583 0.5007327796775769
0.16810996000003797 0.48900830483634583 0.4938935026868587
0.16831176999994568 0.48900830483634583 0.4880312652662433
0.16851024700008566 0.4929164631167562 0.4880312652662433
0.1687025569999605 0.49193942354665365 0.486077186126038
0.16889934900018488 0.4948705422569615 0.486077186126038
0.16941392900025676 0.49877870053737183 0.4851001465559355
0.16975971700003356 0.4938935026868587 0.4811919882755251
0.17015409700024975 0.5017098192476794 0.4851001465559355
0.17045190499993623 0.49975574010747437 0.4763067904250122
0.1707199910001691 0.5095261358085001 0.4782608695652173
0.17096211500029312 0.5046409379579873 0.4782608695652173
0.17119414600028904 0.5017098192476794 0.4753297508549097
0.17143395599987343 0.4978016609672691 0.48216902784562765
0.1721549200001391 0.4948705422569615 0.47728382999511476
0.1726083540002037 0.49975574010747437 0.4802149487054226
0.17298675200026992 0.49975574010747437 0.4929164631167562
0.1737781960000575 0.48900830483634583 0.5046409379579873
0.17407589300000836 0.48705422569614076 0.5046409379579873
0.17429307300017172 0.4909623839765511 0.5046409379579873
0.17450055000017528 0.4880312652662433 0.5065950170981925
0.17469908200018835 0.4929164631167562 0.5065950170981925
0.17488809599990418 0.49193942354665365 0.5056179775280898
0.1750751469999159 0.49877870053737183 0.5017098192476794
0.17526397600022392 0.4909623839765511 0.5036638983878847
0.17545154500021454 0.4909623839765511 0.5026868588177822
0.17563920800012056 0.5017098192476794 0.5007327796775769
0.17585599900030502 0.495847581827064 0.4938935026868587
0.1760442170002534 0.4909623839765511 0.495847581827064
0.1762344160001703 0.48900830483634583 0.495847581827064
0.17643243000020448 0.48900830483634583 0.4948705422569615
0.17662111000026925 0.49193942354665365 0.4909623839765511
0.17681238400018628 0.49193942354665365 0.49193942354665365
0.1769997310002509 0.4929164631167562 0.4880312652662433
0.17718744900003003 0.49193942354665365 0.48412310698583294
0.17742718399995283 0.49193942354665365 0.47728382999511476
0.17761775300004956 0.4929164631167562 0.4802149487054226
0.17780543400021998 0.48900830483634583 0.4782608695652173
0.17799280000008366 0.4909623839765511 0.47142159257449934
0.1781802959999368 0.49682462139716654 0.47239863214460187
0.17836699500003306 0.4880312652662433 0.4684904738641915
0.17855443500002366 0.4909623839765511 0.46262823644357587
0.1787412270000459 0.48900830483634583 0.4606741573033708
0.17892925900014234 0.48900830483634583 0.4460185637518319
0.17911738500015417 0.4978016609672691 0.4460185637518319
0.17930613899989112 0.49975574010747437 0.4450415241817294
0.179493542000273 0.48900830483634583 0.44699560332193444
0.17968077900013668 0.4929164631167562 0.44699560332193444
0.17986723700005314 0.49877870053737183 0.45188080117244755
0.18005423300019174 0.495847581827064 0.45188080117244755
0.18024121000007653 0.5007327796775769 0.4606741573033708
0.18042916800004605 0.5026868588177822 0.4704445530043966
0.18061610799986738 0.5036638983878847 0.4704445530043966
0.18080351100024927 0.5007327796775769 0.47435271128480694
0.18099187699999675 0.4978016609672691 0.4831460674157304
0.18117948400004025 0.49682462139716654 0.48216902784562765
0.18136849800021082 0.495847581827064 0.48412310698583294
0.18157053000004453 0.4929164631167562 0.4831460674157304
0.18175822900002458 0.48998534440644836 0.4831460674157304
0.18194518800009973 0.4880312652662433 0.48412310698583294
0.1821315910001431 0.48705422569614076 0.4851001465559355
0.1823185490002288 0.48705422569614076 0.48998534440644836
0.18250573000022996 0.4831460674157304 0.49682462139716654
0.18272718800017174 0.4880312652662433 0.5036638983878847
0.18291473899989796 0.4880312652662433 0.5007327796775769
0.18310149399985676 0.48412310698583294 0.5114802149487054
0.18328839700006938 0.4851001465559355 0.5085490962383976
0.18347476300004928 0.48412310698583294 0.5105031753786029
0.1836621100001139 0.47923790913532005 0.5163654127992183
0.18384888399987176 0.4811919882755251 0.5173424523693209
0.1840363790001902 0.48216902784562765 0.5202735710796287
0.18422400400004335 0.4782608695652173 0.5261358085002443
0.18441105500005506 0.47923790913532005 0.5153883732291158
0.18459893999988708 0.4831460674157304 0.5183194919394236
0.1847854540001208 0.4782608695652173 0.5153883732291158
0.1849724310000056 0.47728382999511476 0.5173424523693209
0.18515927799990095 0.4811919882755251 0.5105031753786029
0.18534908900028313 0.4811919882755251 0.5085490962383976
0.18567539600007876 0.4782608695652173 0.5153883732291158
0.1859196680002242 0.4851001465559355 0.5173424523693209
0.1861193849999836 0.4811919882755251 0.5261358085002443
0.18631876900008137 0.48412310698583294 0.5183194919394236
0.18651354300027378 0.4831460674157304 0.5192965315095261
0.18670724200001132 0.48216902784562765 0.524181729360039
0.18690795900010926 0.48900830483634583 0.5163654127992183
0.1871266950001882 0.4909623839765511 0.5144113336590133
0.1874137059999157 0.48998534440644836 0.5105031753786029
0.18764029400017534 0.4978016609672691 0.512457254518808
0.1878378450001037 0.49682462139716654 0.5085490962383976
0.18802752500005226 0.49193942354665365 0.49877870053737183
0.18821428000001106 0.49193942354665365 0.48705422569614076
0.18844431200022882 0.4929164631167562 0.4802149487054226
0.18863232600006086 0.48412310698583294 0.47435271128480694
0.1888208029999987 0.4802149487054226 0.4684904738641915
0.18900929800020094 0.4880312652662433 0.467513434294089
0.18921597899998233 0.4851001465559355 0.47239863214460187
0.18945512100026463 0.4851001465559355 0.4665363947239862
0.18964920899998106 0.486077186126038 0.47435271128480694
0.18984533399998327 0.48900830483634583 0.467513434294089
0.19004271799985872 0.4880312652662433 0.4753297508549097
0.19028406400002496 0.4929164631167562 0.4733756717147044
0.19047689299986814 0.4929164631167562 0.4753297508549097
0.1906770000000506 0.49877870053737183 0.4811919882755251
0.19087575399998968 0.49682462139716654 0.48705422569614076
0.1910780270000032 0.5007327796775769 0.4929164631167562
0.19127413400019577 0.5007327796775769 0.4938935026868587
0.19146761000001788 0.5017098192476794 0.495847581827064
0.19166280900026322 0.512457254518808 0.4948705422569615
0.19185636000020168 0.5065950170981925 0.48998534440644836
0.19205180000017208 0.5056179775280898 0.48705422569614076
0.19224553599997307 0.5007327796775769 0.4948705422569615
0.19243816100015465 0.5017098192476794 0.48216902784562765
0.19264499000018986 0.4948705422569615 0.4733756717147044
0.19286415099986698 0.49877870053737183 0.4753297508549097
0.19309810899994773 0.495847581827064 0.47923790913532005
0.19339388000025792 0.49193942354665365 0.4802149487054226
0.1936234479999257 0.49682462139716654 0.48705422569614076
0.19390525600010733 0.495847581827064 0.4929164631167562
0.19410430700008874 0.4938935026868587 0.49877870053737183
0.1943056909999541 0.49682462139716654 0.5007327796775769
0.19452168599991637 0.5017098192476794 0.5056179775280898
0.19486360400014746 0.49682462139716654 0.5036638983878847
0.1951174680002623 0.4938935026868587 0.495847581827064
0.19534185200018328 0.495847581827064 0.4909623839765511
0.1955585880000399 0.5017098192476794 0.48705422569614076
0.19575845300005312 0.49682462139716654 0.4811919882755251
0.1959510040001078 0.49975574010747437 0.47728382999511476
0.19614157400019394 0.49877870053737183 0.4753297508549097
0.1963294400002269 0.5007327796775769 0.47239863214460187
0.19651876800026002 0.495847581827064 0.4655593551538837
0.19670702300027187 0.49877870053737183 0.4665363947239862
0.19689400000015667 0.4978016609672691 0.4636052760136786
0.19708316200012632 0.4929164631167562 0.4665363947239862
0.19727143599993724 0.48705422569614076 0.46946751343429405
0.19746415300005538 0.4938935026868587 0.4704445530043966
0.19765140800018344 0.4938935026868587 0.47728382999511476
0.1978384960002586 0.495847581827064 0.4733756717147044
0.19802573300012227 0.49193942354665365 0.4763067904250122
0.19821348799996485 0.4929164631167562 0.47923790913532005
0.19840172400017764 0.48998534440644836 0.4880312652662433
0.1985890159999144 0.4880312652662433 0.47923790913532005
0.19877751100011665 0.4948705422569615 0.47435271128480694
0.19898721000026853 0.48900830483634583 0.47239863214460187
0.19917387200030134 0.48900830483634583 0.46458231558378116
0.1993603119999534 0.48998534440644836 0.45969711773326827
0.19954743700009203 0.4938935026868587 0.4606741573033708
0.1997343030002412 0.4948705422569615 0.44992672203224227
0.19992115100012597 0.4909623839765511 0.45188080117244755
0.20010821999994732 0.4909623839765511 0.4528578407425501
0.20029499400015993 0.48998534440644836 0.45188080117244755
0.20048132300007637 0.495847581827064 0.4655593551538837
0.2006675030002043 0.4948705422569615 0.46458231558378116
0.20085322100021585 0.495847581827064 0.46946751343429405
0.20103912400008994 0.49193942354665365 0.4802149487054226
0.20122534200027076 0.486077186126038 0.49682462139716654
0.2015042610000819 0.4929164631167562 0.49975574010747437
0.20169360899990352 0.4929164631167562 0.5036638983878847
0.20188151199999993 0.4811919882755251 0.5075720566682951
0.20206885900006455 0.47923790913532005 0.5144113336590133
0.20225607700012915 0.48216902784562765 0.5144113336590133
0.20244690600020476 0.4831460674157304 0.5192965315095261
0.20264086399993175 0.48412310698583294 0.5202735710796287
0.20283134100009192 0.4811919882755251 0.5192965315095261
0.2030180400001882 0.4811919882755251 0.524181729360039
0.2032048510000095 0.48216902784562765 0.524181729360039
0.20339188300022215 0.4851001465559355 0.524181729360039
0.2037300420001884 0.4811919882755251 0.5183194919394236
0.20391931499989369 0.4909623839765511 0.5183194919394236
0.20410725500005356 0.4811919882755251 0.5251587689301416
0.2042979729999388 0.4851001465559355 0.512457254518808
0.20448443200029942 0.4851001465559355 0.5144113336590133
0.20467233499994109 0.486077186126038 0.512457254518808
0.20486142300023857 0.48900830483634583 0.512457254518808
0.20505125099998622 0.4831460674157304 0.5114802149487054
0.20523854300017774 0.4851001465559355 0.5173424523693209
0.20543552000026466 0.48998534440644836 0.5114802149487054
0.205622460000086 0.48216902784562765 0.5075720566682951
0.20580958500022462 0.4880312652662433 0.5026868588177822
0.20599702500021522 0.4811919882755251 0.5017098192476794
0.20618357600005766 0.48705422569614076 0.49877870053737183
0.20637168300027042 0.48412310698583294 0.495847581827064
0.20656595600030414 0.48900830483634583 0.49193942354665365
0.2067539519998718 0.4938935026868587 0.49975574010747437
0.20694170700016912 0.4929164631167562 0.48998534440644836
0.20714472000008755 0.4938935026868587 0.48705422569614076
0.20733180900015213 0.4929164631167562 0.4909623839765511
0.20751861899998403 0.4948705422569615 0.48998534440644836
0.2077067260001968 0.4929164631167562 0.4909623839765511
0.20791849800025375 0.4909623839765511 0.4938935026868587
0.2081857329999366 0.4880312652662433 0.4938935026868587
0.20839520900017305 0.4880312652662433 0.4978016609672691
0.2085959080000066 0.4909623839765511 0.49975574010747437
0.20878932999994504 0.4880312652662433 0.5036638983878847
0.20898713999986285 0.48998534440644836 0.49877870053737183
0.20918472799985466 0.48900830483634583 0.5046409379579873
0.20950529399988227 0.48998534440644836 0.5046409379579873
0.20975013999986913 0.4909623839765511 0.5046409379579873
0.20996685699992668 0.4948705422569615 0.5046409379579873
0.21017259300015212 0.4929164631167562 0.5026868588177822
0.21036297699993156 0.4929164631167562 0.4948705422569615
0.21055069500016543 0.4948705422569615 0.4929164631167562
0.21073943100009274 0.4929164631167562 0.4929164631167562
0.21092948300019998 0.4909623839765511 0.4909623839765511
0.21111696000025404 0.495847581827064 0.486077186126038
0.21130443699985335 0.48900830483634583 0.4880312652662433
0.21149139499993908 0.48998534440644836 0.48900830483634583
0.21167811300028916 0.4909623839765511 0.5017098192476794
0.21186497899998358 0.4948705422569615 0.495847581827064
0.21205269700021745 0.4851001465559355 0.49975574010747437
0.2122393770000599 0.48998534440644836 0.5026868588177822
0.2124266880000505 0.4851001465559355 0.5056179775280898
0.21261521999986144 0.48900830483634583 0.5017098192476794
0.2128393450002477 0.4831460674157304 0.5046409379579873
0.21303117300021768 0.48998534440644836 0.5144113336590133
0.21321853900008136 0.4851001465559355 0.5026868588177822
0.21348060700029237 0.4909623839765511 0.4978016609672691
0.21366773199997624 0.48998534440644836 0.49877870053737183
0.21385470899986103 0.4851001465559355 0.4929164631167562
0.21404239000003145 0.4831460674157304 0.48705422569614076
0.21427906999997504 0.48900830483634583 0.48705422569614076
0.21446902800016687 0.495847581827064 0.4880312652662433
0.21465728300017872 0.49975574010747437 0.486077186126038
0.21484466800029622 0.495847581827064 0.4851001465559355
0.21503197800029739 0.49682462139716654 0.4909623839765511
0.2152190110000447 0.4978016609672691 0.49193942354665365
0.21540730200013058 0.4948705422569615 0.49193942354665365
0.21559605699985696 0.495847581827064 0.4929164631167562
0.21579358899998624 0.5075720566682951 0.5007327796775769
0.21598121500028356 0.5007327796775769 0.4938935026868587
0.21616885799994634 0.5017098192476794 0.49193942354665365
0.21635505799986277 0.5036638983878847 0.4948705422569615
0.21654212700013886 0.5046409379579873 0.4929164631167562
0.2167292340000131 0.5065950170981925 0.49193942354665365
0.21691654400001426 0.5026868588177822 0.495847581827064
0.21710387300026923 0.5065950170981925 0.4909623839765511
0.21729096099988965 0.5095261358085001 0.4909623839765511
0.21749364200013588 0.5075720566682951 0.48998534440644836
0.21768122999992556 0.5075720566682951 0.48216902784562765
0.21786817000020164 0.5036638983878847 0.4811919882755251
0.2180553510002028 0.5056179775280898 0.4753297508549097
0.21824297600005593 0.4978016609672691 0.4753297508549097
0.21842924900010985 0.4978016609672691 0.46946751343429405
0.2186165970001639 0.4929164631167562 0.4753297508549097
0.2188033140000698 0.48900830483634583 0.47239863214460187
0.2189897920002295 0.48900830483634583 0.47142159257449934
0.21918071300024167 0.4831460674157304 0.47239863214460187
0.21937098600028548 0.486077186126038 0.47239863214460187
0.2195574080001279 0.4811919882755251 0.46946751343429405
0.21974395899997035 0.4831460674157304 0.47239863214460187
0.21993008400022518 0.4811919882755251 0.4782608695652173
0.22011683900018397 0.4831460674157304 0.486077186126038
0.22030337100022734 0.48900830483634583 0.47435271128480694
0.22048960800020723 0.4811919882755251 0.47435271128480694
0.220676899999944 0.48705422569614076 0.4684904738641915
0.2208639509999557 0.48705422569614076 0.47728382999511476
0.22105168699999922 0.48900830483634583 0.4733756717147044
0.22124094199989486 0.48705422569614076 0.4684904738641915
0.22143127100025595 0.4851001465559355 0.467513434294089
0.22161865499992928 0.48705422569614076 0.47142159257449934
0.22180615100023715 0.4880312652662433 0.47728382999511476
0.2219993680000698 0.49193942354665365 0.4831460674157304
0.2221878079999442 0.48900830483634583 0.495847581827064
0.222379433000242 0.48900830483634583 0.4909623839765511
0.22256918799985215 0.4948705422569615 0.49877870053737183
0.22276344300007622 0.486077186126038 0.5046409379579873
0.2229549940002471 0.48900830483634583 0.5105031753786029
0.2231503600000906 0.48412310698583294 0.5095261358085001
0.22335861400006252 0.4802149487054226 0.5163654127992183
0.22355707199994868 0.47923790913532005 0.5163654127992183
0.22380745500004195 0.4733756717147044 0.512457254518808
0.2240810230000534 0.4851001465559355 0.522227650219834
0.22427749999997104 0.47923790913532005 0.5192965315095261
0.22448456900019664 0.47728382999511476 0.5183194919394236
0.22469054500015773 0.4782608695652173 0.5183194919394236
0.22489611499986495 0.48216902784562765 0.5075720566682951
0.225107276000017 0.47923790913532005 0.5036638983878847
0.22537828800022908 0.4851001465559355 0.4978016609672691
0.22560796800007665 0.4831460674157304 0.4909623839765511
0.22582859200019811 0.4782608695652173 0.48998534440644836
0.22604321700009677 0.48998534440644836 0.486077186126038
0.22625667500005875 0.4831460674157304 0.4851001465559355
0.22646544799999901 0.4831460674157304 0.4811919882755251
0.22671216400021876 0.4831460674157304 0.48216902784562765
0.22690780799985077 0.486077186126038 0.49193942354665365
0.22709613600000012 0.4851001465559355 0.4880312652662433
0.22728339100012818 0.48900830483634583 0.4978016609672691
0.22747064600025624 0.48900830483634583 0.495847581827064
0.2276606420000462 0.48412310698583294 0.4938935026868587
0.22784776700018483 0.4811919882755251 0.4929164631167562
0.22803515099985816 0.4811919882755251 0.4929164631167562
0.22822225800018714 0.4851001465559355 0.4909623839765511
0.2284088649998921 0.4811919882755251 0.48998534440644836
0.22859469400009402 0.4831460674157304 0.48998534440644836
0.22878150399992592 0.4851001465559355 0.4880312652662433
0.22896807400002217 0.48705422569614076 0.48998534440644836
0.22915514300029827 0.4851001465559355 0.4938935026868587
0.22934763900002508 0.48705422569614076 0.48705422569614076
0.22953718999997363 0.486077186126038 0.48998534440644836
0.22972375900008046 0.4929164631167562 0.4929164631167562
0.22991016200012382 0.48900830483634583 0.495847581827064
0.23009680599989224 0.49193942354665365 0.49193942354665365
0.23029415300015899 0.4909623839765511 0.4978016609672691
0.2304920370002037 0.48900830483634583 0.5017098192476794
0.23069036600008985 0.48998534440644836 0.5017098192476794
0.23116652099997737 0.495847581827064 0.5046409379579873
0.23142879300030472 0.4948705422569615 0.512457254518808
0.23166052800024772 0.4948705422569615 0.512457254518808
0.2318895970001904 0.49682462139716654 0.5134342940889105
0.2321196470002178 0.49975574010747437 0.5095261358085001
0.23234836400024506 0.4978016609672691 0.5065950170981925
0.23256578500013347 0.49682462139716654 0.4978016609672691
0.2327712060000522 0.5026868588177822 0.486077186126038
0.23300495900002716 0.49682462139716654 0.4782608695652173
0.23320425100018838 0.49975574010747437 0.4753297508549097
0.23342700500006686 0.5075720566682951 0.4684904738641915
0.23361538900007872 0.5007327796775769 0.46946751343429405
0.23380210699997406 0.5036638983878847 0.46946751343429405
0.23399106600027153 0.5036638983878847 0.4733756717147044
0.23417917200004013 0.5036638983878847 0.4782608695652173
0.23436594600025273 0.5046409379579873 0.4880312652662433
0.23455373800015877 0.5017098192476794 0.4851001465559355
0.2347413810002763 0.5056179775280898 0.4831460674157304
0.23492874700014 0.5007327796775769 0.48705422569614076
0.23511729800020476 0.5075720566682951 0.48900830483634583
0.23530518300003678 0.5036638983878847 0.4811919882755251
0.23549241899991102 0.5026868588177822 0.47728382999511476
0.23567989599996508 0.5007327796775769 0.47239863214460187
0.23586729899989223 0.5046409379579873 0.4606741573033708
0.23605457200028468 0.5017098192476794 0.45188080117244755
0.2362421230000109 0.5017098192476794 0.44992672203224227
0.23642886000016006 0.5065950170981925 0.4430874450415241
0.23661628099989684 0.49682462139716654 0.44699560332193444
0.23680283200019403 0.4929164631167562 0.4479726428920372
0.23698934699996244 0.4938935026868587 0.4557889594528579
0.237176675000228 0.4948705422569615 0.45969711773326827
0.2373670970000603 0.4948705422569615 0.46946751343429405
0.23755583299998762 0.48998534440644836 0.4782608695652173
0.23774432900017928 0.4811919882755251 0.4802149487054226
0.23793863900027645 0.48705422569614076 0.4802149487054226
0.23813215300015145 0.47728382999511476 0.4851001465559355
0.23832018500024787 0.4753297508549097 0.486077186126038
0.23850764400003754 0.4811919882755251 0.4909623839765511
0.23869439899999634 0.4802149487054226 0.4929164631167562
0.2388808760001666 0.4811919882755251 0.4978016609672691
0.2390712420001364 0.4831460674157304 0.5026868588177822
0.2392590710001059 0.48412310698583294 0.512457254518808
0.23947725100015305 0.486077186126038 0.5114802149487054
0.2396645610001542 0.486077186126038 0.5144113336590133
0.23985155700029281 0.48998534440644836 0.5144113336590133
0.24003818200026217 0.4880312652662433 0.5163654127992183
0.24022560299999896 0.48998534440644836 0.5163654127992183
0.24041367300014826 0.495847581827064 0.5046409379579873
0.24060048299998016 0.4938935026868587 0.49877870053737183
0.24078764500018224 0.4938935026868587 0.49682462139716654
0.24098362199993062 0.4929164631167562 0.4948705422569615
0.24117187699994247 0.4929164631167562 0.49682462139716654
0.24141303800024616 0.4929164631167562 0.49877870053737183
0.24168830899998284 0.4938935026868587 0.5007327796775769
0.24190500800023074 0.4929164631167562 0.5105031753786029
0.24209644800021124 0.48998534440644836 0.5134342940889105
0.24228509200020198 0.49193942354665365 0.5075720566682951
0.24247338300028787 0.4831460674157304 0.5007327796775769
0.24266073099988716 0.48216902784562765 0.5026868588177822
0.2428483930002585 0.47728382999511476 0.49975574010747437
0.2430353700001433 0.47923790913532005 0.4938935026868587
0.24322538400019766 0.4811919882755251 0.49682462139716654
0.2434131760001037 0.48216902784562765 0.495847581827064
0.2436006709999674 0.47923790913532005 0.48900830483634583
0.24378831500007436 0.47923790913532005 0.4909623839765511
0.24397507000003316 0.4802149487054226 0.48900830483634583
0.2441620099998545 0.4733756717147044 0.4938935026868587
0.24434950600016236 0.4802149487054226 0.49193942354665365
0.24453698300021642 0.4811919882755251 0.4880312652662433
0.24472466299994267 0.4782608695652173 0.48900830483634583
0.24491195500013418 0.47923790913532005 0.47728382999511476
0.24509893200001898 0.4851001465559355 0.4753297508549097
0.24528577999990375 0.47923790913532005 0.467513434294089
0.24549442299985458 0.47923790913532005 0.4704445530043966
0.24568188100010957 0.48412310698583294 0.46165119687347334
0.24587058099996284 0.4811919882755251 0.4655593551538837
0.2460614470001019 0.4851001465559355 0.46458231558378116
0.24624977500025125 0.486077186126038 0.4655593551538837
0.2464363819999562 0.49193942354665365 0.4655593551538837
0.246623136999915 0.4948705422569615 0.4733756717147044
0.24681052100004308 0.4948705422569615 0.4704445530043966
0.2469973319998644 0.4948705422569615 0.4811919882755251
0.24718401300015103 0.49682462139716654 0.48412310698583294
0.24737147099995127 0.49975574010747437 0.4909623839765511
0.24755885600006877 0.5036638983878847 0.4948705422569615
0.24774587000001702 0.5036638983878847 0.49877870053737183
0.24793331000000762 0.5036638983878847 0.49975574010747437
0.2481205270000828 0.5056179775280898 0.5065950170981925
0.24830733799990412 0.5036638983878847 0.5036638983878847
0.24849481499995818 0.49682462139716654 0.5007327796775769
0.24868329199989603 0.4938935026868587 0.49682462139716654
0.2488706760000241 0.4929164631167562 0.495847581827064
0.2490738940000483 0.48998534440644836 0.495847581827064
0.24930868399997053 0.49193942354665365 0.49975574010747437
0.24949821700010943 0.48900830483634583 0.5017098192476794
0.24968639799999437 0.495847581827064 0.5046409379579873
0.24987319000001662 0.49193942354665365 0.5192965315095261
0.2500596670001869 0.49193942354665365 0.5202735710796287
0.25024675500026206 0.4938935026868587 0.5329750854909623
0.25043304700011504 0.49193942354665365 0.5329750854909623
0.25062746799994784 0.4978016609672691 0.5446995603321934
0.2508153530002346 0.4909623839765511 0.5388373229115779
0.25100236700018286 0.48900830483634583 0.5378602833414754
0.2511905840001418 0.49193942354665365 0.5398143624816805
0.25137722799991025 0.486077186126038 0.5417684416218858
0.2515648900002816 0.495847581827064 0.5368832437713726
0.2517608120001569 0.4880312652662433 0.5280898876404494
0.25194721500020023 0.48998534440644836 0.5232046897899365
0.2521336549998523 0.48900830483634583 0.5212506106497312
0.25232076100019185 0.49975574010747437 0.512457254518808
0.25250746100027754 0.4978016609672691 0.49975574010747437
0.2526939009999296 0.4978016609672691 0.49682462139716654
0.2528803410000364 0.4978016609672691 0.4929164631167562
0.25306768800010104 0.49193942354665365 0.49193942354665365
0.2532623130000502 0.4938935026868587 0.49877870053737183
0.253463290000127 0.5007327796775769 0.5036638983878847
0.25365835899992817 0.49877870053737183 0.5026868588177822
0.25384776200007764 0.4938935026868587 0.5017098192476794
0.2540357210000366 0.49682462139716654 0.5007327796775769
0.254223309000281 0.5017098192476794 0.49877870053737183
0.2544101930002398 0.49975574010747437 0.4929164631167562
0.2545974849999766 0.4978016609672691 0.49193942354665365
0.25478435100012575 0.5017098192476794 0.486077186126038
0.25497162400006346 0.5017098192476794 0.48216902784562765
0.2551591199999166 0.49975574010747437 0.47435271128480694
0.25536874499994155 0.5017098192476794 0.4665363947239862
0.25556137000012313 0.49877870053737183 0.45676599902296044
0.255749625000135 0.49975574010747437 0.4430874450415241
0.25593663900008323 0.49682462139716654 0.42159257449926724
0.25612307900019005 0.495847581827064 0.41182217879824123
0.2563097590000325 0.495847581827064 0.39716658524670256
0.25649727400013944 0.495847581827064 0.3952125061064973
0.25668408399997134 0.4938935026868587 0.39228138739618945
0.2568714130002263 0.4831460674157304 0.3932584269662922
0.2570592970000689 0.4880312652662433 0.4049829018075233
0.2572463850001441 0.4811919882755251 0.4108451392281387
0.2574604169999475 0.4880312652662433 0.41475329750854906
0.25765552400025626 0.48900830483634583 0.42745481191988266
0.2578660190001756 0.4880312652662433 0.43722520762090866
0.25807601399992564 0.4948705422569615 0.4557889594528579
0.2582629910002652 0.49193942354665365 0.46165119687347334
0.2584502459999385 0.495847581827064 0.47142159257449934
0.2586371299998973 0.495847581827064 0.48900830483634583
0.2588239040001099 0.495847581827064 0.49877870053737183
0.25901036200002636 0.495847581827064 0.5163654127992183
0.2591996730002393 0.49975574010747437 0.5280898876404494
0.25938805700025114 0.4948705422569615 0.5359062042012701
0.2595750149998821 0.49682462139716654 0.5427454811919883
0.2597615670001687 0.495847581827064 0.5486077186126037
0.25999826499992196 0.495847581827064 0.5476306790425012
0.2601866859999973 0.495847581827064 0.5476306790425012
0.2603738110001359 0.5007327796775769 0.5437225207620908
0.2605619740002112 0.4938935026868587 0.5349291646311676
0.2607491359999585 0.4909623839765511 0.524181729360039
0.26093548300013936 0.4929164631167562 0.5192965315095261
0.2611224970000876 0.48900830483634583 0.5095261358085001
0.26134336199993413 0.49193942354665365 0.5056179775280898
0.26153237700009413 0.48412310698583294 0.49877870053737183
0.2617199280002751 0.4909623839765511 0.5007327796775769
0.2619074970002657 0.486077186126038 0.5026868588177822
0.26209438200021395 0.4851001465559355 0.4938935026868587
0.26228397000022596 0.4909623839765511 0.4831460674157304
0.2624705769999309 0.4831460674157304 0.4831460674157304
0.26265736799996375 0.48412310698583294 0.4851001465559355
0.2628442340001129 0.47923790913532005 0.48216902784562765
0.26303106300019863 0.4831460674157304 0.48412310698583294
0.2632183549999354 0.48216902784562765 0.4938935026868587
0.26340486900016913 0.4831460674157304 0.48998534440644836
0.2635916610001914 0.4831460674157304 0.486077186126038
0.26377878599987525 0.4880312652662433 0.48705422569614076
0.26399448500023937 0.48412310698583294 0.4880312652662433
0.2641827950001243 0.4831460674157304 0.48900830483634583
0.26436995799986107 0.486077186126038 0.49193942354665365
0.2645571010002641 0.486077186126038 0.49193942354665365
0.2647440410000854 0.48900830483634583 0.4938935026868587
0.26493105500003367 0.49193942354665365 0.4948705422569615
0.2651180140001088 0.4929164631167562 0.49682462139716654
0.2653183610000269 0.4948705422569615 0.49975574010747437
0.2655146160000186 0.4948705422569615 0.5017098192476794
0.26573670300012964 0.4948705422569615 0.5046409379579873
0.2659246980001626 0.4929164631167562 0.5046409379579873
0.26611149000018486 0.48900830483634583 0.5046409379579873
0.2662985229999322 0.4909623839765511 0.5046409379579873
0.2664858699999968 0.48998534440644836 0.5046409379579873
0.26667268100027286 0.4909623839765511 0.5046409379579873
0.2668592129998615 0.48705422569614076 0.5085490962383976
0.2670455239999683 0.4851001465559355 0.5056179775280898
0.26723285300022326 0.48412310698583294 0.5114802149487054
0.26742027399996005 0.4831460674157304 0.5036638983878847
0.26760680699999284 0.48412310698583294 0.4978016609672691
0.2677930620002371 0.47728382999511476 0.4880312652662433
0.26797974200007957 0.47728382999511476 0.4851001465559355
0.26816649700003836 0.47728382999511476 0.4802149487054226
0.2683534369998597 0.47728382999511476 0.47923790913532005
0.26854017400000885 0.4782608695652173 0.4851001465559355
0.26872707700022147 0.4802149487054226 0.4880312652662433
0.26891383100019084 0.4811919882755251 0.49975574010747437
0.26910092000025543 0.4851001465559355 0.5036638983878847
0.26928722999991805 0.4831460674157304 0.5007327796775769
0.2694924100001117 0.4880312652662433 0.5036638983878847
0.2696799430000283 0.48900830483634583 0.5046409379579873
0.26986769799987087 0.4948705422569615 0.5007327796775769
0.27005508199999895 0.4929164631167562 0.5036638983878847
0.27024293000022226 0.4929164631167562 0.5095261358085001
0.27042990700010705 0.49877870053737183 0.5036638983878847
0.2706166060002033 0.4929164631167562 0.5046409379579873
0.27080362000015157 0.4929164631167562 0.4948705422569615
0.27099039299992 0.4929164631167562 0.5007327796775769
0.27117688899988934 0.4978016609672691 0.5026868588177822
0.2713639960002183 0.48998534440644836 0.5036638983878847
0.27155095400030405 0.4909623839765511 0.49682462139716654
0.2717385609998928 0.4938935026868587 0.495847581827064
0.2719254080002429 0.486077186126038 0.4948705422569615
0.2721126629999162 0.48705422569614076 0.4978016609672691
0.27229925100027685 0.48412310698583294 0.495847581827064
0.2724872100002358 0.48216902784562765 0.5026868588177822
0.27268613100022776 0.4831460674157304 0.495847581827064
0.27287812600025063 0.48900830483634583 0.5036638983878847
0.27310469500025647 0.4851001465559355 0.4948705422569615
0.27334176400017896 0.48900830483634583 0.49975574010747437
0.27357823900001677 0.4880312652662433 0.495847581827064
0.27377384600004007 0.4948705422569615 0.49682462139716654
0.27397417500014853 0.49193942354665365 0.49193942354665365
0.27416981800024587 0.49193942354665365 0.4929164631167562
0.27436396200027957 0.495847581827064 0.4880312652662433
0.27456084599998576 0.49682462139716654 0.486077186126038
0.2747699520000424 0.5017098192476794 0.486077186126038
0.2749812430001839 0.5046409379579873 0.4782608695652173
0.27519923799991375 0.5163654127992183 0.4733756717147044
0.27542354800016255 0.5114802149487054 0.47728382999511476
0.2756451720001678 0.5134342940889105 0.4763067904250122
0.2758575739999287 0.5114802149487054 0.4763067904250122
0.276073032000113 0.5114802149487054 0.48216902784562765
0.2763745070001278 0.5134342940889105 0.4929164631167562
0.27657301999988704 0.5085490962383976 0.48705422569614076
0.27681214399990495 0.5065950170981925 0.4831460674157304
0.27700528800005486 0.5007327796775769 0.49193942354665365
0.27720065399989835 0.5056179775280898 0.4851001465559355
0.2774727209998673 0.49682462139716654 0.4763067904250122
0.27791637800009994 0.4880312652662433 0.467513434294089
0.27823487000023306 0.486077186126038 0.46165119687347334
0.2784933269999783 0.49193942354665365 0.46262823644357587
0.2787306170002921 0.48705422569614076 0.46165119687347334
0.2790087590001349 0.4880312652662433 0.4636052760136786
0.27924384600009944 0.48412310698583294 0.4811919882755251
0.2794812480001383 0.48412310698583294 0.4802149487054226
0.27972387199997684 0.47923790913532005 0.4851001465559355
0.27995236600008866 0.4763067904250122 0.486077186126038
0.28016062100005 0.4763067904250122 0.48900830483634583
0.2803622460000952 0.4802149487054226 0.48998534440644836
0.2805631109999922 0.4704445530043966 0.4938935026868587
0.28077447700025004 0.4782608695652173 0.4851001465559355
0.28097375000015745 0.46946751343429405 0.4880312652662433
0.2811741710002025 0.4733756717147044 0.4782608695652173
0.2813811840001108 0.4763067904250122 0.48412310698583294
0.2815788090001661 0.47728382999511476 0.4811919882755251
0.2817710829999669 0.4811919882755251 0.4938935026868587
0.28197541100007584 0.4831460674157304 0.48412310698583294
0.2821751659998881 0.4909623839765511 0.48705422569614076
0.28245628900003794 0.4929164631167562 0.4909623839765511
0.28266748700025346 0.4880312652662433 0.49193942354665365
0.2828961300001538 0.49682462139716654 0.4938935026868587
0.28312975400012874 0.49193942354665365 0.48412310698583294
0.2834139139999934 0.49193942354665365 0.48705422569614076
0.2836048909998681 0.4909623839765511 0.4880312652662433
0.28379544200015516 0.49193942354665365 0.4909623839765511
0.2839840669998921 0.48900830483634583 0.49193942354665365
0.2841741370002637 0.4929164631167562 0.49975574010747437
0.28436281699987376 0.4938935026868587 0.5105031753786029
0.28455742400001327 0.4880312652662433 0.5017098192476794
0.2847577709999314 0.4938935026868587 0.5163654127992183
0.2849553589999232 0.4929164631167562 0.5153883732291158
0.2851553730001797 0.4851001465559355 0.5134342940889105
0.28537327499998355 0.48705422569614076 0.5173424523693209
0.2855743439999969 0.4831460674157304 0.5173424523693209
0.2858527819998926 0.4811919882755251 0.5183194919394236
0.28605681399994864 0.48216902784562765 0.5144113336590133
0.2862557910002579 0.47923790913532005 0.5134342940889105
0.2864539900001546 0.4782608695652173 0.5017098192476794
0.2866642439998941 0.4831460674157304 0.5026868588177822
0.286887943000238 0.48412310698583294 0.4978016609672691
0.28710386400007337 0.4831460674157304 0.5036638983878847
0.2873236180003005 0.48412310698583294 0.49682462139716654
0.28754253800025253 0.495847581827064 0.49682462139716654
0.28776932900018437 0.49193942354665365 0.5007327796775769
0.28799849100005304 0.4909623839765511 0.49682462139716654
0.2882043560002785 0.4929164631167562 0.49682462139716654
0.2884302209999987 0.4929164631167562 0.5026868588177822
0.28864034600019295 0.4948705422569615 0.49975574010747437
0.2888444889999846 0.4929164631167562 0.5036638983878847
0.2890693360000114 0.486077186126038 0.5134342940889105
0.28941779000024326 0.4811919882755251 0.5036638983878847
0.289646785000059 0.48216902784562765 0.5065950170981925
0.28986989099985294 0.4811919882755251 0.49877870053737183
0.29010340400009227 0.47728382999511476 0.5007327796775769
0.2903324170001724 0.4811919882755251 0.5007327796775769
0.29054867100012416 0.4802149487054226 0.4938935026868587
0.2908595530002458 0.4851001465559355 0.49682462139716654
0.2911062690000108 0.4909623839765511 0.49975574010747437
0.29188476900026217 0.4880312652662433 0.495847581827064
0.29224605700028405 0.49193942354665365 0.5046409379579873
0.2924767919998885 0.4948705422569615 0.49682462139716654
0.29266745399991123 0.4929164631167562 0.48705422569614076
0.29285613499996543 0.4978016609672691 0.4851001465559355
0.29304626000021017 0.49682462139716654 0.48216902784562765
0.29334260499990705 0.5036638983878847 0.48705422569614076
0.2935700990001351 0.5036638983878847 0.4802149487054226
0.2937592990001576 0.4978016609672691 0.4802149487054226
0.29394623899997896 0.49975574010747437 0.4811919882755251
0.29413362300010704 0.5007327796775769 0.4782608695652173
0.2943217669999285 0.495847581827064 0.4753297508549097
0.29450965100022586 0.49975574010747437 0.4704445530043966
0.2946974249998675 0.5007327796775769 0.4684904738641915
0.29488793900009114 0.5065950170981925 0.46165119687347334
0.29507476800017685 0.5026868588177822 0.46262823644357587
0.29526402200008306 0.49975574010747437 0.46165119687347334
0.29545072200016875 0.5026868588177822 0.4636052760136786
0.295638179999969 0.5017098192476794 0.4684904738641915
0.2958250090000547 0.5026868588177822 0.4763067904250122
0.2960114679999606 0.5046409379579873 0.47142159257449934
0.296199278000131 0.4978016609672691 0.4802149487054226
0.29638707000003706 0.49877870053737183 0.4733756717147044
0.2965744729999642 0.49877870053737183 0.4704445530043966
0.29676117200006047 0.5026868588177822 0.46946751343429405
0.2969481119998818 0.5017098192476794 0.47435271128480694
0.2971345519999886 0.5007327796775769 0.46458231558378116
0.29733343599991713 0.5026868588177822 0.46946751343429405
0.2975228390000666 0.5007327796775769 0.4704445530043966
0.29771233500014205 0.49975574010747437 0.4753297508549097
0.29790546000003815 0.5026868588177822 0.4753297508549097
0.29809319600008166 0.495847581827064 0.4763067904250122
0.2982805430001463 0.48900830483634583 0.47923790913532005
0.2984679840001263 0.48900830483634583 0.48900830483634583
0.29865527499987365 0.48900830483634583 0.4909623839765511
0.29884288199991715 0.48998534440644836 0.4938935026868587
0.2990296920002038 0.4929164631167562 0.5036638983878847
0.2992161510001097 0.495847581827064 0.5017098192476794
0.2994034240000474 0.49193942354665365 0.5046409379579873
0.29959062400030234 0.4909623839765511 0.5046409379579873
0.29977711900028226 0.495847581827064 0.5017098192476794
0.2999645220002094 0.48998534440644836 0.5017098192476794
0.3001518880000731 0.4938935026868587 0.5075720566682951
0.3003383099999155 0.4909623839765511 0.5046409379579873
0.3005250830001387 0.48998534440644836 0.5056179775280898
0.3007120790002773 0.4909623839765511 0.5114802149487054
0.30089885200004574 0.4909623839765511 0.5183194919394236
0.30108636600016325 0.4909623839765511 0.5075720566682951
0.3012742320001962 0.4909623839765511 0.5065950170981925
0.3015037630002553 0.4880312652662433 0.5065950170981925
0.30169090700019296 0.4851001465559355 0.49975574010747437
0.3018775320001623 0.48998534440644836 0.495847581827064
0.30206419500018455 0.48705422569614076 0.49193942354665365
0.30225131999986843 0.4831460674157304 0.486077186126038
0.3024378899999647 0.48216902784562765 0.48705422569614076
0.30262425499995516 0.4851001465559355 0.4831460674157304
0.3028115100000832 0.48412310698583294 0.4851001465559355
0.30299772800026403 0.48412310698583294 0.48216902784562765
0.30318459399995845 0.48705422569614076 0.48216902784562765
0.3033989220002695 0.48216902784562765 0.4831460674157304
0.30358864000027097 0.48412310698583294 0.47923790913532005
0.30383663400016303 0.48705422569614076 0.48216902784562765
0.30409335000013016 0.4909623839765511 0.48412310698583294
0.30428801200014277 0.486077186126038 0.48216902784562765
0.30447632300001715 0.49193942354665365 0.49193942354665365
0.30466350300002887 0.48998534440644836 0.486077186126038
0.30485088800014637 0.49193942354665365 0.48900830483634583
0.3050379950000206 0.48998534440644836 0.48998534440644836
0.30522632300016994 0.49193942354665365 0.49877870053737183
0.3054277080000247 0.4929164631167562 0.5026868588177822
0.30561635100002604 0.4909623839765511 0.5046409379579873
0.30580618000021786 0.49193942354665365 0.5046409379579873
0.30600363800022023 0.4909623839765511 0.5144113336590133
0.30619907800019064 0.4880312652662433 0.5056179775280898
0.30639186999997037 0.4880312652662433 0.512457254518808
0.30658555099989826 0.48705422569614076 0.512457254518808
0.30678000900024927 0.48998534440644836 0.5153883732291158
0.3069741150002301 0.486077186126038 0.5144113336590133
0.3071675179999147 0.486077186126038 0.5251587689301416
0.3073690690002877 0.486077186126038 0.533952125061065
0.30756321299986666 0.4880312652662433 0.5290669272105519
0.3077606890001334 0.48412310698583294 0.5310210063507572
0.3079567400000087 0.4880312652662433 0.5329750854909623
0.30815371700009564 0.48412310698583294 0.5349291646311676
0.3083749339998576 0.486077186126038 0.5319980459208598
0.30859809499997937 0.4938935026868587 0.5280898876404494
0.30882009000015387 0.486077186126038 0.5261358085002443
0.30904325200026506 0.48998534440644836 0.522227650219834
0.3092476910001096 0.48705422569614076 0.512457254518808
0.3094705560001785 0.49682462139716654 0.512457254518808
0.30967464400009703 0.49682462139716654 0.49682462139716654
0.3099326189999374 0.4929164631167562 0.48412310698583294
0.31038877499986484 0.4938935026868587 0.47923790913532005
0.31066762099999323 0.4948705422569615 0.4753297508549097
0.3109044850002647 0.4929164631167562 0.46946751343429405
0.3117449280002802 0.49193942354665365 0.4587200781631655
0.31201133000013215 0.4938935026868587 0.4606741573033708
0.31221923200018864 0.4929164631167562 0.457743038593063
0.3124273200000971 0.49193942354665365 0.45676599902296044
0.312628573999973 0.49682462139716654 0.4528578407425501
0.3128265509999437 0.49975574010747437 0.45188080117244755
0.3130457860002025 0.5017098192476794 0.467513434294089
0.3132526889999099 0.495847581827064 0.4636052760136786
0.31352725700025985 0.49682462139716654 0.46946751343429405
0.31376021400001264 0.4929164631167562 0.4763067904250122
0.3139908379998815 0.4948705422569615 0.48900830483634583
0.3143460710002728 0.495847581827064 0.49877870053737183
0.3145946200002072 0.4929164631167562 0.5046409379579873
0.3148299849999603 0.4929164631167562 0.5065950170981925
0.3151344779998908 0.49193942354665365 0.5085490962383976
0.3153440840001167 0.4929164631167562 0.5163654127992183
0.3155401899998651 0.49193942354665365 0.5114802149487054
0.3157387969999945 0.5026868588177822 0.5085490962383976
0.3159277180002391 0.4909623839765511 0.5046409379579873
0.3161186209999869 0.48998534440644836 0.5017098192476794
0.3163066910001362 0.4948705422569615 0.5046409379579873
0.31649387200013734 0.49193942354665365 0.49975574010747437
0.3166813490001914 0.4978016609672691 0.4948705422569615
0.3168685290002031 0.48705422569614076 0.4978016609672691
0.31705574700026773 0.48705422569614076 0.48900830483634583
0.31724268700008906 0.48412310698583294 0.486077186126038
0.31745355300017764 0.4831460674157304 0.4831460674157304
0.3176401589998932 0.48216902784562765 0.4802149487054226
0.3178271179999683 0.4909623839765511 0.4831460674157304
0.3180139099999906 0.48216902784562765 0.4763067904250122
0.31820077600013974 0.48705422569614076 0.4753297508549097
0.3184210849999545 0.4880312652662433 0.4733756717147044
0.31861109900000883 0.48900830483634583 0.4733756717147044
0.3187993169999572 0.4929164631167562 0.4733756717147044
0.31898710899986327 0.48998534440644836 0.48216902784562765
0.3191749930001606 0.4938935026868587 0.48900830483634583
0.31936146999987614 0.4929164631167562 0.4811919882755251
0.3195482810001522 0.486077186126038 0.4909623839765511
0.31977475700023206 0.4831460674157304 0.4948705422569615
0.3199733629999173 0.47923790913532005 0.49682462139716654
0.32016061800004536 0.4782608695652173 0.4938935026868587
0.3203471689998878 0.4763067904250122 0.4909623839765511
0.32053425699996296 0.47435271128480694 0.48705422569614076
0.3207206970000698 0.47728382999511476 0.4880312652662433
0.32090756300021894 0.4831460674157304 0.49193942354665365
0.32109528099999807 0.4831460674157304 0.4880312652662433
0.32128644300019005 0.4811919882755251 0.4909623839765511
0.32149804900018353 0.48216902784562765 0.5017098192476794
0.3216850260000683 0.4851001465559355 0.5026868588177822
0.3218716700002915 0.486077186126038 0.5085490962383976
0.3220593880000706 0.4831460674157304 0.5144113336590133
0.3222462720000294 0.48216902784562765 0.5153883732291158
0.3224352860002 0.4802149487054226 0.5173424523693209
0.32262194900022223 0.4851001465559355 0.512457254518808
0.3228087960001176 0.4880312652662433 0.5075720566682951
0.3230010319998655 0.4880312652662433 0.5007327796775769
0.3231893610000043 0.486077186126038 0.4929164631167562
0.3233768569998574 0.4929164631167562 0.49682462139716654
0.32356366700014405 0.49682462139716654 0.4929164631167562
0.32375110700013465 0.4978016609672691 0.48900830483634583
0.32393795500001943 0.49682462139716654 0.4811919882755251
0.3241361909999796 0.5065950170981925 0.4831460674157304
0.3245883839999806 0.49975574010747437 0.4782608695652173
0.3248376550000103 0.4978016609672691 0.47728382999511476
0.32505028000014136 0.49975574010747437 0.46946751343429405
0.32524442400017506 0.49975574010747437 0.4655593551538837
0.3254577329998938 0.4948705422569615 0.46165119687347334
0.3256471180002336 0.48998534440644836 0.46165119687347334
0.3258340020001924 0.49193942354665365 0.46458231558378116
0.3260212390000561 0.495847581827064 0.467513434294089
0.3262084190000678 0.48705422569614076 0.4655593551538837
0.32639508200009004 0.4851001465559355 0.46946751343429405
0.3265822990001652 0.48705422569614076 0.4733756717147044
0.32677318400010336 0.48900830483634583 0.4753297508549097
0.3269602720001785 0.486077186126038 0.47435271128480694
0.3271463040000526 0.48705422569614076 0.47923790913532005
0.3273329300000114 0.4831460674157304 0.48900830483634583
0.32751957300024515 0.48900830483634583 0.4909623839765511
0.327706568999929 0.4851001465559355 0.48900830483634583
0.3278935090002051 0.4811919882755251 0.4909623839765511
0.32808137500023804 0.47923790913532005 0.4948705422569615
0.32826999999997497 0.4851001465559355 0.49877870053737183
0.32848629099999016 0.48216902784562765 0.5007327796775769
0.3286748240002453 0.4851001465559355 0.5105031753786029
0.3288619310001195 0.4811919882755251 0.5046409379579873
0.32904916699999376 0.4782608695652173 0.5075720566682951
0.3292700130000412 0.48216902784562765 0.5114802149487054
0.32946328700018057 0.4811919882755251 0.5134342940889105
0.32965109699989625 0.486077186126038 0.5144113336590133
0.3298384069998974 0.4831460674157304 0.5153883732291158
0.3300255700000889 0.4831460674157304 0.5153883732291158
0.3302124360002381 0.4831460674157304 0.5144113336590133
0.33040013500021814 0.486077186126038 0.5105031753786029
0.3305872420000924 0.486077186126038 0.5075720566682951
0.330781718000253 0.4880312652662433 0.5065950170981925
0.3309688439999263 0.48705422569614076 0.5026868588177822
0.3311561350001284 0.48900830483634583 0.5026868588177822
0.3313444460000028 0.4929164631167562 0.5046409379579873
0.3315326269998877 0.4978016609672691 0.5036638983878847
0.33171953000010035 0.5065950170981925 0.49877870053737183
0.3319059139998899 0.5046409379579873 0.49682462139716654
0.3320940580001661 0.5085490962383976 0.4938935026868587
0.33228077600006145 0.5085490962383976 0.4880312652662433
0.3324686969999675 0.5105031753786029 0.48705422569614076
0.3326553960000638 0.5065950170981925 0.48412310698583294
0.3328428360000544 0.5046409379579873 0.486077186126038
0.3330304609999075 0.5036638983878847 0.4880312652662433
0.33321695699987686 0.5036638983878847 0.48998534440644836
0.3334198779998587 0.5036638983878847 0.49682462139716654
0.33360722599991277 0.5007327796775769 0.4948705422569615
0.3338167390002127 0.49193942354665365 0.4929164631167562
0.33400736400017195 0.495847581827064 0.4909623839765511
0.33419558200012034 0.48900830483634583 0.48900830483634583
0.3343825410001955 0.49682462139716654 0.48900830483634583
0.33456990600006975 0.49193942354665365 0.486077186126038
0.3347571429999334 0.49877870053737183 0.4851001465559355
0.3349440090000826 0.4948705422569615 0.48412310698583294
0.3351309489999039 0.4948705422569615 0.4831460674157304
0.3353180550002435 0.4909623839765511 0.4811919882755251
0.33550512500005425 0.49682462139716654 0.48900830483634583
0.33569234300011885 0.4909623839765511 0.4811919882755251
0.3358788200002891 0.48900830483634583 0.4802149487054226
0.3360658900000999 0.48705422569614076 0.47923790913532005
0.33625334799990014 0.48216902784562765 0.4782608695652173
0.33646080600010464 0.4831460674157304 0.47728382999511476
0.33666739399996004 0.48216902784562765 0.4733756717147044
0.3368703890000688 0.48998534440644836 0.4704445530043966
0.3370604589999857 0.48412310698583294 0.46946751343429405
0.3372478989999763 0.48705422569614076 0.4655593551538837
0.3374443570000949 0.4851001465559355 0.4636052760136786
0.33763166700009606 0.4851001465559355 0.4733756717147044
0.3378185330002452 0.49193942354665365 0.47239863214460187
0.33800517700001365 0.49193942354665365 0.4753297508549097
0.3381921360000888 0.49193942354665365 0.4763067904250122
0.33838405699998475 0.4938935026868587 0.4802149487054226
0.3385707930001445 0.49682462139716654 0.4831460674157304
0.33875804800027254 0.4929164631167562 0.48900830483634583
0.3389451729999564 0.48998534440644836 0.4909623839765511
0.33913352099989424 0.49193942354665365 0.49975574010747437
0.3393253489998642 0.4938935026868587 0.495847581827064
0.3395309370002906 0.49193942354665365 0.4929164631167562
0.3397333580001032 0.4909623839765511 0.495847581827064
0.3399268719999782 0.4929164631167562 0.49193942354665365
0.34012279399985346 0.495847581827064 0.49975574010747437
0.3403199740000673 0.49682462139716654 0.48998534440644836
0.3405186360000698 0.5026868588177822 0.4938935026868587
0.34072327900003074 0.495847581827064 0.49682462139716654
0.3409391999998661 0.4909623839765511 0.49682462139716654
0.34118984199994884 0.4929164631167562 0.5046409379579873
0.34155874099997163 0.48900830483634583 0.5114802149487054
0.34181203100024504 0.4909623839765511 0.5163654127992183
0.34203667400015547 0.4909623839765511 0.512457254518808
0.34224544700009574 0.486077186126038 0.5095261358085001
0.3424454420000984 0.4929164631167562 0.5144113336590133
0.3426450490001116 0.4831460674157304 0.5075720566682951
0.3428458220000721 0.4880312652662433 0.5095261358085001
0.34305533499991725 0.4880312652662433 0.5036638983878847
0.34358408200023405 0.4753297508549097 0.49877870053737183
0.3439009819999228 0.4753297508549097 0.5007327796775769
0.3441456800001106 0.47239863214460187 0.4948705422569615
0.3445770950002043 0.47728382999511476 0.495847581827064
0.3449224209998647 0.4763067904250122 0.49877870053737183
0.34518902499985415 0.47923790913532005 0.49877870053737183
0.3454253720001361 0.4851001465559355 0.4948705422569615
0.34562077400005364 0.48216902784562765 0.49877870053737183
0.34599696900022536 0.48705422569614076 0.49877870053737183
0.3462482039999486 0.4880312652662433 0.49877870053737183
0.3464376440001615 0.486077186126038 0.49975574010747437
0.34662519499988775 0.48900830483634583 0.5026868588177822
0.34681411700012177 0.4880312652662433 0.4948705422569615
0.34700148299998546 0.48705422569614076 0.4938935026868587
0.3471910520001984 0.48998534440644836 0.4929164631167562
0.34737760300004084 0.4880312652662433 0.4909623839765511
0.3476153750002595 0.48998534440644836 0.49193942354665365
0.3478063709999333 0.4909623839765511 0.4929164631167562
0.3479944959999557 0.4880312652662433 0.49682462139716654
0.34818197300000975 0.4880312652662433 0.49975574010747437
0.34836919100007435 0.49682462139716654 0.495847581827064
0.34855633500001204 0.48900830483634583 0.4978016609672691
0.34874305199991795 0.48998534440644836 0.5017098192476794
0.3489306960000249 0.495847581827064 0.49682462139716654
0.3491175250001106 0.4948705422569615 0.495847581827064
0.3493539270002657 0.4948705422569615 0.4909623839765511
0.3495501630000035 0.49682462139716654 0.49193942354665365
0.34973784400017394 0.495847581827064 0.4880312652662433
0.34992550600009054 0.4938935026868587 0.48998534440644836
0.3501125380003032 0.4929164631167562 0.48998534440644836
0.350301866999871 0.495847581827064 0.49975574010747437
0.3504889370001365 0.4929164631167562 0.495847581827064
0.3506762100000742 0.49193942354665365 0.49877870053737183
0.35086402100023406 0.4929164631167562 0.4978016609672691
0.35106840500020553 0.49193942354665365 0.49877870053737183
0.351256234000175 0.4929164631167562 0.49682462139716654
0.35144378499990125 0.4929164631167562 0.4938935026868587
0.35163039100007154 0.4948705422569615 0.495847581827064
0.3518168870000409 0.49682462139716654 0.4938935026868587
0.3520037160001266 0.495847581827064 0.48998534440644836
0.35219056300002194 0.49975574010747437 0.49193942354665365
0.3523779659999491 0.4938935026868587 0.4880312652662433
0.3525653510000666 0.4938935026868587 0.4851001465559355
0.35275275399999373 0.495847581827064 0.4880312652662433
0.3529398420000689 0.49193942354665365 0.4831460674157304
0.35312633800003823 0.4909623839765511 0.47728382999511476
0.35332466599993495 0.48900830483634583 0.4802149487054226
0.3535130139998728 0.48900830483634583 0.4753297508549097
0.3537004170002547 0.48900830483634583 0.467513434294089
0.35388737499988565 0.4909623839765511 0.4655593551538837
0.35407498199992915 0.4909623839765511 0.4636052760136786
0.3542628479999621 0.49193942354665365 0.4587200781631655
0.354463657999986 0.48900830483634583 0.45676599902296044
0.354651116000241 0.4938935026868587 0.4665363947239862
0.35483813000018927 0.4929164631167562 0.4606741573033708
0.3550251259998731 0.49193942354665365 0.4636052760136786
0.3552123620002021 0.48998534440644836 0.46262823644357587
0.3553995800002667 0.48998534440644836 0.46946751343429405
0.355588852999972 0.4909623839765511 0.4753297508549097
0.3557833119998577 0.4880312652662433 0.48412310698583294
0.35597041800019724 0.48900830483634583 0.49682462139716654
0.3561573770002724 0.49193942354665365 0.49975574010747437
0.3563438539999879 0.48900830483634583 0.5036638983878847
0.3565310720000525 0.49682462139716654 0.5144113336590133
0.3567183820000537 0.4929164631167562 0.5134342940889105
0.3569258769998669 0.4948705422569615 0.5144113336590133
0.3571136129999104 0.4948705422569615 0.5153883732291158
0.3573111460000291 0.495847581827064 0.5134342940889105
0.3575016409999989 0.4948705422569615 0.512457254518808
0.3576888410002539 0.4929164631167562 0.5114802149487054
0.35787598400020215 0.4938935026868587 0.5144113336590133
0.35806616499985466 0.49193942354665365 0.5075720566682951
0.3584604699999545 0.5007327796775769 0.5105031753786029
0.35866850299998987 0.5007327796775769 0.512457254518808
0.3588924420000694 0.49877870053737183 0.5183194919394236
0.3590845110002192 0.5056179775280898 0.5202735710796287
0.3592741180000303 0.495847581827064 0.5192965315095261
0.35946218700019017 0.5017098192476794 0.5251587689301416
0.3596500530002231 0.5007327796775769 0.524181729360039
0.35983727100028773 0.48900830483634583 0.522227650219834
0.3600253220001832 0.4948705422569615 0.522227650219834
0.3602129099999729 0.48705422569614076 0.5261358085002443
0.36040135000030205 0.486077186126038 0.5144113336590133
0.3605892529999437 0.486077186126038 0.5183194919394236
0.3607810819999031 0.4851001465559355 0.5085490962383976
0.36096816999997827 0.4831460674157304 0.5007327796775769
0.36115566600028615 0.4929164631167562 0.4948705422569615
0.36135345799993956 0.49193942354665365 0.4929164631167562
0.36154367500012086 0.4831460674157304 0.49682462139716654
0.3617312450001009 0.48705422569614076 0.49682462139716654
0.3619185370002924 0.48998534440644836 0.49682462139716654
0.3621054400000503 0.4851001465559355 0.4929164631167562
0.36229269500017836 0.48998534440644836 0.5036638983878847
0.36248589400020137 0.4851001465559355 0.49193942354665365
0.362673463000192 0.4851001465559355 0.48900830483634583
0.3629031989999021 0.48900830483634583 0.48705422569614076
0.36309050899990325 0.4948705422569615 0.48900830483634583
0.36327706000020044 0.48900830483634583 0.4948705422569615
0.36346538899988445 0.4909623839765511 0.4948705422569615
0.36365192199991725 0.49193942354665365 0.495847581827064
0.3638383990000875 0.4929164631167562 0.5007327796775769
0.36402563499996177 0.4978016609672691 0.5056179775280898
0.36421209399986765 0.49975574010747437 0.5105031753786029
0.3643988849999005 0.4978016609672691 0.5095261358085001
0.36458560300025056 0.4948705422569615 0.5085490962383976
0.36477217299989206 0.48998534440644836 0.5017098192476794
0.3649590569998509 0.4909623839765511 0.49975574010747437
0.36515016400016975 0.48998534440644836 0.495847581827064
0.3653418080002666 0.48900830483634583 0.49193942354665365
0.36552989600022556 0.486077186126038 0.48216902784562765
0.3657172799998989 0.48705422569614076 0.47728382999511476
0.3659044979999635 0.4880312652662433 0.4802149487054226
0.366092548999859 0.486077186126038 0.4782608695652173
0.36627982200025144 0.48705422569614076 0.486077186126038
0.3664672250001786 0.48705422569614076 0.47923790913532005
0.3666538140000739 0.4831460674157304 0.47923790913532005
0.36684093900021253 0.48900830483634583 0.4811919882755251
0.3670285270000022 0.48900830483634583 0.47923790913532005
0.36721680000027845 0.48998534440644836 0.47728382999511476
0.3674040360001527 0.49193942354665365 0.47239863214460187
0.3675911059999635 0.4929164631167562 0.4655593551538837
0.3677777679999963 0.4909623839765511 0.4557889594528579
0.3679649860000609 0.49193942354665365 0.45481191988275516
0.36815177800008314 0.4948705422569615 0.4450415241817294
0.3683390139999574 0.4948705422569615 0.44406448461162684
0.36852575100010654 0.4929164631167562 0.4460185637518319
0.36871365400020295 0.49682462139716654 0.44992672203224227
0.36890129699986574 0.4938935026868587 0.4528578407425501
0.3690952560000369 0.4938935026868587 0.46262823644357587
0.3693270090002443 0.4948705422569615 0.4655593551538837
0.36951948600017204 0.4948705422569615 0.467513434294089
0.3697177779999947 0.4909623839765511 0.4733756717147044
0.3699471800000538 0.4929164631167562 0.4763067904250122
0.37014758300028916 0.4938935026868587 0.47728382999511476
0.37033478200009995 0.4938935026868587 0.4782608695652173
0.370522574000006 0.49877870053737183 0.48900830483634583
0.3707101620002504 0.4948705422569615 0.4851001465559355
0.3709244720002971 0.49193942354665365 0.48412310698583294
0.371111375000055 0.495847581827064 0.49193942354665365
0.37129853700025706 0.49193942354665365 0.48705422569614076
0.3714875509999729 0.4929164631167562 0.48900830483634583
0.3716743800000586 0.4909623839765511 0.486077186126038
0.3718609679999645 0.4938935026868587 0.4880312652662433
0.37204761200018766 0.4938935026868587 0.4909623839765511
0.3722343110002839 0.4938935026868587 0.48900830483634583
0.37242227000024286 0.4929164631167562 0.4880312652662433
0.37263578300007794 0.48900830483634583 0.48998534440644836
0.3728270189999421 0.4929164631167562 0.4978016609672691
0.3730185520003033 0.4938935026868587 0.5075720566682951
0.37320758400028353 0.495847581827064 0.5192965315095261
0.3734528750001118 0.4909623839765511 0.5319980459208598
0.3736483520001457 0.49193942354665365 0.5329750854909623
0.37384029200029545 0.48900830483634583 0.5319980459208598
0.37403969400020287 0.4929164631167562 0.5271128480703469
0.3742475230001219 0.49193942354665365 0.5232046897899365
0.3744517770001039 0.4909623839765511 0.5202735710796287
0.37464780900018013 0.49682462139716654 0.522227650219834
0.3748438420002458 0.4938935026868587 0.512457254518808
0.37503913299997294 0.4909623839765511 0.5075720566682951
0.3752443880002829 0.48998534440644836 0.5046409379579873
0.37547945599999366 0.4909623839765511 0.5075720566682951
0.3757209509999484 0.48998534440644836 0.5075720566682951
0.37594603800016557 0.48900830483634583 0.5046409379579873
0.3761815689999821 0.4948705422569615 0.5017098192476794
0.37638056500009043 0.4909623839765511 0.5017098192476794
0.37657707900007154 0.4978016609672691 0.5017098192476794
0.3767768329998944 0.4929164631167562 0.4978016609672691
0.37698099499993987 0.5007327796775769 0.49682462139716654
0.3771757869999419 0.5017098192476794 0.49682462139716654
0.3773692260001553 0.5056179775280898 0.48998534440644836
0.3775597399999242 0.5036638983878847 0.4831460674157304
0.3777471990001686 0.5017098192476794 0.4831460674157304
0.37793408300012743 0.5017098192476794 0.47435271128480694
0.37812150499985364 0.5007327796775769 0.4733756717147044
0.3783085380000557 0.5026868588177822 0.47142159257449934
0.3784959220001838 0.5007327796775769 0.4684904738641915
0.3786833059998571 0.5085490962383976 0.45969711773326827
0.3788711910001439 0.49975574010747437 0.4606741573033708
0.3790582239998912 0.49877870053737183 0.44699560332193444
0.3792652189999899 0.4978016609672691 0.44894968246213973
0.3794531769999594 0.4948705422569615 0.441133365901319
0.3796422280001934 0.4929164631167562 0.4430874450415241
0.37982979800017347 0.4851001465559355 0.44406448461162684
0.3800165900001957 0.4851001465559355 0.4528578407425501
0.380203733000144 0.4802149487054226 0.45188080117244755
0.38038980300007097 0.4802149487054226 0.4636052760136786
0.3805765950000932 0.4782608695652173 0.4704445530043966
0.3807641460002742 0.4831460674157304 0.4811919882755251
0.3809502160002012 0.48216902784562765 0.4938935026868587
0.3811363220002022 0.4831460674157304 0.4929164631167562
0.3813272440002038 0.48216902784562765 0.49877870053737183
0.38151646200003597 0.48412310698583294 0.4978016609672691
0.38170958699993207 0.48998534440644836 0.5007327796775769
0.38189689699993323 0.4851001465559355 0.5007327796775769
0.38208363300009296 0.4880312652662433 0.5046409379579873
0.38227048099997774 0.48900830483634583 0.5036638983878847
0.38245790200016927 0.4929164631167562 0.5085490962383976
0.3826452309999695 0.49682462139716654 0.5114802149487054
0.38283372700016116 0.49877870053737183 0.5153883732291158
0.383020296000268 0.49877870053737183 0.5202735710796287
0.383206588000121 0.5017098192476794 0.5144113336590133
0.38339295400010087 0.4978016609672691 0.5173424523693209
0.38360817100010536 0.5007327796775769 0.5202735710796287
0.3837975740002548 0.5026868588177822 0.5114802149487054
0.3839845699999387 0.49975574010747437 0.5105031753786029
0.3841714170002888 0.49877870053737183 0.5095261358085001
0.38435802399999375 0.4978016609672691 0.5085490962383976
0.384545037999942 0.49877870053737183 0.5065950170981925
0.3847365520000494 0.4948705422569615 0.512457254518808
0.3849318249999669 0.49193942354665365 0.5056179775280898
0.38512717200001134 0.4929164631167562 0.5114802149487054
0.385353889000271 0.48705422569614076 0.5046409379579873
0.38557069900025454 0.48705422569614076 0.49877870053737183
0.38626329399994574 0.4782608695652173 0.4909623839765511
0.3867954480001572 0.4782608695652173 0.4929164631167562
0.38709327400010807 0.47728382999511476 0.48705422569614076
0.3872981580002488 0.4811919882755251 0.48705422569614076
0.3874957269999868 0.47142159257449934 0.486077186126038
0.38774670300017533 0.467513434294089 0.4909623839765511
0.3879669389998526 0.46458231558378116 0.49682462139716654
0.3881570640000973 0.46165119687347334 0.4909623839765511
0.3883445780002148 0.45969711773326827 0.48998534440644836
0.38856281300013507 0.4606741573033708 0.4880312652662433
0.3887499200000093 0.45969711773326827 0.4909623839765511
0.3889412859998629 0.46165119687347334 0.48998534440644836
0.3891293920000862 0.45969711773326827 0.495847581827064
0.3893548690002717 0.46458231558378116 0.4851001465559355
0.3895445309999559 0.46262823644357587 0.48412310698583294
0.3897324889999254 0.4665363947239862 0.48412310698583294
0.38991968900018037 0.47239863214460187 0.495847581827064
0.39010716600023443 0.48412310698583294 0.4909623839765511
0.3902936980002778 0.4763067904250122 0.495847581827064
0.3904801009998664 0.4811919882755251 0.49877870053737183
0.39066678200015303 0.48216902784562765 0.49877870053737183
0.3908544070000062 0.4802149487054226 0.5007327796775769
0.3911674370001492 0.4831460674157304 0.5036638983878847
0.39141976400014755 0.4831460674157304 0.49877870053737183
0.3916435740002271 0.486077186126038 0.49975574010747437
0.3918775500001175 0.48998534440644836 0.5026868588177822
0.39210471100022914 0.4938935026868587 0.495847581827064
0.3923386129999926 0.495847581827064 0.49682462139716654
0.3926953449999928 0.49975574010747437 0.49193942354665365
0.392995578999944 0.5026868588177822 0.48900830483634583
0.393347588999859 0.5056179775280898 0.48216902784562765
0.39363445200024216 0.5134342940889105 0.4831460674157304
0.3938621319998674 0.5085490962383976 0.47923790913532005
0.3940884050002751 0.5056179775280898 0.4880312652662433
0.39430332600022666 0.5007327796775769 0.48705422569614076
0.3945132459998604 0.5026868588177822 0.48900830483634583
0.3947114450002118 0.5017098192476794 0.4909623839765511
0.3949087370001507 0.5017098192476794 0.4938935026868587
0.3951103059998786 0.5065950170981925 0.49682462139716654
0.3953018020001764 0.5105031753786029 0.4978016609672691
0.39549016799992387 0.5202735710796287 0.495847581827064
0.3956773859999885 0.5144113336590133 0.49682462139716654
0.395899732000089 0.5163654127992183 0.5017098192476794
0.3961497260002034 0.5173424523693209 0.5007327796775769
0.3963393700000779 0.5173424523693209 0.5007327796775769
0.3965266620002694 0.5192965315095261 0.5105031753786029
0.3967134909999004 0.5183194919394236 0.5085490962383976
0.39690018999999666 0.512457254518808 0.5065950170981925
0.39708716699988145 0.5075720566682951 0.5056179775280898
0.39727394000010463 0.5017098192476794 0.5026868588177822
0.3974883979999504 0.5085490962383976 0.49975574010747437
0.39767587500000445 0.49877870053737183 0.49682462139716654
0.39788379599986 0.4978016609672691 0.4929164631167562
0.39807357000017873 0.48998534440644836 0.48998534440644836
0.39826015800008463 0.4880312652662433 0.4909623839765511
0.39844643100013855 0.4948705422569615 0.4880312652662433
0.39863379700000223 0.48900830483634583 0.48900830483634583
0.3988200520002465 0.4851001465559355 0.4938935026868587
0.3990069360002053 0.4851001465559355 0.4948705422569615
0.39919302499993137 0.4811919882755251 0.48998534440644836
0.3993796869999642 0.47923790913532005 0.4948705422569615
0.39956586800008154 0.4753297508549097 0.4851001465559355
0.3997524930000509 0.4684904738641915 0.4880312652662433
0.3999389139999039 0.47142159257449934 0.486077186126038
0.40012663200013776 0.47239863214460187 0.4763067904250122
0.4003136649998851 0.467513434294089 0.47239863214460187
0.40050134500006607 0.46458231558378116 0.4684904738641915
0.4006895450002048 0.46458231558378116 0.4733756717147044
0.40087653999989925 0.4655593551538837 0.47728382999511476
0.4010655360002602 0.4704445530043966 0.4831460674157304
0.4012529199999335 0.4704445530043966 0.48412310698583294
0.40144269400025223 0.4753297508549097 0.48705422569614076
0.40163055900029576 0.4753297508549097 0.49682462139716654
0.4018185180002547 0.47728382999511476 0.4978016609672691
0.40200551399993856 0.4811919882755251 0.49193942354665365
0.40220128700002533 0.47435271128480694 0.4938935026868587
0.40239241200015385 0.4733756717147044 0.4948705422569615
0.4025796480000281 0.47728382999511476 0.4938935026868587
0.4027666990000398 0.4763067904250122 0.4948705422569615
0.40295324999988225 0.4782608695652173 0.4978016609672691
0.40314024600002085 0.47923790913532005 0.49682462139716654
0.4033270380000431 0.48216902784562765 0.4938935026868587
0.40351358899988554 0.47923790913532005 0.49877870053737183
0.4037000660000558 0.47728382999511476 0.48900830483634583
0.4038870620001944 0.48412310698583294 0.4880312652662433
0.40407337199985705 0.48705422569614076 0.48705422569614076
0.4042617009999958 0.48412310698583294 0.48216902784562765
0.4044488630001979 0.4851001465559355 0.486077186126038
0.4046352109999134 0.4851001465559355 0.48705422569614076
0.40482155800009423 0.48216902784562765 0.4938935026868587
0.4050084049999896 0.4831460674157304 0.49877870053737183
0.40519482700028675 0.4831460674157304 0.49975574010747437
0.4054026920002798 0.4811919882755251 0.5017098192476794
0.40558891000000585 0.4851001465559355 0.5095261358085001
0.4057938500000091 0.4831460674157304 0.5095261358085001
0.40598856699989483 0.4811919882755251 0.5134342940889105
0.4061816550001822 0.4831460674157304 0.5134342940889105
0.4063737249998667 0.4831460674157304 0.512457254518808
0.4065683869998793 0.48216902784562765 0.5114802149487054
0.4067960850002237 0.4938935026868587 0.5144113336590133
0.4070057839999208 0.48412310698583294 0.5105031753786029
0.4072253899998941 0.48412310698583294 0.5056179775280898
0.40743512600010945 0.486077186126038 0.5065950170981925
0.4076276579999103 0.4831460674157304 0.5075720566682951
0.4078219130001344 0.48900830483634583 0.5046409379579873
0.4080175560002317 0.48998534440644836 0.5036638983878847
0.4082093850001911 0.4880312652662433 0.5065950170981925
0.40845678699997734 0.4909623839765511 0.5007327796775769
0.40869270700022753 0.4938935026868587 0.5017098192476794
0.4088993129998926 0.4909623839765511 0.5065950170981925
0.40909625299991603 0.49682462139716654 0.49975574010747437
0.4092915820001508 0.48705422569614076 0.49877870053737183
0.4095405570001276 0.4909623839765511 0.49193942354665365
0.4097373120002885 0.4938935026868587 0.4948705422569615
0.4099317519999204 0.4929164631167562 0.48900830483634583
0.4101260249999541 0.4938935026868587 0.48998534440644836
0.41032250199987175 0.4938935026868587 0.48900830483634583
0.41051564500003224 0.49682462139716654 0.4880312652662433
0.4107079559998965 0.49682462139716654 0.48216902784562765
0.4108994140001414 0.5007327796775769 0.4831460674157304
0.4110915209998893 0.495847581827064 0.46946751343429405
0.4112879230001454 0.49877870053737183 0.47142159257449934
0.4114986590002445 0.495847581827064 0.4733756717147044
0.4117129500000374 0.5026868588177822 0.4802149487054226
0.41190594599993346 0.49975574010747437 0.4802149487054226
0.41209523799989256 0.49682462139716654 0.4811919882755251
0.4122838809998939 0.4978016609672691 0.4831460674157304
0.4124712289999479 0.5017098192476794 0.4880312652662433
0.412658076000298 0.5007327796775769 0.48900830483634583
0.4128457570000137 0.5075720566682951 0.495847581827064
0.4130325119999725 0.5007327796775769 0.486077186126038
0.41322004399989964 0.5036638983878847 0.48900830483634583
0.41349233400023877 0.5046409379579873 0.4880312652662433
0.41370088500025304 0.5085490962383976 0.4909623839765511
0.41419659500024864 0.5046409379579873 0.4938935026868587
0.4144648850001431 0.5026868588177822 0.48998534440644836
0.41474313800017626 0.5007327796775769 0.49193942354665365
0.41499842800021725 0.49877870053737183 0.4938935026868587
0.4152309780001815 0.4938935026868587 0.4938935026868587
0.4154577510003037 0.495847581827064 0.4929164631167562
0.41567509700007577 0.49193942354665365 0.4909623839765511
0.4159098139998605 0.4909623839765511 0.4880312652662433
0.4161340119999295 0.4948705422569615 0.4929164631167562
0.4163256930000898 0.4938935026868587 0.48705422569614076
0.4165139110000382 0.4938935026868587 0.4880312652662433
0.4167012030002297 0.49682462139716654 0.4909623839765511
0.4168889200000194 0.49975574010747437 0.49193942354665365
0.41707597200002056 0.4938935026868587 0.49682462139716654
0.41726235600026484 0.4938935026868587 0.5007327796775769
0.41746140700024625 0.49877870053737183 0.5036638983878847
0.4176494950002052 0.49682462139716654 0.5056179775280898
