0 0.4851001465559355 0.5007327796775769
0.00032273199985866086 0.47923790913532005 0.5026868588177822
0.0005301159999362426 0.4831460674157304 0.5017098192476794
0.0007295179998436652 0.48216902784562765 0.5017098192476794
0.0009469749998061161 0.4811919882755251 0.5026868588177822
0.0011495439998725487 0.486077186126038 0.5105031753786029
0.0013434649999908288 0.48998534440644836 0.5036638983878847
0.0015317010002036113 0.486077186126038 0.5017098192476794
0.0017201219998241868 0.48900830483634583 0.49975574010747437
0.0019100429999525659 0.4880312652662433 0.5007327796775769
0.0021006679999118205 0.4880312652662433 0.49975574010747437
0.0022912559998076176 0.4880312652662433 0.49877870053737183
0.0024786580002000846 0.48900830483634583 0.4929164631167562
0.0026658759998099413 0.4929164631167562 0.49877870053737183
0.0028533149998111185 0.48998534440644836 0.4938935026868587
0.0030406810001295526 0.4909623839765511 0.4929164631167562
0.0032276390002152766 0.4909623839765511 0.4938935026868587
0.003417319000163843 0.48412310698583294 0.49682462139716654
0.0036084439998376183 0.4909623839765511 0.4978016609672691
0.0037956609999127977 0.49682462139716654 0.49682462139716654
0.003982489999998506 0.4909623839765511 0.49877870053737183
0.004169781000200601 0.486077186126038 0.5007327796775769
0.004357314000117185 0.495847581827064 0.49877870053737183
0.004545382999822323 0.48412310698583294 0.4978016609672691
0.004732582000087859 0.4851001465559355 0.49877870053737183
0.004919483999856311 0.4880312652662433 0.49877870053737183
0.005106145999889122 0.4782608695652173 0.49975574010747437
0.005293363999953726 0.4811919882755251 0.49682462139716654
0.005480284999975993 0.4880312652662433 0.49682462139716654
0.005666668999765534 0.48216902784562765 0.48998534440644836
0.005854035000083968 0.4831460674157304 0.49682462139716654
0.00604108500010625 0.48998534440644836 0.4929164631167562
0.006228043000191974 0.48412310698583294 0.48900830483634583
0.006418093999855046 0.486077186126038 0.4909623839765511
0.00660505199994077 0.48412310698583294 0.4880312652662433
0.006791566000174498 0.49682462139716654 0.486077186126038
0.006978468999932375 0.49193942354665365 0.48705422569614076
0.007164796999859391 0.4929164631167562 0.4880312652662433
0.007351404000019102 0.4938935026868587 0.486077186126038
0.007575841999823751 0.49193942354665365 0.4851001465559355
0.007763374000205658 0.4948705422569615 0.48705422569614076
0.007956424999974843 0.48998534440644836 0.4880312652662433
0.008145253999828128 0.48900830483634583 0.48900830483634583
0.008332323000104225 0.48998534440644836 0.48705422569614076
0.008519466000052489 0.48705422569614076 0.4880312652662433
0.008706368999810365 0.48705422569614076 0.4851001465559355
0.008894160000181728 0.486077186126038 0.4831460674157304
0.009081840999897395 0.48412310698583294 0.48412310698583294
0.009279447000153596 0.48900830483634583 0.4831460674157304
0.009468127000218374 0.4929164631167562 0.4851001465559355
0.009655769999881159 0.4948705422569615 0.48705422569614076
0.009843468999861216 0.5017098192476794 0.48216902784562765
0.010030908999851817 0.49877870053737183 0.48412310698583294
0.010218310999789537 0.49877870053737183 0.4831460674157304
0.010405510000055074 0.5026868588177822 0.4880312652662433
0.010592302000077325 0.5017098192476794 0.4880312652662433
0.010779333999835217 0.5036638983878847 0.486077186126038
0.010966162999920925 0.5017098192476794 0.4851001465559355
0.011153509999985545 0.49975574010747437 0.48216902784562765
0.011340263999954914 0.49975574010747437 0.4851001465559355
0.011528777999956219 0.495847581827064 0.48412310698583294
0.011718031999862433 0.4938935026868587 0.48412310698583294
0.011905398000180867 0.49193942354665365 0.4851001465559355
0.012092651999864756 0.486077186126038 0.4851001465559355
0.012282146999950783 0.4880312652662433 0.48900830483634583
0.01247043900002609 0.47923790913532005 0.48900830483634583
0.012658063999879232 0.47435271128480694 0.49682462139716654
0.01284563299986985 0.4831460674157304 0.4948705422569615
0.013032702000145946 0.4704445530043966 0.4938935026868587
0.013219623000168212 0.47142159257449934 0.49682462139716654
0.013406229999873176 0.46946751343429405 0.495847581827064
0.013593392000075255 0.47142159257449934 0.49877870053737183
0.013780515999769705 0.4763067904250122 0.4929164631167562
0.013967623000098683 0.47239863214460187 0.49682462139716654
0.014154451000194967 0.47435271128480694 0.4938935026868587
0.014341243000217219 0.47728382999511476 0.4938935026868587
0.014527459999953862 0.4831460674157304 0.49682462139716654
0.014716028999828268 0.4831460674157304 0.48900830483634583
0.014902820999850519 0.48998534440644836 0.4909623839765511
0.015089611999883346 0.48900830483634583 0.48900830483634583
0.015275718999873789 0.48998534440644836 0.4880312652662433
0.015479602000141313 0.49193942354665365 0.4909623839765511
0.015672153000195976 0.48998534440644836 0.486077186126038
0.015862704000028316 0.495847581827064 0.48412310698583294
0.016052458000103798 0.4948705422569615 0.4831460674157304
0.016242694000084157 0.4978016609672691 0.4831460674157304
0.016433632999905967 0.5065950170981925 0.4782608695652173
0.016623905999949784 0.5065950170981925 0.4802149487054226
0.01681449399984558 0.5085490962383976 0.4831460674157304
0.017004915000143228 0.5114802149487054 0.4811919882755251
0.017196021000017936 0.5095261358085001 0.4851001465559355
0.017389015999924595 0.5105031753786029 0.4929164631167562
0.01758075199995801 0.5065950170981925 0.48705422569614076
0.017772470000181784 0.5036638983878847 0.48216902784562765
0.01796316799982378 0.49975574010747437 0.4782608695652173
0.018153626000184886 0.495847581827064 0.4802149487054226
0.018343992000154685 0.4938935026868587 0.4782608695652173
0.018533986999955232 0.4978016609672691 0.48705422569614076
0.01872390800008361 0.49193942354665365 0.48705422569614076
0.018913902999884158 0.48998534440644836 0.48216902784562765
0.019104509000044345 0.48412310698583294 0.4851001465559355
0.019294281999918894 0.4831460674157304 0.486077186126038
0.019486276999941765 0.4811919882755251 0.4880312652662433
0.0196764020001865 0.48216902784562765 0.48900830483634583
0.01986635999992359 0.4802149487054226 0.4929164631167562
0.02005650399996739 0.4782608695652173 0.49877870053737183
0.020246238999789057 0.4811919882755251 0.49682462139716654
0.02043621599977996 0.4802149487054226 0.49877870053737183
0.02062582200005636 0.4831460674157304 0.495847581827064
0.02081589099998382 0.4831460674157304 0.4909623839765511
0.02100560899998527 0.47923790913532005 0.4938935026868587
0.021201918999850022 0.47923790913532005 0.49193942354665365
0.021391672999925504 0.4811919882755251 0.4938935026868587
0.021581649999916408 0.48412310698583294 0.4929164631167562
0.021772904000044946 0.4831460674157304 0.4948705422569615
0.02196339900001476 0.4851001465559355 0.4929164631167562
0.022153802000048017 0.4929164631167562 0.49193942354665365
0.02234466700019766 0.48900830483634583 0.4948705422569615
0.02253445799988185 0.48998534440644836 0.49682462139716654
0.022724527999798738 0.48998534440644836 0.5017098192476794
0.022914523000054032 0.4929164631167562 0.5017098192476794
0.023105887999918195 0.4938935026868587 0.5046409379579873
0.023296253999887995 0.48900830483634583 0.5026868588177822
0.02348754500007999 0.49193942354665365 0.5046409379579873
0.023677836999922874 0.48998534440644836 0.5056179775280898
0.023868054000104166 0.48900830483634583 0.5036638983878847
0.024058566999883624 0.48900830483634583 0.5036638983878847
0.024248563000128343 0.486077186126038 0.5046409379579873
0.024442649999855348 0.48412310698583294 0.5046409379579873
0.024634163999962766 0.48216902784562765 0.5026868588177822
0.02482543699989037 0.4811919882755251 0.4978016609672691
0.02501632099983908 0.4811919882755251 0.5085490962383976
0.025206815999808896 0.48705422569614076 0.49975574010747437
0.025403958999959286 0.4811919882755251 0.49877870053737183
0.025594194999939646 0.4831460674157304 0.4938935026868587
0.025784430999920005 0.4831460674157304 0.49682462139716654
0.025974203999794554 0.48705422569614076 0.4938935026868587
0.026164290999986406 0.4880312652662433 0.4929164631167562
0.026354305000040767 0.4938935026868587 0.48900830483634583
0.026544411000031687 0.5017098192476794 0.48705422569614076
0.02673460999994859 0.4929164631167562 0.49193942354665365
0.026924715999939508 0.49682462139716654 0.48412310698583294
0.02711454500013133 0.5046409379579873 0.486077186126038
0.0273050770001646 0.49975574010747437 0.49193942354665365
0.027495978999922954 0.5017098192476794 0.48412310698583294
0.027686177999839856 0.512457254518808 0.48216902784562765
0.027876709999873128 0.5065950170981925 0.4851001465559355
0.028067334999832383 0.5046409379579873 0.4831460674157304
0.02825794099999257 0.5007327796775769 0.4811919882755251
0.028448603000015282 0.5017098192476794 0.4831460674157304
0.028639635000217822 0.49975574010747437 0.47923790913532005
0.028829612000208726 0.49682462139716654 0.4831460674157304
0.029019348000019818 0.49682462139716654 0.48705422569614076
0.029209379999883822 0.49193942354665365 0.4909623839765511
0.029399430000012217 0.48705422569614076 0.4929164631167562
0.029589518000193493 0.4851001465559355 0.48998534440644836
0.029780346999814356 0.486077186126038 0.49193942354665365
0.029969953000090754 0.48412310698583294 0.48998534440644836
0.030160522000187484 0.4802149487054226 0.48900830483634583
0.030350128000009136 0.47923790913532005 0.486077186126038
0.03053979000014806 0.4763067904250122 0.486077186126038
0.030729952000001504 0.4811919882755251 0.49193942354665365
0.030919983999865508 0.47923790913532005 0.4811919882755251
0.031110034999983327 0.48412310698583294 0.4831460674157304
0.031300492999889684 0.4811919882755251 0.486077186126038
0.03149122900003931 0.4831460674157304 0.4811919882755251
0.03168142699996679 0.4802149487054226 0.4831460674157304
0.03187188599986257 0.48705422569614076 0.4782608695652173
0.03206186199986405 0.4831460674157304 0.48412310698583294
0.03225237600008768 0.4851001465559355 0.4811919882755251
0.03244309299998349 0.48705422569614076 0.4831460674157304
0.032633310000164784 0.48216902784562765 0.48705422569614076
0.03282421299991256 0.48900830483634583 0.48412310698583294
0.033015040999998746 0.48412310698583294 0.48900830483634583
0.03320555499976763 0.4851001465559355 0.4978016609672691
0.03340547600009813 0.48412310698583294 0.4948705422569615
0.03359606399999393 0.4880312652662433 0.495847581827064
0.03378628100017522 0.4831460674157304 0.4909623839765511
0.03397631300003923 0.4831460674157304 0.486077186126038
0.034166419000030146 0.4811919882755251 0.4851001465559355
0.034356839999873046 0.4880312652662433 0.4831460674157304
0.03454683500012834 0.4948705422569615 0.48412310698583294
0.03473638600007689 0.4938935026868587 0.48705422569614076
0.03492649200006781 0.49975574010747437 0.4811919882755251
0.03511657999979434 0.5026868588177822 0.47923790913532005
0.035306946000218886 0.5026868588177822 0.4811919882755251
0.03549753300012526 0.5036638983878847 0.4831460674157304
0.03568782499996814 0.5065950170981925 0.49193942354665365
0.03587809800001196 0.5036638983878847 0.4851001465559355
0.03606816699993942 0.5017098192476794 0.48998534440644836
0.03625773600015236 0.49975574010747437 0.4831460674157304
0.03644706400018549 0.4978016609672691 0.4831460674157304
0.036637077999785106 0.4978016609672691 0.4851001465559355
0.03682696199985003 0.5007327796775769 0.4811919882755251
0.03701730900002076 0.5007327796775769 0.48216902784562765
0.037207303999821306 0.4978016609672691 0.4831460674157304
0.03739642900018225 0.49877870053737183 0.4851001465559355
0.03758588700020482 0.4978016609672691 0.486077186126038
0.037776049000058265 0.4978016609672691 0.48705422569614076
0.03796617399984825 0.5017098192476794 0.48705422569614076
0.03815613200004009 0.5046409379579873 0.48705422569614076
0.03834595999978774 0.5065950170981925 0.4851001465559355
0.0385568440001407 0.5085490962383976 0.4929164631167562
0.03877530099998694 0.5056179775280898 0.495847581827064
0.03898444400010703 0.5046409379579873 0.48998534440644836
0.03918060500018328 0.5046409379579873 0.4938935026868587
0.039373840999815 0.49975574010747437 0.4929164631167562
0.03958248399976583 0.5075720566682951 0.5007327796775769
0.03977362700015874 0.5046409379579873 0.5017098192476794
0.03996473300003345 0.5007327796775769 0.495847581827064
0.0401555799999187 0.5065950170981925 0.5046409379579873
0.04034613100020579 0.4978016609672691 0.49975574010747437
0.0405380890001652 0.495847581827064 0.5007327796775769
0.040729546999955346 0.49682462139716654 0.5026868588177822
0.040920746000210784 0.4929164631167562 0.5017098192476794
0.041111481999905664 0.4909623839765511 0.5065950170981925
0.041302644000097644 0.4880312652662433 0.49975574010747437
0.041493824000099266 0.48998534440644836 0.5065950170981925
0.04170220700007121 0.49193942354665365 0.5056179775280898
0.04189360999998826 0.48412310698583294 0.5026868588177822
0.04217975099982141 0.486077186126038 0.5046409379579873
0.04237576400009857 0.4763067904250122 0.5065950170981925
0.04256794399998398 0.4782608695652173 0.5046409379579873
0.042759698999816464 0.4802149487054226 0.5085490962383976
0.04295032399977572 0.4763067904250122 0.5056179775280898
0.04314141099985136 0.4831460674157304 0.49682462139716654
0.043332517000180815 0.4763067904250122 0.49682462139716654
0.04352484599985473 0.4851001465559355 0.49877870053737183
0.043715656000131276 0.47923790913532005 0.5026868588177822
0.043906854999931966 0.486077186126038 0.5007327796775769
0.0440972020001027 0.4851001465559355 0.49975574010747437
0.04428795600006197 0.48900830483634583 0.4880312652662433
0.04447850699989431 0.4880312652662433 0.4909623839765511
0.04467035300012867 0.4851001465559355 0.4929164631167562
0.04486133000000336 0.48705422569614076 0.4909623839765511
0.045051843999772245 0.4851001465559355 0.48998534440644836
0.045242431000133365 0.4851001465559355 0.4929164631167562
0.045433166999828245 0.4831460674157304 0.48998534440644836
0.04562371800011533 0.48412310698583294 0.4938935026868587
0.04582121300018116 0.48412310698583294 0.49682462139716654
0.046012356000119325 0.4929164631167562 0.4929164631167562
0.04620279600021604 0.4851001465559355 0.49682462139716654
0.04639434599994274 0.4831460674157304 0.4948705422569615
0.04658535999988089 0.48216902784562765 0.4948705422569615
0.04677583600005164 0.4782608695652173 0.4929164631167562
0.04696633200001088 0.4811919882755251 0.48998534440644836
0.04715675299985378 0.4802149487054226 0.4909623839765511
0.0473473400002149 0.4802149487054226 0.48900830483634583
0.04755098299983729 0.4880312652662433 0.4851001465559355
0.047741866999786 0.47923790913532005 0.4909623839765511
0.04793267700006254 0.4909623839765511 0.4851001465559355
0.04812357999981032 0.4851001465559355 0.4851001465559355
0.04831407499978013 0.4802149487054226 0.4851001465559355
0.04850492200012013 0.4831460674157304 0.4851001465559355
0.04869580600006884 0.4851001465559355 0.49682462139716654
0.04888991200004966 0.49193942354665365 0.48412310698583294
0.04908118499997727 0.495847581827064 0.48412310698583294
0.04927201300006345 0.49682462139716654 0.48900830483634583
0.049463193000065075 0.49682462139716654 0.4880312652662433
0.04965372600008777 0.5046409379579873 0.4851001465559355
0.04984436899985667 0.5036638983878847 0.4948705422569615
0.050043049000123574 0.5056179775280898 0.4880312652662433
0.0502338400001463 0.5046409379579873 0.486077186126038
0.05042405799986227 0.4978016609672691 0.48900830483634583
0.05061486800013881 0.5007327796775769 0.4929164631167562
0.05080560299984427 0.4929164631167562 0.48998534440644836
0.05099576500015246 0.4880312652662433 0.49193942354665365
0.05118550099996355 0.48998534440644836 0.495847581827064
0.05137625499992282 0.49193942354665365 0.49193942354665365
0.05157582399988314 0.49193942354665365 0.4909623839765511
0.05176680100021258 0.49877870053737183 0.4909623839765511
0.051957369999854564 0.49682462139716654 0.48900830483634583
0.0521473280000464 0.49682462139716654 0.4880312652662433
0.0523376940000162 0.5017098192476794 0.4831460674157304
0.05252863299983801 0.5036638983878847 0.4811919882755251
0.05271975799996653 0.5134342940889105 0.4802149487054226
0.05291027200019016 0.5075720566682951 0.4811919882755251
0.053100211000128184 0.5085490962383976 0.4753297508549097
0.05329033599991817 0.5046409379579873 0.47239863214460187
0.0534806830000889 0.5036638983878847 0.47435271128480694
0.053671714999836695 0.49975574010747437 0.4753297508549097
0.05386198799988051 0.4929164631167562 0.4733756717147044
0.05405326099980812 0.49193942354665365 0.4733756717147044
0.05424416300002122 0.48900830483634583 0.4753297508549097
0.05443480699977954 0.4880312652662433 0.47728382999511476
0.054625320000013744 0.4851001465559355 0.4831460674157304
0.05481640800007881 0.4880312652662433 0.4811919882755251
0.05500684800017552 0.48705422569614076 0.486077186126038
0.05519736099995498 0.48412310698583294 0.48705422569614076
0.05538815299996713 0.495847581827064 0.48998534440644836
0.05557981399988421 0.48705422569614076 0.48998534440644836
0.0557701980001184 0.4880312652662433 0.48998534440644836
0.055960507999770925 0.48900830483634583 0.4909623839765511
0.056151021999994555 0.48900830483634583 0.48412310698583294
0.056341572999826894 0.4831460674157304 0.486077186126038
0.05653206799979671 0.48412310698583294 0.4851001465559355
0.056722284999978 0.4802149487054226 0.48216902784562765
0.056912928000201646 0.4733756717147044 0.4811919882755251
0.05710318299998107 0.46946751343429405 0.4782608695652173
0.057293306999781635 0.4665363947239862 0.4811919882755251
0.05748334000008981 0.4606741573033708 0.48412310698583294
0.05767285299998548 0.46165119687347334 0.49193942354665365
0.057863756000188005 0.45481191988275516 0.4880312652662433
0.05807393499981117 0.45676599902296044 0.4851001465559355
0.05826657899979182 0.45969711773326827 0.48998534440644836
0.058457184999952005 0.4606741573033708 0.48900830483634583
0.05864784699997472 0.46458231558378116 0.49193942354665365
0.05883878599979653 0.467513434294089 0.48900830483634583
0.059029207000094175 0.47435271128480694 0.49193942354665365
0.059220275999905425 0.4811919882755251 0.48998534440644836
0.059691931000088516 0.4909623839765511 0.4880312652662433
0.05988609299993186 0.495847581827064 0.48998534440644836
0.06007797700021911 0.49975574010747437 0.49682462139716654
0.06026852700006202 0.5036638983878847 0.4909623839765511
0.06045911499995782 0.4978016609672691 0.4880312652662433
0.06064912900001218 0.5046409379579873 0.4851001465559355
0.06084005000002435 0.5085490962383976 0.48998534440644836
0.0610309519997827 0.49975574010747437 0.4948705422569615
0.06122192900011214 0.5046409379579873 0.4938935026868587
0.06141240499982814 0.49877870053737183 0.4929164631167562
0.06160304900004121 0.5036638983878847 0.4929164631167562
0.061796451000191155 0.5017098192476794 0.4978016609672691
0.06199852000008832 0.5046409379579873 0.4978016609672691
0.06222049600000901 0.5017098192476794 0.5056179775280898
0.06242648999977973 0.5075720566682951 0.5007327796775769
0.06261855999991894 0.5046409379579873 0.5017098192476794
0.06280981400004748 0.5017098192476794 0.5017098192476794
0.06300051300013365 0.5007327796775769 0.5046409379579873
0.06319245199983925 0.49682462139716654 0.5017098192476794
0.06338340999991487 0.49193942354665365 0.5026868588177822
0.06357873900014965 0.48900830483634583 0.5036638983878847
0.06376867800008768 0.48900830483634583 0.5007327796775769
0.06395845099996222 0.4880312652662433 0.5036638983878847
0.0643669780001801 0.486077186126038 0.5036638983878847
0.06456456500018248 0.486077186126038 0.5036638983878847
0.06475731999989875 0.48705422569614076 0.5036638983878847
0.06494855499977348 0.48998534440644836 0.5007327796775769
0.06514008800013471 0.4909623839765511 0.49877870053737183
0.06533276800018939 0.48900830483634583 0.5017098192476794
0.06552329999976791 0.49193942354665365 0.5026868588177822
0.06571616500013988 0.48998534440644836 0.5017098192476794
0.0659075120001944 0.4929164631167562 0.5007327796775769
0.06609861900005853 0.4880312652662433 0.49877870053737183
0.06628950200001782 0.49193942354665365 0.5017098192476794
0.06648060899988195 0.4929164631167562 0.49975574010747437
0.06668904800017117 0.48900830483634583 0.5017098192476794
0.0668802099999084 0.48900830483634583 0.5007327796775769
0.0670707230001426 0.49193942354665365 0.49682462139716654
0.06726042199989024 0.4909623839765511 0.5007327796775769
0.06745086199998696 0.48900830483634583 0.49975574010747437
0.06766118999985338 0.4851001465559355 0.5046409379579873
0.06785283299996081 0.4880312652662433 0.5007327796775769
0.06804456899999423 0.4909623839765511 0.4948705422569615
0.06823704499993255 0.48412310698583294 0.49193942354665365
0.06842846600011399 0.48412310698583294 0.48998534440644836
0.06861849799997799 0.48705422569614076 0.486077186126038
0.06880806800018036 0.486077186126038 0.4851001465559355
0.06899821099977999 0.48412310698583294 0.47923790913532005
0.06918866900014109 0.4851001465559355 0.4811919882755251
0.06938029399998413 0.48998534440644836 0.4802149487054226
0.06957030700004907 0.49193942354665365 0.47728382999511476
0.06976128399992376 0.4929164631167562 0.47923790913532005
0.06995092699980887 0.4938935026868587 0.4763067904250122
0.0701411069999267 0.4929164631167562 0.47728382999511476
0.07033201000012923 0.49682462139716654 0.47923790913532005
0.07052294899995104 0.4948705422569615 0.4802149487054226
0.07071979600004852 0.4948705422569615 0.4802149487054226
0.07091023600014523 0.49682462139716654 0.4811919882755251
0.07110000900001978 0.49682462139716654 0.4831460674157304
0.07129007799994724 0.495847581827064 0.4811919882755251
0.07148198000004413 0.4938935026868587 0.4831460674157304
0.07167293800011976 0.49193942354665365 0.4880312652662433
0.0718633219998992 0.48705422569614076 0.4811919882755251
0.07205405800004883 0.48998534440644836 0.48412310698583294
0.07224490499993408 0.4851001465559355 0.48705422569614076
0.07243514099991444 0.48705422569614076 0.48705422569614076
0.07262589499987371 0.4909623839765511 0.47923790913532005
0.07281587199986461 0.48705422569614076 0.4831460674157304
0.07300568199980262 0.4811919882755251 0.48216902784562765
0.07319584400011081 0.4811919882755251 0.4802149487054226
0.07338630200001717 0.48412310698583294 0.4831460674157304
0.07357661200012444 0.49193942354665365 0.4802149487054226
0.07376744000021063 0.4909623839765511 0.4802149487054226
0.07395795399997951 0.4948705422569615 0.4851001465559355
0.07414826400008678 0.4929164631167562 0.48216902784562765
0.07433824000008826 0.4909623839765511 0.48216902784562765
0.07452860600005806 0.48900830483634583 0.47728382999511476
0.0747197679997953 0.48900830483634583 0.4831460674157304
0.07491604000006191 0.49193942354665365 0.4753297508549097
0.07510640600003171 0.4938935026868587 0.47728382999511476
0.07529643799989572 0.4929164631167562 0.47923790913532005
0.07548761799989734 0.4948705422569615 0.47435271128480694
0.07567744700008916 0.4948705422569615 0.4733756717147044
0.07586768300006952 0.4938935026868587 0.4763067904250122
0.07605815899978552 0.4929164631167562 0.48216902784562765
0.07624835800015717 0.4948705422569615 0.48216902784562765
0.07643881600006353 0.4938935026868587 0.4851001465559355
0.07662929299976895 0.49193942354665365 0.4909623839765511
0.07681952900020406 0.48900830483634583 0.48998534440644836
0.07700931999988825 0.48900830483634583 0.49193942354665365
0.07719942599987917 0.48900830483634583 0.4929164631167562
0.0773901620000288 0.48900830483634583 0.4938935026868587
0.07758061999993515 0.48900830483634583 0.4978016609672691
0.07777087500016933 0.4880312652662433 0.49682462139716654
0.0779614620000757 0.49193942354665365 0.5036638983878847
0.07815255000014076 0.4909623839765511 0.5046409379579873
0.07834263799986729 0.48216902784562765 0.5075720566682951
0.07853302200010148 0.48216902784562765 0.5232046897899365
0.07872320200021932 0.47728382999511476 0.5095261358085001
0.07891345600000932 0.47142159257449934 0.5153883732291158
0.07910439599982055 0.47142159257449934 0.5095261358085001
0.0792945950001922 0.47239863214460187 0.5065950170981925
0.07948564500020439 0.47435271128480694 0.5065950170981925
0.07967584400012129 0.47239863214460187 0.5075720566682951
0.0798666730001969 0.47239863214460187 0.5046409379579873
0.08005703800017727 0.47435271128480694 0.5017098192476794
0.08024688500017874 0.47239863214460187 0.5036638983878847
0.08043776900012745 0.47142159257449934 0.5017098192476794
0.08062767199999143 0.467513434294089 0.5046409379579873
0.08081798200009871 0.467513434294089 0.49975574010747437
0.0810090139998465 0.4655593551538837 0.5017098192476794
0.0811995270000807 0.4655593551538837 0.5007327796775769
0.08138980000012452 0.46458231558378116 0.49682462139716654
0.08158083199987232 0.4655593551538837 0.4978016609672691
0.08177175299988448 0.4704445530043966 0.4978016609672691
0.08196259999976974 0.46946751343429405 0.49975574010747437
0.08215265099988756 0.47142159257449934 0.5007327796775769
0.08234279399994193 0.4733756717147044 0.5007327796775769
0.0825330490001761 0.4763067904250122 0.5017098192476794
0.08272361799981809 0.4753297508549097 0.49975574010747437
0.08291990899988377 0.47728382999511476 0.49877870053737183
0.08311888600019302 0.47923790913532005 0.49975574010747437
0.08330977000014173 0.4802149487054226 0.4978016609672691
0.08350078300009045 0.486077186126038 0.4948705422569615
0.08369046300003902 0.48998534440644836 0.4948705422569615
0.08388023599991357 0.4938935026868587 0.4929164631167562
0.084071435000169 0.49975574010747437 0.4909623839765511
0.0842611709999801 0.5017098192476794 0.49193942354665365
0.08445179599993935 0.5007327796775769 0.4938935026868587
0.08464218000017354 0.5046409379579873 0.4909623839765511
0.08483300799980498 0.5046409379579873 0.49193942354665365
0.08502318899991224 0.5007327796775769 0.48900830483634583
0.08521470200003023 0.5007327796775769 0.49193942354665365
0.08540515999993659 0.49877870053737183 0.4938935026868587
0.08559482200007551 0.5007327796775769 0.4929164631167562
0.08578526200017222 0.5036638983878847 0.4909623839765511
0.08597499699999389 0.5017098192476794 0.48705422569614076
0.0861658809999426 0.5007327796775769 0.48998534440644836
0.08635656200021913 0.5036638983878847 0.48705422569614076
0.08654674199988222 0.5026868588177822 0.4909623839765511
0.08673721900004239 0.5007327796775769 0.4880312652662433
0.08692795400020259 0.5036638983878847 0.48900830483634583
0.08711822699979166 0.5007327796775769 0.48998534440644836
0.08730912999999418 0.49975574010747437 0.4909623839765511
0.08749968099982652 0.5036638983878847 0.4909623839765511
0.08768926799984911 0.5046409379579873 0.49877870053737183
0.08788000399999873 0.5007327796775769 0.5017098192476794
0.08807062899995799 0.5036638983878847 0.4909623839765511
0.08826093900006526 0.512457254518808 0.4938935026868587
0.08845115599979181 0.5026868588177822 0.4978016609672691
0.0886413180001 0.5046409379579873 0.4929164631167562
0.08883099800004857 0.5036638983878847 0.4909623839765511
0.0890213450002193 0.5075720566682951 0.5007327796775769
0.08921158100019966 0.5007327796775769 0.48998534440644836
0.08940231699989454 0.49193942354665365 0.4929164631167562
0.0895925529998749 0.48998534440644836 0.49193942354665365
0.08978325199996107 0.4851001465559355 0.48705422569614076
0.08997300600003655 0.48900830483634583 0.48900830483634583
0.09016296399977364 0.4880312652662433 0.4929164631167562
0.09035390400003962 0.4909623839765511 0.4880312652662433
0.09054443600007289 0.49193942354665365 0.48900830483634583
0.09073457900012727 0.495847581827064 0.4948705422569615
0.0909248889997798 0.48998534440644836 0.48705422569614076
0.09112088399979257 0.4948705422569615 0.48705422569614076
0.0913108419999844 0.495847581827064 0.4909623839765511
0.0915020409997851 0.49877870053737183 0.48705422569614076
0.09169155400013551 0.49682462139716654 0.48900830483634583
0.09188119800001004 0.5017098192476794 0.486077186126038
0.09208971099997143 0.4978016609672691 0.4802149487054226
0.09231100199986031 0.5007327796775769 0.4831460674157304
0.09266132599987031 0.5065950170981925 0.48412310698583294
0.0928890790000878 0.5095261358085001 0.4811919882755251
0.09509365199983222 0.4909623839765511 0.4880312652662433
0.09540647799985891 0.48998534440644836 0.49193942354665365
0.09561747199995807 0.4880312652662433 0.48900830483634583
0.09581785599993964 0.48900830483634583 0.48998534440644836
0.09602192500005913 0.48705422569614076 0.48412310698583294
0.09622719700018934 0.48900830483634583 0.4880312652662433
0.09642600699999093 0.48412310698583294 0.48412310698583294
0.0966819260002012 0.4811919882755251 0.48705422569614076
0.09688777300016227 0.47728382999511476 0.4831460674157304
0.09708204600019599 0.4802149487054226 0.48216902784562765
0.09727826300013476 0.4782608695652173 0.4811919882755251
0.09746831399979783 0.4811919882755251 0.4831460674157304
0.09768069700021442 0.4851001465559355 0.47728382999511476
0.09787448799988852 0.48216902784562765 0.47728382999511476
0.09807566800009226 0.4811919882755251 0.4831460674157304
0.09827310799983024 0.4851001465559355 0.4811919882755251
0.09847106600000188 0.4811919882755251 0.4831460674157304
0.0986710789998142 0.4831460674157304 0.4831460674157304
0.0996482579998883 0.4802149487054226 0.486077186126038
0.09994078699992315 0.47923790913532005 0.4831460674157304
0.10015061500007505 0.4811919882755251 0.48216902784562765
0.10035707299994101 0.4763067904250122 0.48705422569614076
0.1005639559998599 0.47728382999511476 0.48216902784562765
0.10077645100000154 0.4733756717147044 0.4811919882755251
0.10101425999982894 0.4811919882755251 0.48705422569614076
0.10124366099989857 0.4733756717147044 0.4938935026868587
0.10168977900002574 0.4704445530043966 0.5036638983878847
0.10197990200003915 0.4684904738641915 0.5085490962383976
0.10222987699989972 0.4704445530043966 0.5075720566682951
0.10250109199978397 0.47142159257449934 0.5026868588177822
0.10414645699984248 0.4763067904250122 0.5046409379579873
0.10437178499978472 0.47728382999511476 0.5017098192476794
0.10457650199987256 0.47435271128480694 0.4978016609672691
0.10480329199981497 0.47728382999511476 0.49682462139716654
0.10515565300011076 0.4763067904250122 0.49193942354665365
0.10539327700007561 0.4811919882755251 0.4929164631167562
0.10558599400019375 0.47728382999511476 0.48900830483634583
0.10579656299978524 0.4753297508549097 0.486077186126038
0.10620471899983386 0.4782608695652173 0.48900830483634583
0.10644854600013787 0.4831460674157304 0.486077186126038
0.1066542630001095 0.48412310698583294 0.4880312652662433
0.10687444299992421 0.4802149487054226 0.486077186126038
0.10707527100021252 0.4851001465559355 0.486077186126038
0.10727382100003524 0.4851001465559355 0.4880312652662433
0.10750966700015852 0.4851001465559355 0.4880312652662433
0.10771473600016179 0.48705422569614076 0.4880312652662433
0.10792136000009123 0.495847581827064 0.48900830483634583
0.10812946599980933 0.5056179775280898 0.48705422569614076
0.10833001599985437 0.5026868588177822 0.48998534440644836
0.10853073399994173 0.5065950170981925 0.4909623839765511
0.108767467999769 0.5173424523693209 0.48705422569614076
0.10901907300012681 0.5192965315095261 0.4851001465559355
0.10931276900009834 0.5232046897899365 0.4909623839765511
0.10960203900003762 0.524181729360039 0.48705422569614076
0.10981703400011611 0.524181729360039 0.4802149487054226
0.11001958399992873 0.5251587689301416 0.4851001465559355
0.11022243099978368 0.524181729360039 0.48412310698583294
0.11041527799989126 0.524181729360039 0.486077186126038
0.11060758799976611 0.5232046897899365 0.486077186126038
0.11079915700020138 0.5192965315095261 0.486077186126038
0.11098972599984336 0.5212506106497312 0.48705422569614076
0.1111811470000248 0.5183194919394236 0.48705422569614076
0.11137143799987825 0.5163654127992183 0.4880312652662433
0.11161982100020396 0.5105031753786029 0.48998534440644836
0.11181644599992069 0.5105031753786029 0.48900830483634583
0.11200684799996452 0.5046409379579873 0.4880312652662433
0.11219882500017775 0.5026868588177822 0.48412310698583294
0.11238998599992556 0.49877870053737183 0.4831460674157304
0.11258064799994827 0.49975574010747437 0.4851001465559355
0.11277032799989684 0.495847581827064 0.4851001465559355
0.1129602870000781 0.495847581827064 0.48216902784562765
0.11315050399980464 0.4948705422569615 0.48216902784562765
0.11334097999997539 0.4948705422569615 0.48412310698583294
0.11353156799987119 0.495847581827064 0.48705422569614076
0.11372156300012648 0.5017098192476794 0.47923790913532005
0.11391248400013865 0.49682462139716654 0.4782608695652173
0.11413999700016575 0.49682462139716654 0.4811919882755251
0.11433254799976567 0.495847581827064 0.4782608695652173
0.11452365400009512 0.49682462139716654 0.48216902784562765
0.11471370500021294 0.49877870053737183 0.4782608695652173
0.11493032899988975 0.486077186126038 0.4811919882755251
0.11511839800004964 0.4851001465559355 0.48216902784562765
0.11530598599983932 0.4831460674157304 0.4851001465559355
0.1154942220000521 0.4831460674157304 0.48216902784562765
0.11568245699982072 0.47923790913532005 0.4851001465559355
0.1158700820001286 0.47728382999511476 0.486077186126038
0.11605739200012977 0.4831460674157304 0.4880312652662433
0.11624470200013093 0.4802149487054226 0.48412310698583294
0.11643166000021665 0.4811919882755251 0.4802149487054226
0.11661930399986886 0.4802149487054226 0.4811919882755251
0.11680652099994404 0.4851001465559355 0.4802149487054226
0.116994165000051 0.486077186126038 0.47728382999511476
0.11718136299987236 0.48900830483634583 0.47923790913532005
0.11736811799983116 0.4880312652662433 0.4763067904250122
0.1175568540002132 0.4880312652662433 0.48412310698583294
0.1177510339998662 0.4851001465559355 0.4851001465559355
0.11794306599995252 0.49193942354665365 0.4811919882755251
0.11815270899978714 0.4831460674157304 0.48216902784562765
0.11836761099993964 0.47728382999511476 0.48705422569614076
0.11883822800018606 0.4753297508549097 0.48705422569614076
0.11914420199991582 0.4753297508549097 0.48900830483634583
0.11951058100021328 0.4704445530043966 0.49877870053737183
0.12310384100010197 0.4557889594528579 0.4880312652662433
0.12376219499992658 0.4606741573033708 0.5026868588177822
0.12434784600009152 0.4636052760136786 0.49877870053737183
0.1259320280000793 0.524181729360039 0.47923790913532005
0.1269409460001043 0.5319980459208598 0.4831460674157304
0.12803656599999158 0.48900830483634583 0.4831460674157304
0.12840111300010904 0.48998534440644836 0.4802149487054226
0.12865521699995952 0.4880312652662433 0.48900830483634583
0.12891869199984285 0.48705422569614076 0.48900830483634583
0.1312132630000633 0.5163654127992183 0.4880312652662433
0.13151779200006786 0.5173424523693209 0.4929164631167562
0.13178382200021588 0.5105031753786029 0.4909623839765511
0.13203411199992843 0.5065950170981925 0.49682462139716654
0.13229197600003317 0.5026868588177822 0.4929164631167562
0.13259326400020655 0.49682462139716654 0.4929164631167562
0.1328517950000787 0.4978016609672691 0.4938935026868587
0.13307462200009468 0.4929164631167562 0.486077186126038
0.1343435710000449 0.5046409379579873 0.4851001465559355
0.1345423990001109 0.5007327796775769 0.4851001465559355
0.13473289500007013 0.5026868588177822 0.4938935026868587
0.13492548200019883 0.5026868588177822 0.486077186126038
0.1351156069999888 0.49975574010747437 0.48705422569614076
0.13530386100001124 0.5046409379579873 0.4948705422569615
0.1355271709999215 0.49975574010747437 0.48705422569614076
0.1357178319999548 0.495847581827064 0.48998534440644836
0.13590569799998775 0.48998534440644836 0.4851001465559355
0.1360938409998198 0.4909623839765511 0.4831460674157304
0.13628285499999038 0.4880312652662433 0.4880312652662433
0.13647399799992854 0.48705422569614076 0.4938935026868587
0.13666312299983474 0.4948705422569615 0.4851001465559355
0.13685069199982536 0.48900830483634583 0.486077186126038
0.13703868699985833 0.4909623839765511 0.48998534440644836
0.137226868000198 0.48998534440644836 0.4831460674157304
0.13741488100004062 0.4909623839765511 0.48705422569614076
0.13760315399986212 0.49193942354665365 0.4938935026868587
0.13779024199993728 0.4938935026868587 0.48998534440644836
0.13797777399986444 0.486077186126038 0.4929164631167562
0.1382183239998085 0.48412310698583294 0.49682462139716654
0.13840617100004238 0.4811919882755251 0.495847581827064
0.13859416600007535 0.4831460674157304 0.4938935026868587
0.1387814569998227 0.47435271128480694 0.4938935026868587
0.13896887800001423 0.47435271128480694 0.49682462139716654
0.13915607699982502 0.4733756717147044 0.5007327796775769
0.1393437950000589 0.47142159257449934 0.4909623839765511
0.13956678900012776 0.4665363947239862 0.4880312652662433
0.13975474700009727 0.47435271128480694 0.48900830483634583
0.13994283500005622 0.4704445530043966 0.48900830483634583
0.14012920100003612 0.47239863214460187 0.4851001465559355
0.14031806599996344 0.4704445530043966 0.48900830483634583
0.1405049869999857 0.4704445530043966 0.48900830483634583
0.1406931120000081 0.4733756717147044 0.4880312652662433
0.1408803109998189 0.4763067904250122 0.4909623839765511
0.14106778799987296 0.4763067904250122 0.49682462139716654
0.1412545980001596 0.4753297508549097 0.4948705422569615
0.1414417969999704 0.47435271128480694 0.495847581827064
0.14162827300015124 0.4753297508549097 0.49877870053737183
0.14181515700011005 0.4733756717147044 0.4978016609672691
0.1420016530000794 0.47239863214460187 0.49682462139716654
0.14218885099990075 0.47142159257449934 0.495847581827064
0.14238499500015678 0.47435271128480694 0.4909623839765511
0.14257382300002064 0.47239863214460187 0.49682462139716654
0.14276568800005407 0.4655593551538837 0.495847581827064
0.14295418399979098 0.46262823644357587 0.4948705422569615
0.14314106800020454 0.467513434294089 0.4929164631167562
0.14332858099987789 0.4704445530043966 0.48705422569614076
0.1435173169998052 0.4733756717147044 0.4880312652662433
0.14370570099981705 0.47728382999511476 0.4831460674157304
0.1438943449998078 0.47923790913532005 0.4851001465559355
0.14409861700005422 0.4665363947239862 0.48216902784562765
0.14495546599982845 0.4704445530043966 0.49193942354665365
0.14603869699976713 0.4753297508549097 0.4948705422569615
0.14819393800007674 0.5202735710796287 0.49877870053737183
0.14844735799988484 0.5212506106497312 0.49193942354665365
0.1486666669998158 0.5212506106497312 0.49193942354665365
0.1488808459998836 0.5251587689301416 0.4909623839765511
0.14908434100016166 0.524181729360039 0.4948705422569615
0.14929429899984825 0.5173424523693209 0.4929164631167562
0.14949783100018976 0.5144113336590133 0.4880312652662433
0.14969917700000224 0.5095261358085001 0.4978016609672691
0.1498982650000471 0.5075720566682951 0.49193942354665365
0.15008798200005913 0.5026868588177822 0.4909623839765511
0.1502766620001239 0.5026868588177822 0.4909623839765511
0.1504659349998292 0.4978016609672691 0.4909623839765511
0.15065437500015832 0.5007327796775769 0.48998534440644836
0.15084251799999038 0.49682462139716654 0.48705422569614076
0.15102990200011845 0.4938935026868587 0.4851001465559355
0.15121902700002465 0.4948705422569615 0.486077186126038
0.15140622599983544 0.495847581827064 0.4880312652662433
0.1516387759997997 0.49877870053737183 0.4851001465559355
0.15183480799987592 0.49877870053737183 0.486077186126038
0.1520249509999303 0.5095261358085001 0.4880312652662433
0.15221424199989997 0.5046409379579873 0.48705422569614076
0.15240447799988033 0.5036638983878847 0.4938935026868587
0.15259204699987095 0.5046409379579873 0.4938935026868587
0.15278048700020008 0.5046409379579873 0.4880312652662433
0.1529680379999263 0.5007327796775769 0.486077186126038
0.15315545900011784 0.49975574010747437 0.4938935026868587
0.15334308399997099 0.49682462139716654 0.48705422569614076
0.1535317269999723 0.49682462139716654 0.4851001465559355
0.153719221999836 0.4909623839765511 0.4909623839765511
0.1539083100001335 0.4880312652662433 0.4880312652662433
0.15413032300011764 0.48998534440644836 0.49193942354665365
0.15431881799986513 0.48705422569614076 0.4938935026868587
0.154519387000164 0.48998534440644836 0.4938935026868587
0.15470884500018656 0.4909623839765511 0.4938935026868587
0.15489772899991294 0.49877870053737183 0.48998534440644836
0.1550854460001574 0.4938935026868587 0.49193942354665365
0.15527301600013743 0.4938935026868587 0.48900830483634583
0.15548221400013063 0.49193942354665365 0.486077186126038
0.15567191299987826 0.49877870053737183 0.48998534440644836
0.1558600190001016 0.49682462139716654 0.4880312652662433
0.15604838499984908 0.49682462139716654 0.4831460674157304
0.1562361950000195 0.4880312652662433 0.4929164631167562
0.15642398599993612 0.49193942354665365 0.48412310698583294
0.1566124440000749 0.48412310698583294 0.48412310698583294
0.15679962500007605 0.48705422569614076 0.486077186126038
0.1569885459998659 0.4851001465559355 0.486077186126038
0.15717631899997286 0.4831460674157304 0.4831460674157304
0.1573643510000693 0.4802149487054226 0.486077186126038
0.15755182800012335 0.4811919882755251 0.4851001465559355
0.1577392859999236 0.4802149487054226 0.4831460674157304
0.1579268549999142 0.47923790913532005 0.48216902784562765
0.15811501700000008 0.47728382999511476 0.4851001465559355
0.15830279000010705 0.4782608695652173 0.4880312652662433
0.15849021099984384 0.4811919882755251 0.4909623839765511
0.1586778169998979 0.48216902784562765 0.4948705422569615
0.1588653680000789 0.48900830483634583 0.4909623839765511
0.15905738199990083 0.486077186126038 0.4880312652662433
0.1592462290000185 0.48998534440644836 0.48900830483634583
0.15943329799983985 0.49193942354665365 0.48998534440644836
0.1596233119998942 0.4938935026868587 0.4909623839765511
0.159811991999959 0.4938935026868587 0.4929164631167562
0.15999967200013998 0.4929164631167562 0.4909623839765511
0.16018696399987675 0.495847581827064 0.49682462139716654
0.16037494000011066 0.48705422569614076 0.4938935026868587
0.16056271300021763 0.4831460674157304 0.4948705422569615
0.16128437999987 0.4782608695652173 0.4948705422569615
0.1614995039999485 0.47923790913532005 0.4929164631167562
0.16170942500002639 0.4802149487054226 0.49682462139716654
0.1619056599997748 0.4811919882755251 0.4938935026868587
0.16209410000010394 0.4811919882755251 0.495847581827064
0.1622836510000525 0.48216902784562765 0.49877870053737183
0.16247181300013835 0.4802149487054226 0.5007327796775769
0.16266127100016092 0.4831460674157304 0.4978016609672691
0.162889764999818 0.4802149487054226 0.49975574010747437
0.16307850100020005 0.47728382999511476 0.495847581827064
0.16326899600016986 0.47728382999511476 0.495847581827064
0.16349473099990064 0.48216902784562765 0.49682462139716654
0.1636907809997865 0.48216902784562765 0.49682462139716654
0.16387853600008384 0.4802149487054226 0.4938935026868587
0.1640661229998841 0.48216902784562765 0.4938935026868587
0.1642531190000227 0.4831460674157304 0.4909623839765511
0.16444076200014024 0.4851001465559355 0.49682462139716654
0.16462797900021542 0.486077186126038 0.48998534440644836
0.16485482500002036 0.4880312652662433 0.486077186126038
0.16508004199977222 0.48705422569614076 0.48998534440644836
0.1653284059998441 0.48900830483634583 0.495847581827064
0.16558919599992805 0.48998534440644836 0.4948705422569615
0.16648285800010854 0.4880312652662433 0.48900830483634583
0.16724641200016777 0.48705422569614076 0.4811919882755251
0.16870846700021502 0.4851001465559355 0.48216902784562765
0.1691689369999949 0.4802149487054226 0.48412310698583294
0.1695346309998058 0.4811919882755251 0.48216902784562765
0.16989973299996564 0.48900830483634583 0.486077186126038
0.1701758740000514 0.4909623839765511 0.486077186126038
0.17044860799978778 0.4938935026868587 0.48216902784562765
0.17064049200007503 0.4929164631167562 0.4831460674157304
0.17082911699981196 0.4948705422569615 0.4880312652662433
0.1710172230000353 0.495847581827064 0.4929164631167562
0.17120501399995192 0.5017098192476794 0.495847581827064
0.17139250999980504 0.4978016609672691 0.495847581827064
0.17162189300006503 0.49877870053737183 0.4978016609672691
0.17181159099982324 0.5075720566682951 0.4948705422569615
0.17199934600012057 0.5075720566682951 0.4948705422569615
0.17219015599994236 0.5026868588177822 0.49193942354665365
0.17237713199983773 0.5036638983878847 0.5007327796775769
0.17256622000013522 0.5105031753786029 0.49877870053737183
0.17275708599981954 0.5026868588177822 0.4938935026868587
0.17294708100007483 0.5017098192476794 0.4929164631167562
0.17313470599992797 0.5026868588177822 0.4929164631167562
0.1733212009999079 0.5036638983878847 0.49193942354665365
0.17350908500020523 0.5056179775280898 0.4929164631167562
0.1736962099998891 0.5085490962383976 0.4909623839765511
0.17388516800019715 0.5085490962383976 0.49193942354665365
0.1740735329999552 0.5085490962383976 0.4909623839765511
0.17426195400003053 0.5056179775280898 0.49193942354665365
0.1744498019997991 0.5046409379579873 0.48900830483634583
0.17465899999979229 0.5026868588177822 0.48998534440644836
0.17484856900000523 0.49877870053737183 0.48998534440644836
0.17503630500004874 0.5007327796775769 0.4880312652662433
0.17522350399985953 0.4978016609672691 0.49193942354665365
0.17541053600007217 0.49193942354665365 0.48998534440644836
0.1756004200001371 0.4948705422569615 0.486077186126038
0.17578806299979988 0.4938935026868587 0.486077186126038
0.1759762070000761 0.48998534440644836 0.486077186126038
0.17616388699980234 0.4909623839765511 0.48705422569614076
0.17635152999991988 0.495847581827064 0.48705422569614076
0.17653889599978356 0.4929164631167562 0.4880312652662433
0.17672542799982693 0.49193942354665365 0.48998534440644836
0.17691305300013482 0.49193942354665365 0.4938935026868587
0.1770999740001571 0.48998534440644836 0.4948705422569615
0.17728696899985152 0.4909623839765511 0.4909623839765511
0.17780273400012447 0.486077186126038 0.48998534440644836
0.1780171909999808 0.4880312652662433 0.49193942354665365
0.17822227899978316 0.486077186126038 0.4909623839765511
0.17841075500018633 0.4831460674157304 0.48900830483634583
0.17860076899978594 0.48705422569614076 0.4880312652662433
0.17879667099987273 0.4782608695652173 0.4880312652662433
0.178997999999865 0.48216902784562765 0.48900830483634583
0.1791889579999406 0.47923790913532005 0.48412310698583294
0.17939387800015538 0.47728382999511476 0.4802149487054226
0.17963277999979255 0.47435271128480694 0.48216902784562765
0.17989445800003523 0.4782608695652173 0.48705422569614076
0.1816140619998805 0.47239863214460187 0.49877870053737183
0.1826336290000654 0.467513434294089 0.5046409379579873
0.1828326790000574 0.46946751343429405 0.5007327796775769
0.18302769299998545 0.4733756717147044 0.5036638983878847
0.18321624300006079 0.4665363947239862 0.5105031753786029
0.18340512699978717 0.467513434294089 0.5026868588177822
0.18360478900012822 0.4753297508549097 0.49975574010747437
0.18379285799983336 0.47435271128480694 0.5007327796775769
0.18398011299996142 0.4811919882755251 0.495847581827064
0.18417266300002666 0.4851001465559355 0.495847581827064
0.18436099200016542 0.4851001465559355 0.5007327796775769
0.1845484679997753 0.486077186126038 0.4978016609672691
0.18473575999996683 0.48412310698583294 0.49682462139716654
0.184922848000042 0.4909623839765511 0.495847581827064
0.18511050899996917 0.48900830483634583 0.5007327796775769
0.18530041199983316 0.48412310698583294 0.495847581827064
0.18553438700018887 0.4811919882755251 0.49975574010747437
0.18572536400006356 0.4811919882755251 0.5026868588177822
0.18591284100011762 0.4831460674157304 0.5065950170981925
0.18610046599997077 0.4831460674157304 0.49877870053737183
0.18628729400006705 0.4851001465559355 0.4978016609672691
0.1864743820001422 0.4880312652662433 0.495847581827064
0.18666126600010102 0.495847581827064 0.495847581827064
0.18684753900015494 0.5046409379579873 0.49193942354665365
0.1870344600001772 0.5026868588177822 0.4938935026868587
0.18722202900016782 0.5085490962383976 0.4909623839765511
0.1874104130001797 0.5036638983878847 0.4909623839765511
0.1876063529998646 0.5095261358085001 0.4909623839765511
0.18779405199984467 0.5075720566682951 0.49193942354665365
0.1879813059999833 0.5065950170981925 0.4978016609672691
0.18816848699998445 0.5114802149487054 0.48705422569614076
0.18835692599986942 0.512457254518808 0.4909623839765511
0.1885453290001351 0.5075720566682951 0.4929164631167562
0.1887328239999988 0.5065950170981925 0.4909623839765511
0.18892043000005287 0.5095261358085001 0.4880312652662433
0.18910733299981075 0.5085490962383976 0.49877870053737183
0.1892942720000974 0.5036638983878847 0.4948705422569615
0.18948137899997164 0.5046409379579873 0.4880312652662433
0.18966961500018442 0.5105031753786029 0.48998534440644836
0.18985683199980485 0.5065950170981925 0.48705422569614076
0.1900443089998589 0.5017098192476794 0.48705422569614076
0.19023128500020903 0.5026868588177822 0.48412310698583294
0.1904183550000198 0.49877870053737183 0.48412310698583294
0.1906053869997777 0.49682462139716654 0.48705422569614076
0.1907920670000749 0.49193942354665365 0.4851001465559355
0.19097971100018185 0.4929164631167562 0.486077186126038
0.19116681700006666 0.49682462139716654 0.48998534440644836
0.1913551269999516 0.49193942354665365 0.49193942354665365
0.19158525100010593 0.4938935026868587 0.48705422569614076
0.19177689400021336 0.48998534440644836 0.48998534440644836
0.19196714800000336 0.48998534440644836 0.4851001465559355
0.19215743999984625 0.48900830483634583 0.48900830483634583
0.19234702699986883 0.49193942354665365 0.48705422569614076
0.19253648599988082 0.48412310698583294 0.4802149487054226
0.1927314810000098 0.4802149487054226 0.4811919882755251
0.19292812399999093 0.48412310698583294 0.48216902784562765
0.19312398900001426 0.4763067904250122 0.4802149487054226
0.19331483599989951 0.4753297508549097 0.4802149487054226
0.19351903400001902 0.47142159257449934 0.486077186126038
0.19371652900008485 0.47728382999511476 0.4811919882755251
0.19390598700010742 0.47142159257449934 0.4811919882755251
0.19409505700014051 0.47142159257449934 0.4831460674157304
0.19428494100020544 0.47142159257449934 0.47728382999511476
0.19450330600011512 0.47142159257449934 0.4782608695652173
0.19474537299993244 0.47239863214460187 0.47923790913532005
0.1949831639999502 0.4763067904250122 0.47435271128480694
0.19527684100012266 0.4831460674157304 0.4782608695652173
0.19552401999999347 0.486077186126038 0.47923790913532005
0.1957276439998168 0.4802149487054226 0.486077186126038
0.1959188619998713 0.486077186126038 0.4831460674157304
0.1961065979999148 0.4811919882755251 0.47923790913532005
0.1962939820000429 0.48216902784562765 0.4811919882755251
0.19648129200004405 0.4831460674157304 0.48216902784562765
0.19667058300001372 0.48705422569614076 0.4782608695652173
0.19685992999984592 0.48900830483634583 0.4763067904250122
0.19704805499986833 0.4909623839765511 0.4782608695652173
0.19723503200020787 0.4948705422569615 0.4753297508549097
0.1974227119999341 0.4948705422569615 0.47728382999511476
0.19760980000000927 0.49975574010747437 0.4753297508549097
0.1978235169999607 0.5026868588177822 0.4753297508549097
0.1980114190000677 0.5075720566682951 0.4753297508549097
0.19820413600018583 0.512457254518808 0.47923790913532005
0.19841220499984047 0.5134342940889105 0.4811919882755251
0.19965443299997787 0.5075720566682951 0.5017098192476794
0.19995535099997142 0.49975574010747437 0.49975574010747437
0.200159253000038 0.495847581827064 0.49877870053737183
0.20037824700011697 0.4909623839765511 0.49877870053737183
0.20058427899994058 0.48998534440644836 0.4978016609672691
0.20078305200013347 0.4948705422569615 0.495847581827064
0.2010948219999591 0.48900830483634583 0.49682462139716654
0.20228973499979475 0.4909623839765511 0.5017098192476794
0.20274866799991287 0.486077186126038 0.5056179775280898
0.20297312499997133 0.486077186126038 0.5075720566682951
0.20317782399979478 0.4948705422569615 0.5065950170981925
0.20337802199992439 0.48705422569614076 0.5036638983878847
0.20365668200020082 0.4909623839765511 0.5065950170981925
0.20384782500013898 0.4851001465559355 0.5036638983878847
0.20403745000021445 0.48998534440644836 0.5046409379579873
0.2042262039999514 0.4851001465559355 0.5026868588177822
0.20441390299993145 0.48900830483634583 0.5036638983878847
0.20460213900014423 0.4880312652662433 0.5056179775280898
0.2048188929998105 0.4938935026868587 0.5026868588177822
0.20500722099995983 0.4929164631167562 0.5017098192476794
0.20524614099986138 0.48705422569614076 0.5007327796775769
0.20547106100002566 0.48412310698583294 0.5007327796775769
0.2056901480000306 0.4831460674157304 0.5017098192476794
0.20609558200021638 0.48412310698583294 0.49877870053737183
0.2064152960001593 0.4811919882755251 0.49975574010747437
0.2066575680000824 0.4763067904250122 0.49975574010747437
0.20686504400009653 0.4763067904250122 0.49877870053737183
0.20705883499977062 0.4763067904250122 0.495847581827064
0.20724607100009962 0.4753297508549097 0.495847581827064
0.2074362889998156 0.47728382999511476 0.4929164631167562
0.2076647089998005 0.4763067904250122 0.4929164631167562
0.20786003700004585 0.4851001465559355 0.4909623839765511
0.20805367999992086 0.4851001465559355 0.4929164631167562
0.2082416570001442 0.48412310698583294 0.4938935026868587
0.2084290040002088 0.49193942354665365 0.4909623839765511
0.20861709200016776 0.48705422569614076 0.48900830483634583
0.20880417899979875 0.48900830483634583 0.48900830483634583
0.20899082300002192 0.4929164631167562 0.48900830483634583
0.20917755900018165 0.4938935026868587 0.486077186126038
0.2093637950001721 0.4938935026868587 0.4831460674157304
0.20955103100004635 0.4929164631167562 0.4851001465559355
0.20973767399982535 0.495847581827064 0.48216902784562765
0.2099239099998158 0.4880312652662433 0.48216902784562765
0.21011016400007065 0.486077186126038 0.48412310698583294
0.21029645599992364 0.4802149487054226 0.48216902784562765
0.21048356199980844 0.4782608695652173 0.4831460674157304
0.21067100199979905 0.48412310698583294 0.4831460674157304
0.2108578860002126 0.4811919882755251 0.48216902784562765
0.21104580700011866 0.47239863214460187 0.48900830483634583
0.21123333900004582 0.4753297508549097 0.4851001465559355
0.21142035299999407 0.467513434294089 0.48412310698583294
0.21161166299998513 0.4704445530043966 0.48216902784562765
0.21179937999977483 0.4684904738641915 0.48412310698583294
0.2119862650001778 0.4684904738641915 0.4880312652662433
0.21217314900013662 0.4684904738641915 0.4831460674157304
0.2123597360000531 0.4684904738641915 0.48216902784562765
0.21254636100002244 0.47239863214460187 0.48412310698583294
0.2127808919999552 0.47435271128480694 0.4851001465559355
0.21297788699985176 0.47435271128480694 0.48705422569614076
0.2131743639997694 0.4811919882755251 0.48998534440644836
0.21342408000009527 0.47435271128480694 0.49193942354665365
0.21364848099983647 0.47728382999511476 0.4909623839765511
0.21384606899982828 0.47923790913532005 0.5007327796775769
0.21404015600001003 0.48705422569614076 0.4929164631167562
0.2142385590000231 0.4831460674157304 0.48998534440644836
0.21444879399996353 0.4938935026868587 0.48998534440644836
0.21565394800018112 0.5036638983878847 0.47435271128480694
0.21599310600004173 0.5065950170981925 0.4704445530043966
0.21621572999993077 0.5075720566682951 0.4733756717147044
0.21642211400012457 0.5085490962383976 0.47239863214460187
0.21663118300011774 0.5095261358085001 0.4753297508549097
0.2168371030002163 0.5114802149487054 0.4763067904250122
0.2170614490000844 0.5144113336590133 0.4782608695652173
0.2172609439999178 0.5144113336590133 0.4782608695652173
0.21745432799980335 0.5153883732291158 0.48216902784562765
0.21765035999987958 0.5134342940889105 0.48998534440644836
0.217842095999913 0.5163654127992183 0.48216902784562765
0.2180348319998302 0.5105031753786029 0.48900830483634583
0.21822369700021227 0.5085490962383976 0.48705422569614076
0.21841139600019233 0.5026868588177822 0.4880312652662433
0.2185979099999713 0.5017098192476794 0.4909623839765511
0.21878646100003607 0.49682462139716654 0.4909623839765511
0.21898028899977362 0.49877870053737183 0.48998534440644836
0.21917809900014618 0.4880312652662433 0.4909623839765511
0.21937003799985177 0.4909623839765511 0.4909623839765511
0.21966971599977114 0.4831460674157304 0.4880312652662433
0.2198758029999226 0.4782608695652173 0.48998534440644836
0.22007200200005173 0.4782608695652173 0.4880312652662433
0.22027957000000242 0.4753297508549097 0.48900830483634583
0.22049858299988045 0.47923790913532005 0.49682462139716654
0.22098490400003357 0.47435271128480694 0.5007327796775769
0.2212006019999535 0.48216902784562765 0.512457254518808
0.22139287500021965 0.47239863214460187 0.5026868588177822
0.22158363000016834 0.4763067904250122 0.5017098192476794
0.22177062499986278 0.47728382999511476 0.5026868588177822
0.22195745299995906 0.48216902784562765 0.495847581827064
0.2221445599998333 0.48216902784562765 0.4978016609672691
0.2223314439997921 0.486077186126038 0.5007327796775769
0.2225179020001633 0.4948705422569615 0.4909623839765511
0.22270391599977302 0.5046409379579873 0.48900830483634583
0.22289057799980583 0.49682462139716654 0.486077186126038
0.22307625800021924 0.4948705422569615 0.48412310698583294
0.22326556799998798 0.4880312652662433 0.48216902784562765
0.2235362830001577 0.4851001465559355 0.48216902784562765
0.22372551899979953 0.4851001465559355 0.4831460674157304
0.22391308799979015 0.4831460674157304 0.4831460674157304
0.22409971300021425 0.4831460674157304 0.48705422569614076
0.2242860970000038 0.48900830483634583 0.4909623839765511
0.22447433300021657 0.47923790913532005 0.48998534440644836
0.22466190300019662 0.48216902784562765 0.4948705422569615
0.22485034200008158 0.48216902784562765 0.5017098192476794
0.22503724499983946 0.48705422569614076 0.4948705422569615
0.22522353600015776 0.48705422569614076 0.4929164631167562
0.22541017999992619 0.4851001465559355 0.48998534440644836
0.22559578600021268 0.48216902784562765 0.4929164631167562
0.22578213299993877 0.48412310698583294 0.48900830483634583
0.22596968400011974 0.48412310698583294 0.4880312652662433
0.22615566100012074 0.4851001465559355 0.4880312652662433
0.2263416559999314 0.4802149487054226 0.48998534440644836
0.22652713300021787 0.48216902784562765 0.4880312652662433
0.22671273900004962 0.48998534440644836 0.48900830483634583
0.22689953000008245 0.4880312652662433 0.4880312652662433
0.22708532199976617 0.4880312652662433 0.4929164631167562
0.22727118800003154 0.48900830483634583 0.486077186126038
0.22752268100020956 0.4909623839765511 0.48216902784562765
0.22771593500010567 0.4938935026868587 0.4880312652662433
0.22790548600005422 0.4909623839765511 0.4909623839765511
0.2282708470002035 0.4929164631167562 0.4851001465559355
0.22846299000002546 0.49682462139716654 0.48412310698583294
0.22865250399991055 0.4978016609672691 0.48216902784562765
0.2288429619998169 0.5026868588177822 0.48412310698583294
0.2290327169998818 0.5056179775280898 0.4851001465559355
0.2292326739998316 0.5085490962383976 0.48216902784562765
0.2294226509998225 0.5065950170981925 0.4811919882755251
0.2296121280000989 0.5026868588177822 0.47923790913532005
0.2298013820000051 0.49877870053737183 0.47728382999511476
0.22999020999986897 0.495847581827064 0.4782608695652173
0.2301805389997753 0.4948705422569615 0.4782608695652173
0.2303694600000199 0.4948705422569615 0.4811919882755251
0.2305584179998732 0.4909623839765511 0.48216902784562765
0.23074706099987452 0.4909623839765511 0.48216902784562765
0.23094709299994065 0.5026868588177822 0.4851001465559355
0.2311478100000386 0.495847581827064 0.4851001465559355
0.2313378610001564 0.4948705422569615 0.4880312652662433
0.23152839300018968 0.49877870053737183 0.4909623839765511
0.23172790699982215 0.49682462139716654 0.4929164631167562
0.23191434599993954 0.495847581827064 0.49877870053737183
0.23210400800007847 0.495847581827064 0.5017098192476794
0.23229068899991034 0.4929164631167562 0.5144113336590133
0.23247696199996426 0.4938935026868587 0.5085490962383976
0.23266323500001818 0.48900830483634583 0.5065950170981925
0.23285417399984 0.4851001465559355 0.5065950170981925
0.23304641000004267 0.4802149487054226 0.5056179775280898
0.23323277600002257 0.4811919882755251 0.5085490962383976
0.2334190110000236 0.4811919882755251 0.5075720566682951
0.23360504399988713 0.4831460674157304 0.5065950170981925
0.2337911869999516 0.4831460674157304 0.5036638983878847
0.23397684900010063 0.48998534440644836 0.5017098192476794
0.23416580699995393 0.48900830483634583 0.5007327796775769
0.23435330199981763 0.4909623839765511 0.4978016609672691
0.23454013099990334 0.4938935026868587 0.4938935026868587
0.23472631100003127 0.49975574010747437 0.4929164631167562
0.2349123620001592 0.5046409379579873 0.48900830483634583
0.23509850499976892 0.5065950170981925 0.48705422569614076
0.23528535300010844 0.5075720566682951 0.4851001465559355
0.2354937360000804 0.5095261358085001 0.49193942354665365
0.23568595300002926 0.5046409379579873 0.4851001465559355
0.23587502300006236 0.5007327796775769 0.4938935026868587
0.23606492499993692 0.495847581827064 0.4831460674157304
0.23625391999985368 0.4938935026868587 0.48216902784562765
0.23644287800016173 0.4880312652662433 0.4851001465559355
0.23663166999995155 0.4909623839765511 0.4851001465559355
0.23682172100006937 0.4851001465559355 0.4851001465559355
0.23701025299988032 0.4851001465559355 0.4851001465559355
0.2371999520000827 0.48412310698583294 0.4831460674157304
0.2373889280002004 0.48900830483634583 0.486077186126038
0.23757777499986332 0.4851001465559355 0.48412310698583294
0.2377662330000021 0.48705422569614076 0.4880312652662433
0.2379546920001303 0.48705422569614076 0.4851001465559355
0.2381434089998038 0.486077186126038 0.4909623839765511
0.23833169999988968 0.49682462139716654 0.4978016609672691
0.23852110300003915 0.48705422569614076 0.48705422569614076
0.23870983899996645 0.4880312652662433 0.4851001465559355
0.23889857499989375 0.4880312652662433 0.4831460674157304
0.23908727400021235 0.48998534440644836 0.486077186126038
0.23927576899995984 0.4938935026868587 0.4851001465559355
0.23948502299981556 0.4929164631167562 0.48705422569614076
0.23967323999977452 0.49877870053737183 0.48998534440644836
0.23989690100006555 0.4880312652662433 0.4909623839765511
0.2400852290002149 0.4851001465559355 0.4929164631167562
0.24027131699995152 0.4802149487054226 0.4938935026868587
0.24045725699988907 0.4802149487054226 0.4938935026868587
0.240642993000165 0.4802149487054226 0.495847581827064
0.24082898799997565 0.4782608695652173 0.4948705422569615
0.24102226100012558 0.4782608695652173 0.49682462139716654
0.2412079780001477 0.48216902784562765 0.495847581827064
0.24139345499997944 0.4851001465559355 0.4948705422569615
0.24157911700012846 0.4811919882755251 0.4909623839765511
0.24176522300012948 0.4811919882755251 0.48998534440644836
0.24195088499982376 0.4811919882755251 0.49193942354665365
0.24213813999995182 0.4811919882755251 0.4948705422569615
0.24232424599995284 0.4763067904250122 0.49682462139716654
0.24251013000002786 0.47435271128480694 0.4938935026868587
0.24269634800020867 0.4753297508549097 0.5046409379579873
0.2428826760001357 0.47728382999511476 0.5065950170981925
0.24306837499989342 0.47142159257449934 0.5007327796775769
0.24325525899985223 0.4684904738641915 0.49682462139716654
0.2434412180000436 0.47142159257449934 0.5036638983878847
0.24364419399989856 0.4763067904250122 0.5065950170981925
0.24383411500002694 0.4811919882755251 0.5046409379579873
0.24402344300006007 0.47728382999511476 0.5007327796775769
0.244213105000199 0.48216902784562765 0.5007327796775769
0.24440259999983027 0.4909623839765511 0.5026868588177822
0.24459196599991628 0.4851001465559355 0.5036638983878847
0.24478212799976973 0.48705422569614076 0.5065950170981925
0.2449712150000778 0.486077186126038 0.5065950170981925
0.2451602850001109 0.486077186126038 0.5085490962383976
0.24534883500018623 0.48412310698583294 0.5075720566682951
0.2455375899999126 0.48216902784562765 0.5046409379579873
0.24572606599986102 0.47923790913532005 0.5046409379579873
0.24591556199993647 0.4782608695652173 0.5046409379579873
0.24610577900011776 0.47728382999511476 0.4978016609672691
0.24629477400003452 0.47728382999511476 0.4938935026868587
0.24648337999997239 0.47728382999511476 0.49193942354665365
0.24667161600018517 0.4811919882755251 0.49193942354665365
0.246860536999975 0.48412310698583294 0.48705422569614076
0.2470494399999552 0.48998534440644836 0.4831460674157304
0.24723817599988251 0.49682462139716654 0.4802149487054226
0.2474275409999791 0.5017098192476794 0.4782608695652173
0.24761592499999097 0.49975574010747437 0.4811919882755251
0.24780249500008722 0.5017098192476794 0.47728382999511476
0.24799860099983562 0.5017098192476794 0.47728382999511476
0.24818548499979443 0.4948705422569615 0.4811919882755251
0.24837205399990125 0.49877870053737183 0.4811919882755251
0.24855982700000823 0.49193942354665365 0.486077186126038
0.24874606299999868 0.49877870053737183 0.48216902784562765
0.24896205799996096 0.48998534440644836 0.486077186126038
0.24915892299986808 0.5007327796775769 0.4831460674157304
0.2493535469998278 0.49682462139716654 0.4802149487054226
0.2495465609999883 0.495847581827064 0.48705422569614076
0.24973794500010627 0.5007327796775769 0.4802149487054226
0.2499348659998759 0.5036638983878847 0.47923790913532005
0.25015204600003926 0.5105031753786029 0.4802149487054226
0.25034811500017895 0.5026868588177822 0.47923790913532005
0.2505408689999058 0.5065950170981925 0.4782608695652173
0.25073217899989686 0.5114802149487054 0.47728382999511476
0.25092285900018396 0.5036638983878847 0.4782608695652173
0.2511324090000926 0.5007327796775769 0.486077186126038
0.25255231700020886 0.495847581827064 0.4851001465559355
0.2529071419999127 0.5065950170981925 0.48900830483634583
0.2531591719998687 0.4978016609672691 0.4831460674157304
0.2534716639997896 0.49975574010747437 0.4811919882755251
0.2536837329998889 0.4938935026868587 0.48705422569614076
0.25575953099996696 0.4802149487054226 0.495847581827064
0.2562599819998468 0.4802149487054226 0.48412310698583294
0.256510346000141 0.48412310698583294 0.48412310698583294
0.25673063600015666 0.486077186126038 0.49193942354665365
0.2569424270000127 0.48900830483634583 0.4831460674157304
0.2571566070000699 0.4929164631167562 0.4831460674157304
0.2573551199998292 0.4948705422569615 0.48216902784562765
0.2575473189999684 0.4929164631167562 0.4811919882755251
0.25773703599998044 0.48998534440644836 0.486077186126038
0.2579255679997914 0.48900830483634583 0.4851001465559355
0.25813052600005904 0.48705422569614076 0.48705422569614076
0.25831926199998634 0.48705422569614076 0.4938935026868587
0.25850755400006165 0.4802149487054226 0.486077186126038
0.25869595599988315 0.4811919882755251 0.48705422569614076
0.2588832659998843 0.4831460674157304 0.4831460674157304
0.2590714279999702 0.4782608695652173 0.4831460674157304
0.2592596079998657 0.4811919882755251 0.4802149487054226
0.2594485290001103 0.47923790913532005 0.48216902784562765
0.25967669000010574 0.4831460674157304 0.486077186126038
0.2598664629999803 0.4811919882755251 0.48412310698583294
0.2600862720000805 0.4831460674157304 0.48998534440644836
0.2602754529998492 0.48216902784562765 0.4851001465559355
0.26046281800017823 0.4831460674157304 0.48705422569614076
0.26065007299985155 0.4851001465559355 0.4851001465559355
0.260839697999927 0.48216902784562765 0.4929164631167562
0.2610271369999282 0.48412310698583294 0.4938935026868587
0.26121431799992934 0.4811919882755251 0.4938935026868587
0.26140142399981414 0.47728382999511476 0.49877870053737183
0.26158847499982585 0.47239863214460187 0.49975574010747437
0.2617766919997848 0.467513434294089 0.5065950170981925
0.2619648720001351 0.467513434294089 0.5065950170981925
0.26215270100010457 0.4636052760136786 0.5007327796775769
0.26234125200016933 0.46262823644357587 0.5007327796775769
0.2625285989997792 0.4606741573033708 0.49877870053737183
0.2627155939999284 0.46165119687347334 0.4978016609672691
0.2629031080000459 0.46262823644357587 0.4948705422569615
0.2630902139999307 0.4665363947239862 0.4929164631167562
0.2632779499999742 0.4665363947239862 0.4929164631167562
0.2634758710000824 0.4753297508549097 0.48998534440644836
0.26366536600016843 0.4733756717147044 0.48705422569614076
0.2638523800001167 0.4763067904250122 0.48900830483634583
0.26403896700003315 0.4831460674157304 0.48412310698583294
0.2642261289997805 0.4880312652662433 0.48705422569614076
0.2644125870001517 0.5007327796775769 0.49193942354665365
0.2645996380001634 0.49877870053737183 0.4938935026868587
0.264787836999858 0.49877870053737183 0.4880312652662433
0.26497531399991203 0.49975574010747437 0.48900830483634583
0.26516378999986046 0.49682462139716654 0.4909623839765511
0.26535124900010487 0.49682462139716654 0.4909623839765511
0.26553891000003205 0.49975574010747437 0.4948705422569615
0.2657258690001072 0.5007327796775769 0.4948705422569615
0.26591310499998144 0.5017098192476794 0.4929164631167562
0.26610072899984516 0.5007327796775769 0.4938935026868587
0.26628850199995213 0.5046409379579873 0.4948705422569615
0.2664757379998264 0.5056179775280898 0.49682462139716654
0.2666632519999439 0.49877870053737183 0.495847581827064
0.2668505990000085 0.4938935026868587 0.49682462139716654
0.26706268599991745 0.4948705422569615 0.4929164631167562
0.2672542919999614 0.4929164631167562 0.4909623839765511
0.26744263899990983 0.4909623839765511 0.4929164631167562
0.2676426530001663 0.4909623839765511 0.49682462139716654
0.2678306289999455 0.48998534440644836 0.4948705422569615
0.2680341430000226 0.48412310698583294 0.49193942354665365
0.26847863100010727 0.49682462139716654 0.4880312652662433
0.2687227729998085 0.495847581827064 0.4938935026868587
0.26893443400012984 0.49975574010747437 0.486077186126038
0.26918076099991595 0.49975574010747437 0.4929164631167562
0.26937318199998117 0.5026868588177822 0.48900830483634583
0.26956139999992956 0.5026868588177822 0.49193942354665365
0.2697489319998567 0.5017098192476794 0.4929164631167562
0.2699362419998579 0.5026868588177822 0.486077186126038
0.27012394099983794 0.5026868588177822 0.4831460674157304
0.2703125660000296 0.49877870053737183 0.48216902784562765
0.27050233899990417 0.49193942354665365 0.4811919882755251
0.2706893710001168 0.48998534440644836 0.48412310698583294
0.27087643999993816 0.48900830483634583 0.4831460674157304
0.27106358399987585 0.486077186126038 0.48412310698583294
0.2712506709999616 0.4880312652662433 0.4851001465559355
0.27143774099977236 0.48900830483634583 0.4802149487054226
0.27165666100017916 0.4851001465559355 0.48412310698583294
0.27184524899985263 0.4831460674157304 0.4851001465559355
0.2720318000001498 0.48412310698583294 0.48900830483634583
0.2722188500001721 0.4851001465559355 0.4909623839765511
0.27240677100007815 0.4909623839765511 0.4880312652662433
0.2725933960000475 0.48900830483634583 0.486077186126038
0.2727802250001332 0.486077186126038 0.4851001465559355
0.27296668300004967 0.48412310698583294 0.4831460674157304
0.2731551599999875 0.4851001465559355 0.4831460674157304
0.2733424329999252 0.4851001465559355 0.4811919882755251
0.27353292799989504 0.4851001465559355 0.48216902784562765
0.2737199039997904 0.48998534440644836 0.4802149487054226
0.273906899999929 0.4938935026868587 0.47923790913532005
0.274094673000036 0.4880312652662433 0.4811919882755251
0.27428235300021697 0.486077186126038 0.4831460674157304
0.27447021799980575 0.4831460674157304 0.48216902784562765
0.2746576949998598 0.4851001465559355 0.48216902784562765
0.27484480100019937 0.4909623839765511 0.4851001465559355
0.27503194500013706 0.4938935026868587 0.4831460674157304
0.27521858799991605 0.4929164631167562 0.48705422569614076
0.2754065089998221 0.4851001465559355 0.4811919882755251
0.27559707799991884 0.48900830483634583 0.4782608695652173
0.27578546299992013 0.4909623839765511 0.4782608695652173
0.2759727910001857 0.48900830483634583 0.4802149487054226
0.2761606200001552 0.48900830483634583 0.4802149487054226
0.2763478369997756 0.48705422569614076 0.4831460674157304
0.2765662199999497 0.48998534440644836 0.48216902784562765
0.2767534929998874 0.48705422569614076 0.48412310698583294
0.27694080299988855 0.486077186126038 0.4851001465559355
0.27712768699984736 0.48900830483634583 0.4831460674157304
0.27731542299989087 0.48998534440644836 0.48998534440644836
0.2775024190000295 0.4909623839765511 0.4851001465559355
0.2776897660000941 0.48900830483634583 0.4802149487054226
0.27787994600021193 0.48705422569614076 0.4802149487054226
0.2780764959998123 0.49193942354665365 0.4880312652662433
0.2782646030000251 0.4851001465559355 0.47923790913532005
0.2784522830002061 0.4851001465559355 0.4802149487054226
0.27863998200018614 0.48412310698583294 0.48412310698583294
0.27882725500012384 0.4831460674157304 0.48705422569614076
0.2790140279998923 0.4802149487054226 0.4909623839765511
0.27920072699998855 0.486077186126038 0.49193942354665365
0.2793881110001166 0.48216902784562765 0.4929164631167562
0.27957686499985357 0.4909623839765511 0.495847581827064
0.2797649529998125 0.486077186126038 0.4909623839765511
0.27995207799995114 0.48900830483634583 0.4909623839765511
0.28013859200018487 0.48705422569614076 0.4851001465559355
0.28032501300003787 0.4880312652662433 0.4851001465559355
0.28051943399987067 0.4929164631167562 0.48412310698583294
0.28070652199994583 0.4909623839765511 0.4811919882755251
0.28090609099990616 0.48998534440644836 0.4831460674157304
0.2811016229998131 0.48900830483634583 0.4909623839765511
0.28128863599977194 0.4851001465559355 0.4948705422569615
0.28147700199997416 0.4880312652662433 0.4978016609672691
0.28166488599981676 0.48216902784562765 0.5026868588177822
0.28185225100014577 0.4802149487054226 0.5017098192476794
0.2820398210001258 0.4811919882755251 0.49975574010747437
0.2828899099999944 0.47728382999511476 0.5007327796775769
0.2831362369997805 0.47728382999511476 0.5046409379579873
0.2833504720001656 0.4753297508549097 0.5056179775280898
0.2836829080001735 0.47239863214460187 0.5007327796775769
0.28390029199999844 0.47239863214460187 0.5134342940889105
0.2841632660001778 0.47239863214460187 0.5065950170981925
0.2843950380001843 0.4704445530043966 0.5017098192476794
0.2846971419999136 0.4802149487054226 0.48998534440644836
0.2859218140001758 0.4811919882755251 0.4880312652662433
0.2862005289998706 0.4851001465559355 0.4851001465559355
0.2864182090002032 0.4811919882755251 0.48705422569614076
0.28663131399980557 0.4909623839765511 0.48216902784562765
0.2868406419997882 0.48900830483634583 0.48412310698583294
0.2871611710002071 0.486077186126038 0.4851001465559355
0.2873928869998963 0.4851001465559355 0.48705422569614076
0.28773011900011625 0.48412310698583294 0.4938935026868587
0.28799213100001 0.4831460674157304 0.4978016609672691
0.2882416249999551 0.47923790913532005 0.5036638983878847
0.288524599000084 0.4802149487054226 0.49877870053737183
0.2888083140001072 0.486077186126038 0.49975574010747437
0.2890513080001256 0.4831460674157304 0.5065950170981925
0.2893172079998294 0.4909623839765511 0.49682462139716654
0.289558665000186 0.4948705422569615 0.4929164631167562
0.28979067799991753 0.4929164631167562 0.4929164631167562
0.29003596800021114 0.49682462139716654 0.4880312652662433
0.2902574059999097 0.4978016609672691 0.486077186126038
0.29044871599990074 0.5046409379579873 0.4831460674157304
0.2906370259997857 0.495847581827064 0.4782608695652173
0.2908246510000936 0.49975574010747437 0.4763067904250122
0.29101149799998893 0.5046409379579873 0.4733756717147044
0.29119938199983153 0.49877870053737183 0.46946751343429405
0.2913879520001501 0.5007327796775769 0.47239863214460187
0.29160846400009177 0.5007327796775769 0.46458231558378116
0.2917963670001882 0.5007327796775769 0.4684904738641915
0.29198315799976626 0.5036638983878847 0.47728382999511476
0.2921699130001798 0.5056179775280898 0.46946751343429405
0.29236022299983233 0.5007327796775769 0.47239863214460187
0.29254742200009787 0.49877870053737183 0.4753297508549097
0.29273552799986646 0.5026868588177822 0.4753297508549097
0.29292252300001564 0.5026868588177822 0.4753297508549097
0.29310935200010135 0.5026868588177822 0.48412310698583294
0.2932967359997747 0.5065950170981925 0.48412310698583294
0.29348365699979695 0.5075720566682951 0.48216902784562765
0.29367011500016815 0.5134342940889105 0.48216902784562765
0.2938592030000109 0.5202735710796287 0.4831460674157304
0.2940462540000226 0.5105031753786029 0.48412310698583294
0.29423287899999195 0.5017098192476794 0.4811919882755251
0.2944200590000037 0.5075720566682951 0.48705422569614076
0.2946070729999519 0.495847581827064 0.48998534440644836
0.2947952350000378 0.5036638983878847 0.48998534440644836
0.29498282199983805 0.4978016609672691 0.4811919882755251
0.2951693919999343 0.49877870053737183 0.48705422569614076
0.29535612800009403 0.5007327796775769 0.48705422569614076
0.29556151099995986 0.5056179775280898 0.4831460674157304
0.29575002499996117 0.4909623839765511 0.486077186126038
0.29597848200000954 0.495847581827064 0.4802149487054226
0.29616980999981024 0.4909623839765511 0.486077186126038
0.29635780599983264 0.4831460674157304 0.48998534440644836
0.29654572700019344 0.4811919882755251 0.49193942354665365
0.2967325740000888 0.47728382999511476 0.49877870053737183
0.2969191249999312 0.4665363947239862 0.5007327796775769
0.29710674899979495 0.457743038593063 0.5007327796775769
0.29729804099997637 0.45969711773326827 0.49682462139716654
0.29748514699986117 0.45481191988275516 0.5065950170981925
0.2976757719998204 0.4557889594528579 0.4978016609672691
0.2978624709999167 0.4557889594528579 0.5007327796775769
0.2980589290000353 0.45969711773326827 0.5036638983878847
0.2982523499999843 0.4587200781631655 0.5007327796775769
0.29843988199991145 0.46165119687347334 0.5036638983878847
0.2986276920000819 0.467513434294089 0.5007327796775769
0.29884892700010823 0.47239863214460187 0.49975574010747437
0.2990352739998343 0.47435271128480694 0.5007327796775769
0.2992223619999095 0.4802149487054226 0.4929164631167562
0.29940896800007977 0.4802149487054226 0.5007327796775769
0.2996004450001237 0.4851001465559355 0.4938935026868587
0.299789846999829 0.48705422569614076 0.495847581827064
0.29997611999988294 0.48412310698583294 0.4929164631167562
0.3001628379997783 0.486077186126038 0.4909623839765511
0.30035068500001216 0.4782608695652173 0.4929164631167562
0.3005380499998864 0.48216902784562765 0.4880312652662433
0.3007259900000463 0.47923790913532005 0.4938935026868587
0.3009130219998042 0.48412310698583294 0.4909623839765511
0.30109990600021774 0.4880312652662433 0.4909623839765511
0.30128682699978526 0.4929164631167562 0.4909623839765511
0.30147950799982937 0.4948705422569615 0.48705422569614076
0.30167311400009567 0.5026868588177822 0.48900830483634583
0.3018753490000563 0.49975574010747437 0.48705422569614076
0.3020785660000911 0.49975574010747437 0.5007327796775769
0.30227358000001914 0.5056179775280898 0.49193942354665365
0.30246100100021067 0.5036638983878847 0.49193942354665365
0.30264742200006367 0.5085490962383976 0.49193942354665365
0.30283530599990627 0.5046409379579873 0.4929164631167562
0.30302437499994994 0.49682462139716654 0.4938935026868587
0.3032119999998031 0.48900830483634583 0.4851001465559355
0.30340318099979413 0.4753297508549097 0.48998534440644836
0.3035958790001132 0.46458231558378116 0.48900830483634583
0.30378450399985013 0.45676599902296044 0.4909623839765511
0.30399711000018215 0.4557889594528579 0.49193942354665365
0.3041843269998026 0.457743038593063 0.495847581827064
0.304371915000047 0.44699560332193444 0.4880312652662433
0.3045591139998578 0.4509037616023448 0.4948705422569615
0.30474575700009154 0.4636052760136786 0.4938935026868587
0.30493273399997634 0.4606741573033708 0.4948705422569615
0.3051196000001255 0.47239863214460187 0.4909623839765511
0.3053070390001267 0.4782608695652173 0.4909623839765511
0.3055001819998324 0.47728382999511476 0.4938935026868587
0.3056879000000663 0.4802149487054226 0.4909623839765511
0.30587480199983474 0.4851001465559355 0.4948705422569615
0.3060619829998359 0.48412310698583294 0.4929164631167562
0.30624912599978416 0.486077186126038 0.4948705422569615
0.3064359360000708 0.4909623839765511 0.49193942354665365
0.30662248699991324 0.49682462139716654 0.4938935026868587
0.30680944499999896 0.5007327796775769 0.4909623839765511
0.30699688499998956 0.5056179775280898 0.495847581827064
0.30718408399980035 0.5075720566682951 0.4938935026868587
0.3073704859998543 0.5144113336590133 0.49682462139716654
0.3075791289998051 0.5251587689301416 0.4978016609672691
0.3077704759998596 0.5212506106497312 0.4978016609672691
0.30797204500004227 0.5192965315095261 0.4929164631167562
0.3081627249998746 0.522227650219834 0.49682462139716654
0.30835470200008785 0.5232046897899365 0.4880312652662433
0.30854534499985675 0.524181729360039 0.4948705422569615
0.3087386180000067 0.5212506106497312 0.49193942354665365
0.30892907599991304 0.5232046897899365 0.4929164631167562
0.30912018199978775 0.5251587689301416 0.4909623839765511
0.3093107700001383 0.5202735710796287 0.48900830483634583
0.3095009499998014 0.5163654127992183 0.486077186126038
0.30969459300013114 0.5095261358085001 0.4909623839765511
0.3098897919999217 0.5075720566682951 0.48412310698583294
0.31008897199990315 0.5046409379579873 0.486077186126038
0.3102872079998633 0.5007327796775769 0.48412310698583294
0.3104828139998972 0.4938935026868587 0.4831460674157304
0.3106730129998141 0.495847581827064 0.48412310698583294
0.3108637489999637 0.4938935026868587 0.48412310698583294
0.3110548549998384 0.4978016609672691 0.48705422569614076
0.31124531300019953 0.4978016609672691 0.4811919882755251
0.3114353639998626 0.49975574010747437 0.48998534440644836
0.3116582650000055 0.5007327796775769 0.4880312652662433
0.3118488340001022 0.4978016609672691 0.4880312652662433
0.3120405889999347 0.5036638983878847 0.48998534440644836
0.31225160199983293 0.5085490962383976 0.4831460674157304
0.31244244900017293 0.5026868588177822 0.486077186126038
0.31263435099981507 0.5026868588177822 0.48412310698583294
0.3128245689999858 0.5026868588177822 0.4851001465559355
0.3130145079999238 0.49877870053737183 0.4831460674157304
0.31320428099979836 0.49682462139716654 0.48412310698583294
0.3133946279999691 0.4938935026868587 0.48412310698583294
0.313584512000034 0.4909623839765511 0.48900830483634583
0.313776118000078 0.48998534440644836 0.4880312652662433
0.3139665949997834 0.486077186126038 0.4909623839765511
0.3141659600000821 0.49193942354665365 0.4938935026868587
0.3143620659998305 0.4880312652662433 0.4929164631167562
0.31455324699982157 0.48705422569614076 0.49682462139716654
0.3147430570002143 0.48216902784562765 0.5026868588177822
0.3149322740000571 0.48705422569614076 0.4938935026868587
0.3151223250001749 0.4831460674157304 0.4978016609672691
0.31531244899997546 0.4880312652662433 0.5007327796775769
0.3161034479999216 0.47142159257449934 0.4880312652662433
0.31637653300003876 0.4763067904250122 0.4909623839765511
0.31659221300014906 0.4763067904250122 0.486077186126038
0.3168035220001002 0.4763067904250122 0.4948705422569615
0.3170579419997921 0.4782608695652173 0.48900830483634583
0.3172626219998165 0.486077186126038 0.4880312652662433
0.31754405899982885 0.4831460674157304 0.4929164631167562
0.3177705530001731 0.48216902784562765 0.49682462139716654
0.31810550699992746 0.48412310698583294 0.4978016609672691
0.3186974370000826 0.48412310698583294 0.49682462139716654
0.3189832260000003 0.4880312652662433 0.49682462139716654
0.3192317009998078 0.48412310698583294 0.4802149487054226
0.31943619599996964 0.4831460674157304 0.4880312652662433
0.31968118899976616 0.4851001465559355 0.4831460674157304
0.31988909099982266 0.4880312652662433 0.48412310698583294
0.320109660000071 0.47923790913532005 0.4811919882755251
0.3203304130001925 0.47239863214460187 0.4831460674157304
0.32055772200010324 0.4763067904250122 0.48705422569614076
0.32078218000015113 0.46458231558378116 0.486077186126038
0.3210093769998821 0.467513434294089 0.4929164631167562
0.3212434460001532 0.45676599902296044 0.486077186126038
0.3215044939997824 0.4528578407425501 0.486077186126038
0.321781283999826 0.4528578407425501 0.48705422569614076
0.3219823340000403 0.4509037616023448 0.48705422569614076
0.32218101399985244 0.4528578407425501 0.48998534440644836
0.3224338219997662 0.4538348803126526 0.4851001465559355
0.3226681500000268 0.4557889594528579 0.48900830483634583
0.3228620710001451 0.457743038593063 0.49193942354665365
0.3230559359999461 0.45676599902296044 0.48998534440644836
0.32324332000007416 0.45676599902296044 0.49193942354665365
0.32343042599995897 0.45481191988275516 0.49682462139716654
0.32362907000015184 0.46262823644357587 0.495847581827064
0.32381756499989933 0.47239863214460187 0.4948705422569615
0.3240089490000173 0.4655593551538837 0.48998534440644836
0.3241969440000503 0.47923790913532005 0.49193942354665365
0.3243840690001889 0.49193942354665365 0.4948705422569615
0.3245710269998199 0.4880312652662433 0.4938935026868587
0.32475833699982104 0.4929164631167562 0.5036638983878847
0.32494607299986455 0.495847581827064 0.5026868588177822
0.32513743800018347 0.4948705422569615 0.5026868588177822
0.3253249889999097 0.48998534440644836 0.5046409379579873
0.32551259499996377 0.495847581827064 0.495847581827064
0.32569962800016583 0.49682462139716654 0.49975574010747437
0.3258869189999132 0.49975574010747437 0.49877870053737183
0.3260745070001576 0.5007327796775769 0.49682462139716654
0.32626181700015877 0.5085490962383976 0.4948705422569615
0.3264492190000965 0.5134342940889105 0.495847581827064
0.32663714099999197 0.5173424523693209 0.49877870053737183
0.3268243769998662 0.5212506106497312 0.49877870053737183
0.3270128899998781 0.5319980459208598 0.48705422569614076
0.3272001079999427 0.5349291646311676 0.4909623839765511
0.32738821400016604 0.5368832437713726 0.48900830483634583
0.3275823760000094 0.533952125061065 0.48705422569614076
0.32776875999979893 0.5378602833414754 0.4851001465559355
0.3279566070000328 0.5359062042012701 0.49193942354665365
0.32814367599985417 0.5310210063507572 0.4909623839765511
0.3283305790000668 0.5300439667806547 0.48900830483634583
0.3285174439997718 0.5261358085002443 0.48998534440644836
0.3287041799999315 0.5202735710796287 0.49193942354665365
0.32889152699999613 0.5173424523693209 0.4880312652662433
0.329079596000156 0.5134342940889105 0.4909623839765511
0.32926661000010427 0.5144113336590133 0.48998534440644836
0.32945334599980924 0.5105031753786029 0.4880312652662433
0.3296410080001806 0.5144113336590133 0.4909623839765511
0.3298281140000654 0.5163654127992183 0.4938935026868587
0.3300150909999502 0.5153883732291158 0.49193942354665365
0.33020240099995135 0.5232046897899365 0.4929164631167562
0.3303900440000689 0.5202735710796287 0.4909623839765511
0.3306029089999356 0.5212506106497312 0.48705422569614076
0.3307906270001695 0.5271128480703469 0.4851001465559355
0.3309775660000014 0.5212506106497312 0.4851001465559355
0.33116469100014 0.522227650219834 0.4880312652662433
0.331351648999771 0.5173424523693209 0.48705422569614076
0.33155470000019704 0.5163654127992183 0.486077186126038
0.3317425469999762 0.5163654127992183 0.486077186126038
0.3319313379997766 0.5105031753786029 0.48705422569614076
0.33211979599991537 0.5105031753786029 0.4811919882755251
0.3323076619999483 0.5065950170981925 0.48216902784562765
0.3324950460000764 0.5046409379579873 0.48900830483634583
0.33268279999992956 0.5036638983878847 0.4938935026868587
0.3328699250000682 0.5065950170981925 0.4929164631167562
0.3330575499999213 0.4978016609672691 0.48998534440644836
0.33324574900007065 0.4929164631167562 0.4909623839765511
0.333433039999818 0.4880312652662433 0.48900830483634583
0.33362014700014697 0.4880312652662433 0.4851001465559355
0.33380678999992597 0.4851001465559355 0.48412310698583294
0.33399454499976855 0.4831460674157304 0.4831460674157304
0.33418905799999266 0.4782608695652173 0.48216902784562765
0.3343956079997952 0.47923790913532005 0.47728382999511476
0.3346253989998331 0.4782608695652173 0.4802149487054226
0.33484380099980626 0.47728382999511476 0.47923790913532005
0.3350585170001068 0.47923790913532005 0.4851001465559355
0.3352547159997812 0.47728382999511476 0.4802149487054226
0.33544289600013144 0.4763067904250122 0.4851001465559355
0.33566792800002077 0.4733756717147044 0.4851001465559355
0.3358556819998739 0.46946751343429405 0.48705422569614076
0.3360436220000338 0.4733756717147044 0.4880312652662433
0.33623093200003495 0.4763067904250122 0.49877870053737183
0.33641920499985645 0.4704445530043966 0.4909623839765511
0.3366065889999845 0.4684904738641915 0.4909623839765511
0.3367944910000915 0.4733756717147044 0.4938935026868587
0.3369817460002196 0.4733756717147044 0.48998534440644836
0.33716966700012563 0.4763067904250122 0.4909623839765511
0.3373581989999366 0.4782608695652173 0.48900830483634583
0.33754687900000135 0.4782608695652173 0.4909623839765511
0.33773341200003415 0.47728382999511476 0.48900830483634583
0.33792131400014114 0.4782608695652173 0.4880312652662433
0.3381103090000579 0.49193942354665365 0.4831460674157304
0.3382985270000063 0.4880312652662433 0.4811919882755251
0.3384870959998807 0.486077186126038 0.495847581827064
0.3386911279999367 0.4909623839765511 0.4938935026868587
0.33887910500016005 0.4909623839765511 0.4909623839765511
0.3390668030001507 0.48998534440644836 0.4851001465559355
0.33927940900002795 0.48705422569614076 0.4909623839765511
0.33949123699994743 0.4948705422569615 0.5036638983878847
0.3396888620000027 0.4929164631167562 0.49682462139716654
0.3398804680000467 0.48998534440644836 0.495847581827064
0.34007238899994263 0.486077186126038 0.495847581827064
0.34026271699985955 0.4880312652662433 0.5017098192476794
0.34045308299982935 0.4880312652662433 0.5056179775280898
0.340643633000127 0.48998534440644836 0.5134342940889105
0.34083442500013916 0.48998534440644836 0.5114802149487054
0.3410244940000666 0.486077186126038 0.5105031753786029
0.34121813699994163 0.4802149487054226 0.5075720566682951
0.34145331599984274 0.4831460674157304 0.5085490962383976
0.34164546000010887 0.48412310698583294 0.5075720566682951
0.3418360099999518 0.48412310698583294 0.5056179775280898
0.34202587600020706 0.4948705422569615 0.5046409379579873
0.3422154820000287 0.4948705422569615 0.5026868588177822
0.3424051249999138 0.48998534440644836 0.4948705422569615
0.34259569400001055 0.48998534440644836 0.5007327796775769
0.3427867270002025 0.48998534440644836 0.4978016609672691
0.34297655499995017 0.48998534440644836 0.49193942354665365
0.34316708699998344 0.4938935026868587 0.4929164631167562
0.3433568049999849 0.49877870053737183 0.486077186126038
0.3435601510000197 0.48998534440644836 0.4948705422569615
0.3437516650001271 0.4880312652662433 0.48705422569614076
0.34394195599998056 0.4909623839765511 0.49193942354665365
0.3441319509997811 0.49682462139716654 0.4851001465559355
0.3443217429999095 0.48900830483634583 0.4880312652662433
0.34451142299985804 0.4880312652662433 0.4880312652662433
0.3447011220000604 0.4851001465559355 0.48705422569614076
0.34489122800005134 0.4831460674157304 0.48412310698583294
0.3450816859999577 0.4851001465559355 0.48705422569614076
0.3452714219997688 0.4811919882755251 0.4938935026868587
0.34546234299978096 0.47923790913532005 0.4880312652662433
0.34565280100014206 0.4782608695652173 0.486077186126038
0.34584314799985805 0.4802149487054226 0.4929164631167562
0.3460321620000286 0.4831460674157304 0.49193942354665365
0.3462220639999032 0.4851001465559355 0.4880312652662433
0.3464124490001268 0.4802149487054226 0.49193942354665365
0.346602146999885 0.4880312652662433 0.4938935026868587
0.34679316099982316 0.4782608695652173 0.48900830483634583
0.3470133219998388 0.4929164631167562 0.495847581827064
0.3472055389997877 0.4880312652662433 0.486077186126038
0.34741021899981206 0.4851001465559355 0.49193942354665365
0.34761619499977314 0.4880312652662433 0.48900830483634583
0.34781335700017735 0.4880312652662433 0.4909623839765511
0.34800546299993584 0.4909623839765511 0.486077186126038
0.3481975509998847 0.486077186126038 0.48705422569614076
0.34839241600002424 0.4811919882755251 0.48900830483634583
0.3485841890001211 0.4811919882755251 0.4880312652662433
0.34877557299978434 0.4782608695652173 0.49193942354665365
0.34966958699988027 0.48216902784562765 0.48998534440644836
0.3498838219998106 0.4948705422569615 0.48705422569614076
0.3501144460001342 0.4909623839765511 0.4938935026868587
0.35033875499993883 0.49877870053737183 0.495847581827064
0.3505493610000485 0.48998534440644836 0.49975574010747437
0.3508079469997938 0.4948705422569615 0.49975574010747437
0.35104153400016 0.4909623839765511 0.495847581827064
0.351312248999875 0.495847581827064 0.48998534440644836
0.3518654200001947 0.5036638983878847 0.4880312652662433
0.3521522089999962 0.49877870053737183 0.4909623839765511
0.3523759989998325 0.4948705422569615 0.486077186126038
0.3525994010001341 0.4938935026868587 0.4909623839765511
0.352813155000149 0.49193942354665365 0.49193942354665365
0.35303720499996416 0.4948705422569615 0.48216902784562765
0.353267957999833 0.4851001465559355 0.4811919882755251
0.3534867859998485 0.47728382999511476 0.4811919882755251
0.35371505800003433 0.48216902784562765 0.4802149487054226
0.35393969999995534 0.4763067904250122 0.48412310698583294
0.35419711900021866 0.47142159257449934 0.48216902784562765
0.354449668000143 0.47728382999511476 0.4802149487054226
0.35470466200013107 0.4655593551538837 0.4851001465559355
0.3549469519998638 0.4684904738641915 0.48900830483634583
0.35517442799982746 0.46946751343429405 0.4851001465559355
0.35537333000002036 0.4655593551538837 0.486077186126038
0.35560230600003706 0.46165119687347334 0.48412310698583294
0.35579172699999617 0.46262823644357587 0.4929164631167562
0.35597909199987043 0.46165119687347334 0.4851001465559355
0.3561661799999456 0.4655593551538837 0.48900830483634583
0.3563536380002006 0.46946751343429405 0.4909623839765511
0.3565410040000643 0.46946751343429405 0.4880312652662433
0.35672762900003363 0.4763067904250122 0.4929164631167562
0.3569160130000455 0.4811919882755251 0.4948705422569615
0.35710354499997266 0.48900830483634583 0.49682462139716654
0.3573268720001579 0.495847581827064 0.495847581827064
0.357516164000117 0.5095261358085001 0.4948705422569615
0.3577048809997905 0.5056179775280898 0.49193942354665365
0.35789250600009836 0.5144113336590133 0.495847581827064
0.3580857599999945 0.5192965315095261 0.49193942354665365
0.3582782739999857 0.524181729360039 0.4880312652662433
0.3584664539998812 0.5261358085002443 0.48900830483634583
0.3586536160000833 0.5280898876404494 0.48998534440644836
0.35884138900019025 0.5310210063507572 0.48900830483634583
0.3590295700000752 0.5319980459208598 0.4880312652662433
0.3592168430000129 0.5271128480703469 0.495847581827064
0.3594043379998766 0.5202735710796287 0.4880312652662433
0.359595537000132 0.5202735710796287 0.48900830483634583
0.35978293900006975 0.5153883732291158 0.4880312652662433
0.3599698789998911 0.5134342940889105 0.4938935026868587
0.3601571149997653 0.5105031753786029 0.4880312652662433
0.3603441280001789 0.5026868588177822 0.4929164631167562
0.36053130900018004 0.5017098192476794 0.49877870053737183
0.36071817399988504 0.4978016609672691 0.49877870053737183
0.3609067990000767 0.495847581827064 0.5007327796775769
0.3611070900001323 0.4929164631167562 0.5065950170981925
0.3612968450001972 0.48900830483634583 0.5075720566682951
0.36148402500020893 0.4948705422569615 0.5144113336590133
0.3616715389998717 0.4851001465559355 0.5114802149487054
0.3618582750000314 0.4880312652662433 0.5153883732291158
0.3620450290000008 0.4782608695652173 0.5085490962383976
0.36223258000018177 0.486077186126038 0.5085490962383976
0.3624193529999502 0.4753297508549097 0.5095261358085001
0.3626074779999726 0.47142159257449934 0.5105031753786029
0.3627949729998363 0.4753297508549097 0.5017098192476794
0.3629817460000595 0.4733756717147044 0.5056179775280898
0.36316907499985973 0.47728382999511476 0.5056179775280898
0.363356124999882 0.4811919882755251 0.5056179775280898
0.3635558239998318 0.4802149487054226 0.5046409379579873
0.3637430230000973 0.4782608695652173 0.5065950170981925
0.363930296000035 0.4831460674157304 0.4978016609672691
0.3641174389999833 0.4811919882755251 0.4978016609672691
0.3643047679997835 0.47923790913532005 0.5007327796775769
0.3644915220002076 0.47923790913532005 0.5026868588177822
0.3646790170000713 0.4802149487054226 0.5114802149487054
0.3648662159998821 0.4782608695652173 0.5026868588177822
0.3650539149998622 0.4782608695652173 0.5026868588177822
0.3652496509998855 0.48412310698583294 0.49877870053737183
0.36543759000005593 0.4831460674157304 0.495847581827064
0.3656260120001207 0.4880312652662433 0.4909623839765511
0.36581285900001603 0.4909623839765511 0.486077186126038
0.3659999460001018 0.4929164631167562 0.4811919882755251
0.3661873490000289 0.49682462139716654 0.4831460674157304
0.3663737520000723 0.5017098192476794 0.4802149487054226
0.3665602470000522 0.5017098192476794 0.4733756717147044
0.3667474089997995 0.4978016609672691 0.4733756717147044
0.36693390399977943 0.49877870053737183 0.4753297508549097
0.3671206210001401 0.4978016609672691 0.47923790913532005
0.3673143569999411 0.49975574010747437 0.4763067904250122
0.36803981999992175 0.49877870053737183 0.495847581827064
0.3682786290000877 0.4929164631167562 0.4978016609672691
0.3684681790000468 0.4929164631167562 0.4978016609672691
0.3686607119998371 0.4929164631167562 0.49877870053737183
0.3688497250000182 0.49877870053737183 0.4938935026868587
0.3690378129999772 0.5017098192476794 0.4909623839765511
0.3692248269999254 0.4978016609672691 0.49682462139716654
0.3694145810000009 0.5036638983878847 0.4938935026868587
0.3696025760000339 0.5046409379579873 0.4929164631167562
0.3697910529999717 0.4978016609672691 0.4880312652662433
0.3699785849998989 0.5065950170981925 0.48998534440644836
0.3701656170001115 0.49877870053737183 0.49193942354665365
0.37035227900014434 0.4978016609672691 0.4880312652662433
0.3705390149998493 0.4978016609672691 0.495847581827064
0.3707256590000725 0.4938935026868587 0.4948705422569615
0.3709128390000842 0.4929164631167562 0.48998534440644836
0.3711003339999479 0.4909623839765511 0.48998534440644836
0.3712870149997798 0.49193942354665365 0.48998534440644836
0.3714949169998363 0.495847581827064 0.49193942354665365
0.3716857640001763 0.49682462139716654 0.4880312652662433
0.37187296299998707 0.5026868588177822 0.4929164631167562
0.3720625870000731 0.5046409379579873 0.4880312652662433
0.37224943399996846 0.5017098192476794 0.4880312652662433
0.3724366149999696 0.5017098192476794 0.4851001465559355
0.37262357300005533 0.49975574010747437 0.4851001465559355
0.37281001300016214 0.5056179775280898 0.4811919882755251
0.37299756299989895 0.5017098192476794 0.4948705422569615
0.37318578099984734 0.5046409379579873 0.486077186126038
0.37337334999983796 0.5017098192476794 0.4880312652662433
0.3736684720001904 0.49877870053737183 0.48705422569614076
0.37388920700004746 0.4938935026868587 0.48216902784562765
0.3740781279998373 0.49193942354665365 0.486077186126038
0.3742662529998597 0.4880312652662433 0.48216902784562765
0.3744528040001569 0.486077186126038 0.4831460674157304
0.3746401319999677 0.48412310698583294 0.486077186126038
0.3748276649998843 0.48216902784562765 0.4851001465559355
0.3750429179999628 0.4831460674157304 0.48216902784562765
0.3752323759999854 0.4782608695652173 0.48216902784562765
0.3754205010000078 0.47239863214460187 0.48705422569614076
0.37561634799976673 0.46946751343429405 0.4948705422569615
0.3758077319998847 0.47142159257449934 0.4978016609672691
0.37600039400012975 0.46165119687347334 0.48998534440644836
0.37619266699994114 0.4587200781631655 0.49682462139716654
0.3763835139998264 0.45188080117244755 0.4948705422569615
0.37657337900009225 0.44992672203224227 0.4938935026868587
0.37676311499990334 0.44699560332193444 0.48998534440644836
0.3769528510001692 0.4430874450415241 0.4938935026868587
0.37719612199998664 0.4538348803126526 0.4880312652662433
0.3773889139997664 0.457743038593063 0.48705422569614076
0.3775807789997998 0.457743038593063 0.4851001465559355
0.37777120000009745 0.45969711773326827 0.48412310698583294
0.3779631209999934 0.4636052760136786 0.48216902784562765
0.3781746159997965 0.46946751343429405 0.4782608695652173
0.3783670920001896 0.46946751343429405 0.4851001465559355
0.37855799499993736 0.46946751343429405 0.48705422569614076
0.3787483229998543 0.47239863214460187 0.48900830483634583
0.37893933699979243 0.47728382999511476 0.49193942354665365
0.3791307390001748 0.4851001465559355 0.4948705422569615
0.37932095699989077 0.4909623839765511 0.49193942354665365
0.37951163700017787 0.48998534440644836 0.4938935026868587
0.37970227999994677 0.5046409379579873 0.48705422569614076
0.37989236800012804 0.512457254518808 0.4811919882755251
0.38008232599986513 0.5105031753786029 0.4811919882755251
0.38027306200001476 0.5232046897899365 0.48412310698583294
0.380463686999974 0.524181729360039 0.4811919882755251
0.3806752549999146 0.5261358085002443 0.4811919882755251
0.3808943610001734 0.5212506106497312 0.4782608695652173
0.3811052999999447 0.5183194919394236 0.48412310698583294
0.381343182999899 0.5017098192476794 0.486077186126038
0.3815559370000301 0.5105031753786029 0.48998534440644836
0.381749875999958 0.4948705422569615 0.4909623839765511
0.38194116700015 0.4938935026868587 0.48900830483634583
0.3822216049998133 0.49193942354665365 0.4929164631167562
0.38251098599994293 0.4938935026868587 0.495847581827064
0.3827137960001892 0.4938935026868587 0.4948705422569615
0.3829121059998215 0.4929164631167562 0.49682462139716654
0.3831555249998928 0.4909623839765511 0.5007327796775769
0.38336126100011825 0.49193942354665365 0.49682462139716654
0.3836079580000842 0.4880312652662433 0.49877870053737183
0.3838200270001835 0.48705422569614076 0.4948705422569615
0.38401568800009045 0.48705422569614076 0.49975574010747437
0.38420818299982784 0.48412310698583294 0.49682462139716654
0.38441547399997944 0.4811919882755251 0.4938935026868587
0.38471489299990935 0.4831460674157304 0.49975574010747437
0.38498294100008934 0.48900830483634583 0.5007327796775769
0.3852919149999252 0.4880312652662433 0.5007327796775769
0.3855510560001676 0.48900830483634583 0.5036638983878847
0.38580695700011347 0.4978016609672691 0.5017098192476794
0.38601691499980006 0.4948705422569615 0.5075720566682951
0.3862309460000688 0.49975574010747437 0.4978016609672691
0.38643784799978675 0.4948705422569615 0.5017098192476794
0.3866683979999834 0.49193942354665365 0.5007327796775769
0.3868928369997775 0.5007327796775769 0.5017098192476794
0.3879214029998366 0.4938935026868587 0.4909623839765511
0.38880362100007915 0.495847581827064 0.4929164631167562
0.38902576400005273 0.5007327796775769 0.48900830483634583
0.3892205180000019 0.4978016609672691 0.4929164631167562
0.3894097540000985 0.495847581827064 0.4978016609672691
0.3895983970000998 0.49877870053737183 0.4909623839765511
0.38978824400010126 0.49877870053737183 0.4880312652662433
0.3899760909998804 0.49975574010747437 0.4909623839765511
0.390163659999871 0.4948705422569615 0.49193942354665365
0.3903510999998616 0.495847581827064 0.49682462139716654
0.3905379289999473 0.5017098192476794 0.4948705422569615
0.39072540500001196 0.4938935026868587 0.4909623839765511
0.39091480800016143 0.495847581827064 0.49193942354665365
0.3911018220001097 0.4978016609672691 0.5007327796775769
0.39128935400003684 0.4929164631167562 0.48705422569614076
0.3915156630000638 0.48998534440644836 0.48705422569614076
0.39170551000006526 0.486077186126038 0.4851001465559355
0.3918932639999184 0.4880312652662433 0.48216902784562765
0.3920809629998985 0.4851001465559355 0.4909623839765511
0.3922683290002169 0.48216902784562765 0.4831460674157304
0.3924558789999537 0.4831460674157304 0.486077186126038
0.3926458559999446 0.4811919882755251 0.4851001465559355
0.3928338139999141 0.47728382999511476 0.48900830483634583
0.3930429010001717 0.4763067904250122 0.48900830483634583
0.39323080399981336 0.4802149487054226 0.4909623839765511
0.3934185399998569 0.48412310698583294 0.48412310698583294
0.39362209000000803 0.4782608695652173 0.4909623839765511
0.3938119370000095 0.4880312652662433 0.49682462139716654
0.393999358000201 0.4831460674157304 0.48705422569614076
0.3941862050000964 0.486077186126038 0.48216902784562765
0.3943729600000552 0.48216902784562765 0.48705422569614076
0.3945600850001938 0.4811919882755251 0.49193942354665365
0.39474739500019496 0.47435271128480694 0.4851001465559355
0.3949349079998683 0.4733756717147044 0.48998534440644836
0.39512227400018674 0.4704445530043966 0.48705422569614076
0.3953096770001139 0.46946751343429405 0.48412310698583294
0.3954991720001999 0.4684904738641915 0.4880312652662433
0.3956872779999685 0.4655593551538837 0.4880312652662433
0.3958746620000966 0.46458231558378116 0.4909623839765511
0.3960628979998546 0.47142159257449934 0.48216902784562765
0.396251244999803 0.4655593551538837 0.4851001465559355
0.39643912900010037 0.4665363947239862 0.4851001465559355
0.39662771699977384 0.47435271128480694 0.4831460674157304
0.396814582999923 0.4802149487054226 0.4782608695652173
0.3970060779997766 0.48216902784562765 0.47923790913532005
0.39719511000021157 0.48705422569614076 0.47923790913532005
0.3973826229998849 0.48705422569614076 0.4851001465559355
0.39756982200015045 0.4929164631167562 0.486077186126038
0.3977576689999296 0.4938935026868587 0.48705422569614076
0.39794484999993074 0.4929164631167562 0.48705422569614076
0.39813182699981553 0.49877870053737183 0.4938935026868587
0.39831946999993306 0.5036638983878847 0.48998534440644836
0.3985067059998073 0.4978016609672691 0.48705422569614076
0.39869434899992484 0.5085490962383976 0.4909623839765511
0.398884826000085 0.5007327796775769 0.4880312652662433
0.39907150599992747 0.5007327796775769 0.48705422569614076
0.39925894599991807 0.49682462139716654 0.4929164631167562
0.39944645900004616 0.4909623839765511 0.48216902784562765
0.39965902799986 0.4948705422569615 0.48412310698583294
0.3998469309999564 0.48998534440644836 0.4909623839765511
0.40003431500008446 0.48412310698583294 0.4851001465559355
0.40022117999978946 0.4851001465559355 0.48998534440644836
0.4004081389998646 0.4811919882755251 0.4880312652662433
0.4005951340000138 0.47728382999511476 0.486077186126038
0.40078381400007856 0.4802149487054226 0.48900830483634583
0.400990309000008 0.47728382999511476 0.48900830483634583
0.401182155999777 0.4763067904250122 0.4851001465559355
0.4013856130000022 0.47142159257449934 0.486077186126038
0.40164590299991687 0.46946751343429405 0.4909623839765511
0.40185273099996266 0.46262823644357587 0.4938935026868587
0.4020437630001652 0.46946751343429405 0.4938935026868587
0.4022313509999549 0.46262823644357587 0.5007327796775769
0.4024207170000409 0.4655593551538837 0.495847581827064
0.4026085270002113 0.46262823644357587 0.5017098192476794
0.40279580000014903 0.46458231558378116 0.5046409379579873
0.40298381299999164 0.46458231558378116 0.5017098192476794
0.40317093800013026 0.46262823644357587 0.5065950170981925
0.40335845199979303 0.46458231558378116 0.4978016609672691
0.403587835000053 0.46946751343429405 0.49975574010747437
0.4037746449998849 0.4704445530043966 0.5007327796775769
0.40396412100017187 0.4655593551538837 0.4929164631167562
0.4041512089997923 0.46946751343429405 0.49193942354665365
0.40433948200006853 0.47728382999511476 0.49682462139716654
0.4045273659999111 0.4753297508549097 0.4909623839765511
0.4047154539998701 0.4753297508549097 0.48900830483634583
0.40491205999978774 0.4909623839765511 0.495847581827064
0.40509951800004274 0.48900830483634583 0.49193942354665365
0.405286439000065 0.49193942354665365 0.4929164631167562
0.40547321199983344 0.48900830483634583 0.4929164631167562
0.4056595219999508 0.4948705422569615 0.4880312652662433
0.40584646199977215 0.49877870053737183 0.4909623839765511
0.4060337910000271 0.5036638983878847 0.49975574010747437
0.40622085999984847 0.5017098192476794 0.4938935026868587
0.4064087629999449 0.5046409379579873 0.4929164631167562
0.406596276000073 0.5036638983878847 0.49682462139716654
0.40678380800000014 0.5007327796775769 0.495847581827064
0.40697202599994853 0.5026868588177822 0.5017098192476794
0.4071591140000237 0.5046409379579873 0.49877870053737183
0.40734777499983466 0.49877870053737183 0.49682462139716654
0.40756030700003976 0.5075720566682951 0.5007327796775769
0.4077486169999247 0.4938935026868587 0.5026868588177822
0.40793585299979895 0.49975574010747437 0.49975574010747437
0.40812375599989537 0.49682462139716654 0.5036638983878847
0.40831110299996 0.495847581827064 0.5007327796775769
0.40849770900013027 0.49877870053737183 0.5095261358085001
0.4086847779999516 0.4909623839765511 0.5046409379579873
0.40887281000004805 0.4851001465559355 0.5075720566682951
0.40909171200019046 0.48900830483634583 0.5007327796775769
0.40927985600001193 0.48705422569614076 0.5046409379579873
0.40946736900014 0.4909623839765511 0.4948705422569615
0.4096551239999826 0.4929164631167562 0.49682462139716654
0.40984248899985687 0.495847581827064 0.49682462139716654
0.4100297619997946 0.49682462139716654 0.48998534440644836
0.41021723899984863 0.5065950170981925 0.4938935026868587
0.41040412299980744 0.5065950170981925 0.4929164631167562
0.4105914890001259 0.5085490962383976 0.4909623839765511
0.4107785579999472 0.5114802149487054 0.48900830483634583
0.41096566399983203 0.5095261358085001 0.48900830483634583
0.4111845100001119 0.5144113336590133 0.48900830483634583
0.4113717649997852 0.5153883732291158 0.486077186126038
0.41157601899976726 0.5134342940889105 0.486077186126038
0.4117633470000328 0.5095261358085001 0.4851001465559355
0.41195006499992814 0.5163654127992183 0.48705422569614076
0.41213694899988695 0.5153883732291158 0.4851001465559355
0.41232485199998337 0.5163654127992183 0.4851001465559355
0.4125119390000691 0.5192965315095261 0.48412310698583294
0.4127004719998695 0.5261358085002443 0.4802149487054226
0.4128875589999552 0.5261358085002443 0.4782608695652173
0.41308405400013726 0.5251587689301416 0.486077186126038
0.41327234600021256 0.5271128480703469 0.495847581827064
0.4134598780001397 0.5202735710796287 0.486077186126038
0.4136480769998343 0.512457254518808 0.49193942354665365
0.41383527600009984 0.5017098192476794 0.4880312652662433
0.41402301200014335 0.5007327796775769 0.486077186126038
0.4142114880000918 0.486077186126038 0.4851001465559355
0.4144162419997883 0.4851001465559355 0.48412310698583294
0.41461321899987524 0.47923790913532005 0.48412310698583294
0.4148002140000244 0.4704445530043966 0.4811919882755251
0.41498932000013156 0.4763067904250122 0.486077186126038
0.41517598200016437 0.4733756717147044 0.48216902784562765
0.4153640889999224 0.4753297508549097 0.48412310698583294
0.41561808200003725 0.48216902784562765 0.4880312652662433
0.415830853999978 0.48998534440644836 0.4851001465559355
0.4160254419998637 0.4909623839765511 0.48412310698583294
0.4162199369998234 0.48412310698583294 0.4831460674157304
0.4164215239998157 0.4831460674157304 0.48412310698583294
0.4166245189999245 0.47923790913532005 0.4851001465559355
0.41682290300013847 0.4802149487054226 0.4811919882755251
0.4170335270000578 0.4880312652662433 0.4831460674157304
0.41723052199995436 0.4909623839765511 0.4811919882755251
0.41747664500007886 0.4948705422569615 0.4763067904250122
0.4176857329998711 0.495847581827064 0.4763067904250122
0.4179206899998462 0.495847581827064 0.4802149487054226
0.4181417770000735 0.4948705422569615 0.48216902784562765
0.4183576969999194 0.495847581827064 0.4802149487054226
0.41858658000001014 0.5075720566682951 0.4831460674157304
0.41881970399981583 0.5075720566682951 0.486077186126038
0.41913119599985293 0.5144113336590133 0.48998534440644836
0.41936283799986995 0.5134342940889105 0.48998534440644836
0.4196559789997991 0.5173424523693209 0.48900830483634583
0.4198668059998454 0.49975574010747437 0.49193942354665365
0.4200687460001973 0.49877870053737183 0.4929164631167562
0.42027442600010545 0.4909623839765511 0.4948705422569615
0.4204741980001927 0.4811919882755251 0.49193942354665365
0.42067104499983543 0.4802149487054226 0.4978016609672691
0.4208602990001964 0.4782608695652173 0.4978016609672691
0.4210548870000821 0.47728382999511476 0.49877870053737183
0.4212455490001048 0.4763067904250122 0.49877870053737183
0.4214342850000321 0.4802149487054226 0.4978016609672691
0.4216209840001284 0.48216902784562765 0.5007327796775769
0.4218079229999603 0.4851001465559355 0.4978016609672691
0.4219945849999931 0.4802149487054226 0.5007327796775769
0.4221817100001317 0.47923790913532005 0.5056179775280898
0.42239550100021006 0.47728382999511476 0.5007327796775769
0.4226085509999393 0.4782608695652173 0.49682462139716654
0.42283128600001874 0.4636052760136786 0.49975574010747437
0.42309894600020925 0.4655593551538837 0.5017098192476794
0.42334160600012183 0.44699560332193444 0.49975574010747437
0.4236319689998709 0.43917928676111373 0.4948705422569615
0.4239433689999714 0.44406448461162684 0.4929164631167562
0.4242540089999238 0.44406448461162684 0.48998534440644836
0.42456003799998143 0.44894968246213973 0.48998534440644836
0.42482627199979106 0.4528578407425501 0.4948705422569615
0.4250213780001104 0.4655593551538837 0.49877870053737183
0.42521002100011174 0.4733756717147044 0.4948705422569615
0.4253987759998381 0.4636052760136786 0.4929164631167562
0.4255860489997758 0.4665363947239862 0.4929164631167562
0.42577332200016826 0.4636052760136786 0.4948705422569615
0.4259605389997887 0.4684904738641915 0.4948705422569615
0.4261477569998533 0.47435271128480694 0.4938935026868587
0.42633430700016106 0.4782608695652173 0.4909623839765511
0.42652196900007766 0.4802149487054226 0.4929164631167562
0.4267341119998491 0.4811919882755251 0.49193942354665365
0.4269317729999784 0.4831460674157304 0.4909623839765511
0.4271210649999375 0.49193942354665365 0.49193942354665365
0.4273074679999809 0.4938935026868587 0.4929164631167562
0.4275466469998719 0.49975574010747437 0.4880312652662433
0.42773995600009584 0.5075720566682951 0.48412310698583294
0.42792847000009715 0.5046409379579873 0.4831460674157304
0.42811603900008777 0.5095261358085001 0.48412310698583294
0.42830225699981384 0.512457254518808 0.49193942354665365
0.4284896590002063 0.5153883732291158 0.48216902784562765
0.42867667300015455 0.512457254518808 0.48412310698583294
0.4288637419999759 0.5153883732291158 0.4851001465559355
0.42905083000005106 0.5144113336590133 0.4831460674157304
0.42923736300008386 0.5163654127992183 0.48900830483634583
0.4294242649998523 0.5134342940889105 0.48216902784562765
0.42961127899980056 0.5163654127992183 0.4851001465559355
0.42979895899998155 0.5212506106497312 0.48900830483634583
0.4299858989998029 0.5163654127992183 0.486077186126038
0.43018183799995313 0.5183194919394236 0.4909623839765511
0.43036896300009175 0.5144113336590133 0.4938935026868587
0.43055586599984963 0.512457254518808 0.48705422569614076
0.43074313899978733 0.5114802149487054 0.48412310698583294
0.43093020800006343 0.5153883732291158 0.4831460674157304
0.43111709200002224 0.5075720566682951 0.486077186126038
0.43130425399976957 0.5046409379579873 0.4831460674157304
0.4314950080001836 0.5046409379579873 0.48216902784562765
0.4316835589997936 0.5026868588177822 0.4851001465559355
0.43187086899979477 0.5036638983878847 0.4880312652662433
0.4320590870001979 0.5046409379579873 0.48998534440644836
0.43225606299984065 0.5153883732291158 0.4909623839765511
0.43244474299990543 0.5046409379579873 0.4948705422569615
0.43263196099997003 0.5056179775280898 0.4929164631167562
0.4328193450000981 0.5085490962383976 0.4938935026868587
0.4330062660001204 0.5095261358085001 0.4929164631167562
0.43319266900016373 0.5075720566682951 0.4909623839765511
0.4333958860001985 0.5153883732291158 0.49193942354665365
0.43358380700010457 0.5095261358085001 0.48705422569614076
0.43377050600020084 0.5114802149487054 0.4880312652662433
0.43395777900013854 0.5065950170981925 0.49193942354665365
0.43414503299982243 0.5017098192476794 0.4880312652662433
0.4343318430001091 0.49975574010747437 0.48900830483634583
0.43451859800006787 0.49682462139716654 0.4880312652662433
0.4347065189999739 0.5026868588177822 0.48900830483634583
0.43490829099982875 0.48998534440644836 0.4909623839765511
0.4351001569998516 0.4909623839765511 0.4851001465559355
0.43531339199989816 0.49682462139716654 0.49193942354665365
0.43553938600007314 0.4948705422569615 0.48900830483634583
0.43573926999988544 0.49682462139716654 0.486077186126038
0.435928505999982 0.4938935026868587 0.4938935026868587
0.43611703799979296 0.4948705422569615 0.4851001465559355
0.4363047000001643 0.4948705422569615 0.4851001465559355
0.4364913989998058 0.5036638983878847 0.48705422569614076
0.43667904199992336 0.4938935026868587 0.48900830483634583
0.4368660559998716 0.495847581827064 0.48705422569614076
0.43705325500013714 0.495847581827064 0.48998534440644836
0.4372400279999056 0.4929164631167562 0.486077186126038
0.4374281340001289 0.4909623839765511 0.4880312652662433
0.4376177590002044 0.48998534440644836 0.4929164631167562
0.43780675400012115 0.4880312652662433 0.48900830483634583
0.437999285999922 0.4880312652662433 0.49682462139716654
0.43819081799983906 0.486077186126038 0.4909623839765511
0.4383785360000729 0.48705422569614076 0.48705422569614076
0.4385652350001692 0.48998534440644836 0.48900830483634583
0.43875282199996946 0.48705422569614076 0.48900830483634583
0.43896740899981523 0.48216902784562765 0.48900830483634583
0.4391545899998164 0.4831460674157304 0.486077186126038
0.43934130700017704 0.4782608695652173 0.48705422569614076
0.4395305620000727 0.48216902784562765 0.48216902784562765
0.43971798299980946 0.47728382999511476 0.48900830483634583
0.4399048479999692 0.47239863214460187 0.48900830483634583
0.4400923990001502 0.4763067904250122 0.48998534440644836
0.4402790979997917 0.4753297508549097 0.4938935026868587
0.44046703799995157 0.47239863214460187 0.49877870053737183
0.44065432900015367 0.4763067904250122 0.49682462139716654
0.4408417869999539 0.4753297508549097 0.5007327796775769
0.44102904200008197 0.4684904738641915 0.49193942354665365
0.4412201109998932 0.47239863214460187 0.4948705422569615
0.44140897599982054 0.47923790913532005 0.4929164631167562
0.441598693999822 0.4704445530043966 0.49975574010747437
0.4417873369998233 0.4763067904250122 0.49682462139716654
0.441975647000163 0.47728382999511476 0.5007327796775769
0.44216210500007946 0.4802149487054226 0.4929164631167562
0.44234884099978444 0.4880312652662433 0.49682462139716654
0.4425357810000605 0.486077186126038 0.4948705422569615
0.44272525799988216 0.4880312652662433 0.49193942354665365
0.44292123400009586 0.48900830483634583 0.4929164631167562
0.44312191400013035 0.49193942354665365 0.4938935026868587
0.44330968699978257 0.48900830483634583 0.48900830483634583
0.4435033489999114 0.495847581827064 0.4938935026868587
0.4436911960001453 0.48900830483634583 0.4948705422569615
0.44387817200004065 0.486077186126038 0.4880312652662433
0.4440650749997985 0.4831460674157304 0.4929164631167562
0.4442514409997784 0.4831460674157304 0.4880312652662433
0.44443864000004396 0.4811919882755251 0.49193942354665365
0.44462522699996043 0.4782608695652173 0.49682462139716654
0.4448117040001307 0.4880312652662433 0.4948705422569615
0.44499842200002604 0.486077186126038 0.49975574010747437
0.4451863979998052 0.4880312652662433 0.5026868588177822
0.4453735229999438 0.4880312652662433 0.5046409379579873
0.44556036999983917 0.48900830483634583 0.5036638983878847
