0 0.5007327796775769 0.5192965315095261
0.0011276599998382153 0.48900830483634583 0.5212506106497312
0.0013714319998143765 0.48900830483634583 0.5202735710796287
0.001576889999796549 0.48705422569614076 0.524181729360039
0.0018110699998032942 0.48705422569614076 0.5192965315095261
0.00203156499992474 0.486077186126038 0.5202735710796287
0.0022264489998633508 0.48998534440644836 0.5134342940889105
0.0024157220000233792 0.486077186126038 0.5046409379579873
0.0026383280001027742 0.48900830483634583 0.5056179775280898
0.0028308789997026906 0.48998534440644836 0.5056179775280898
0.0030220969997571956 0.4909623839765511 0.5065950170981925
0.0032124260001182847 0.4880312652662433 0.5095261358085001
0.0034009589999186574 0.4938935026868587 0.5095261358085001
0.003592603000015515 0.4909623839765511 0.5105031753786029
0.003783006000048772 0.5007327796775769 0.5173424523693209
0.003970705000028829 0.4929164631167562 0.5095261358085001
0.004158349000135786 0.4929164631167562 0.5085490962383976
0.004348788999777753 0.4948705422569615 0.5036638983878847
0.004536191999704897 0.4909623839765511 0.49975574010747437
0.004724594999970577 0.4938935026868587 0.49975574010747437
0.004911701999844809 0.4909623839765511 0.4909623839765511
0.005098141999951622 0.4948705422569615 0.48412310698583294
0.005285433999688394 0.49193942354665365 0.4811919882755251
0.0054722069999115774 0.4948705422569615 0.4811919882755251
0.0056594990001030965 0.5007327796775769 0.4655593551538837
0.0058471799998187635 0.4909623839765511 0.45969711773326827
0.006034582999745908 0.49193942354665365 0.45676599902296044
0.00622822700006509 0.5036638983878847 0.4606741573033708
0.00641975899998215 0.4978016609672691 0.45676599902296044
0.006656421000116097 0.4978016609672691 0.4606741573033708
0.006887637000090763 0.49975574010747437 0.46165119687347334
0.007095595999999205 0.5017098192476794 0.4587200781631655
0.007283369000106177 0.5036638983878847 0.46165119687347334
0.007479049999801646 0.5007327796775769 0.4684904738641915
0.007667044999834616 0.49975574010747437 0.4684904738641915
0.007855207999909908 0.49877870053737183 0.47728382999511476
0.008041758999752346 0.5017098192476794 0.4802149487054226
0.00822801399999662 0.48900830483634583 0.4851001465559355
0.008416620999923907 0.4909623839765511 0.4880312652662433
0.008605246000115585 0.4851001465559355 0.486077186126038
0.008820888999707677 0.486077186126038 0.48705422569614076
0.009018144000037864 0.48900830483634583 0.4851001465559355
0.009208380000018224 0.4909623839765511 0.4851001465559355
0.009395023999786645 0.4880312652662433 0.4851001465559355
0.009582537999904162 0.48900830483634583 0.4831460674157304
0.00976968199984185 0.4938935026868587 0.4851001465559355
0.00995749200001228 0.4929164631167562 0.486077186126038
0.010144654999749037 0.4909623839765511 0.48705422569614076
0.01033946500001548 0.4948705422569615 0.486077186126038
0.010551941999892733 0.495847581827064 0.4851001465559355
0.010741474000042217 0.495847581827064 0.4880312652662433
0.01092937700013863 0.495847581827064 0.4851001465559355
0.01111596600003395 0.49682462139716654 0.486077186126038
0.01130472099976032 0.48705422569614076 0.48900830483634583
0.01149175299997296 0.49193942354665365 0.4909623839765511
0.011679397000079916 0.4880312652662433 0.49193942354665365
0.01186602200004927 0.49193942354665365 0.49193942354665365
0.012053074000050401 0.495847581827064 0.4978016609672691
0.012240365999787173 0.4948705422569615 0.495847581827064
0.012427101999946899 0.495847581827064 0.49877870053737183
0.012613672000043152 0.5046409379579873 0.4948705422569615
0.012800611999864486 0.49682462139716654 0.49975574010747437
0.012987403999886737 0.4938935026868587 0.49877870053737183
0.013182750999931159 0.49877870053737183 0.5046409379579873
0.01338478399975429 0.4909623839765511 0.5036638983878847
0.013577390000136802 0.48900830483634583 0.5114802149487054
0.01376538599970445 0.49193942354665365 0.5105031753786029
0.013952363000043988 0.48412310698583294 0.5075720566682951
0.01413998799989713 0.4880312652662433 0.5026868588177822
0.014326872999845364 0.48412310698583294 0.5065950170981925
0.014523961000122654 0.48412310698583294 0.5056179775280898
0.014715067999986786 0.48412310698583294 0.5056179775280898
0.014902433999850473 0.4880312652662433 0.5007327796775769
0.015089836999777617 0.4880312652662433 0.5017098192476794
0.015276924999852781 0.4880312652662433 0.49975574010747437
0.015463772999737557 0.48705422569614076 0.49682462139716654
0.015650102000108745 0.4909623839765511 0.49682462139716654
0.01583967099986694 0.4909623839765511 0.495847581827064
0.016025926000111212 0.4948705422569615 0.5017098192476794
0.0162157740001021 0.4909623839765511 0.5046409379579873
0.01641491700002007 0.4909623839765511 0.5046409379579873
0.01660156099978849 0.48998534440644836 0.5026868588177822
0.016788205000011658 0.486077186126038 0.5095261358085001
0.016974904000107927 0.4880312652662433 0.512457254518808
0.017161400000077265 0.486077186126038 0.512457254518808
0.01734824799996204 0.4851001465559355 0.5095261358085001
0.01753531699978339 0.48705422569614076 0.5026868588177822
0.01772179399995366 0.4802149487054226 0.5075720566682951
0.01790999400009241 0.48216902784562765 0.5036638983878847
0.018098082000051363 0.48412310698583294 0.5017098192476794
0.018285948000084318 0.4802149487054226 0.49877870053737183
0.01847705499994845 0.4753297508549097 0.4948705422569615
0.01868671700003688 0.48412310698583294 0.49975574010747437
0.018882081999890943 0.48412310698583294 0.49975574010747437
0.0190737259999878 0.48412310698583294 0.5046409379579873
0.019264369999746123 0.4811919882755251 0.5017098192476794
0.019455698999991 0.48216902784562765 0.5036638983878847
0.01964639800007717 0.4831460674157304 0.5046409379579873
0.019837782999729825 0.486077186126038 0.5026868588177822
0.02002824100009093 0.4851001465559355 0.5026868588177822
0.020219458999690687 0.48998534440644836 0.4978016609672691
0.020410935999734647 0.48705422569614076 0.495847581827064
0.020606172000043443 0.4948705422569615 0.4851001465559355
0.020809759999792732 0.4880312652662433 0.4733756717147044
0.02100029299981543 0.48900830483634583 0.47435271128480694
0.02119145500000741 0.4880312652662433 0.46262823644357587
0.02138320999983989 0.4929164631167562 0.4655593551538837
0.02157389100011642 0.4909623839765511 0.46165119687347334
0.021763848999853508 0.4938935026868587 0.4655593551538837
0.021955455999886908 0.48998534440644836 0.4606741573033708
0.02214598799992018 0.4909623839765511 0.4704445530043966
0.022336466000069777 0.4938935026868587 0.47142159257449934
0.022536997999850428 0.49193942354665365 0.4753297508549097
0.022728493999693455 0.4938935026868587 0.4831460674157304
0.022919229999843083 0.4978016609672691 0.486077186126038
0.02310896600010892 0.49682462139716654 0.48412310698583294
0.023298702999909437 0.49975574010747437 0.48705422569614076
0.023488734999773442 0.5085490962383976 0.48216902784562765
0.023679174999870156 0.5036638983878847 0.486077186126038
0.023869355999977415 0.5056179775280898 0.48900830483634583
0.024059500000021217 0.5026868588177822 0.4831460674157304
0.02424942099969485 0.49975574010747437 0.4782608695652173
0.024439731999791547 0.5007327796775769 0.47923790913532005
0.024630450000131532 0.5036638983878847 0.47728382999511476
0.02482081600010133 0.5007327796775769 0.4753297508549097
0.025010663000102795 0.49877870053737183 0.48412310698583294
0.025200251000114804 0.495847581827064 0.4811919882755251
0.025390062000042235 0.49682462139716654 0.486077186126038
0.025584612999864476 0.4938935026868587 0.4880312652662433
0.02577603400004591 0.49682462139716654 0.4929164631167562
0.02596693699979369 0.4929164631167562 0.49682462139716654
0.026157173999763472 0.4938935026868587 0.49877870053737183
0.0263479099999131 0.4909623839765511 0.5036638983878847
0.026544239000031666 0.49682462139716654 0.5036638983878847
0.02673532700009673 0.4851001465559355 0.5007327796775769
0.02692541499982326 0.486077186126038 0.5056179775280898
0.02711578099979306 0.4938935026868587 0.5085490962383976
0.0273055170000589 0.4851001465559355 0.5153883732291158
0.027495549999912328 0.4880312652662433 0.5202735710796287
0.027686267999797565 0.4880312652662433 0.5192965315095261
0.02787668900009521 0.48900830483634583 0.5192965315095261
0.028066980999938096 0.4880312652662433 0.5202735710796287
0.028257329000098252 0.4880312652662433 0.5183194919394236
0.02844708399970841 0.4880312652662433 0.5163654127992183
0.028637450000132958 0.48900830483634583 0.5153883732291158
0.02882829700001821 0.4880312652662433 0.5065950170981925
0.029018421999808197 0.4880312652662433 0.5075720566682951
0.029208046999883663 0.48998534440644836 0.5026868588177822
0.029397913000138942 0.4909623839765511 0.49975574010747437
0.029588556999897264 0.49682462139716654 0.49975574010747437
0.029780385999856662 0.49193942354665365 0.4948705422569615
0.02997043699997448 0.495847581827064 0.48900830483634583
0.03016065499969045 0.49682462139716654 0.49193942354665365
0.030350539999744797 0.5056179775280898 0.48998534440644836
0.030540497999936633 0.5056179775280898 0.49193942354665365
0.030730696999853535 0.5017098192476794 0.5007327796775769
0.030921822999971482 0.5026868588177822 0.4938935026868587
0.031111891999898944 0.49975574010747437 0.49682462139716654
0.031301887999688915 0.5007327796775769 0.4978016609672691
0.03149279099989144 0.495847581827064 0.49975574010747437
0.03168706399992516 0.49877870053737183 0.49682462139716654
0.03187748599975748 0.495847581827064 0.4929164631167562
0.0320677039999282 0.49682462139716654 0.48900830483634583
0.032257662000120035 0.4948705422569615 0.486077186126038
0.03244758399978309 0.495847581827064 0.4811919882755251
0.03263748700010183 0.49193942354665365 0.4763067904250122
0.032828074999997625 0.4938935026868587 0.47239863214460187
0.033026256000084686 0.4938935026868587 0.47239863214460187
0.03321639900013906 0.4929164631167562 0.47142159257449934
0.03340613599993958 0.48705422569614076 0.4802149487054226
0.03359696500001519 0.48705422569614076 0.47142159257449934
0.03378692299975228 0.48705422569614076 0.4802149487054226
0.03397767799970097 0.48900830483634583 0.4831460674157304
0.03416869200009387 0.495847581827064 0.48900830483634583
0.0343590019997464 0.4880312652662433 0.49193942354665365
0.03455520199986495 0.49193942354665365 0.495847581827064
0.03474619700000403 0.48705422569614076 0.4938935026868587
0.03493656299997383 0.4880312652662433 0.4978016609672691
0.03512702199986961 0.48900830483634583 0.5026868588177822
0.035316868999871076 0.48998534440644836 0.5026868588177822
0.035507513000084145 0.4880312652662433 0.5153883732291158
0.03569767499993759 0.4880312652662433 0.5065950170981925
0.035887559999991936 0.48705422569614076 0.5095261358085001
0.03607814799988773 0.48412310698583294 0.5163654127992183
0.036268495000058465 0.486077186126038 0.5095261358085001
0.03645823199985898 0.48216902784562765 0.5105031753786029
0.03664819000005082 0.486077186126038 0.5085490962383976
0.03683840799976679 0.4880312652662433 0.5065950170981925
0.037028718999863486 0.4880312652662433 0.5036638983878847
0.037218361999748595 0.4929164631167562 0.5007327796775769
0.0374082839998664 0.4938935026868587 0.5007327796775769
0.03759774199988897 0.5007327796775769 0.4978016609672691
0.03778803399973185 0.49877870053737183 0.49682462139716654
0.037978104000103485 0.495847581827064 0.4978016609672691
0.03816822899989347 0.49877870053737183 0.49682462139716654
0.03835805800008529 0.49193942354665365 0.5017098192476794
0.03854829500005508 0.4929164631167562 0.5026868588177822
0.038738882999950874 0.4938935026868587 0.49877870053737183
0.03892919300005815 0.4948705422569615 0.49877870053737183
0.03911966999976357 0.4929164631167562 0.49975574010747437
0.03930979500000831 0.49193942354665365 0.5007327796775769
0.03950062400008392 0.4929164631167562 0.495847581827064
0.03969136099976822 0.4880312652662433 0.4909623839765511
0.03988172699973802 0.4929164631167562 0.48705422569614076
0.04007188900004621 0.49193942354665365 0.486077186126038
0.04026230999988911 0.4909623839765511 0.4851001465559355
0.040452102000017476 0.48998534440644836 0.48705422569614076
0.04064193099975455 0.48900830483634583 0.49193942354665365
0.04083151999975598 0.4880312652662433 0.4938935026868587
0.04102082999997947 0.48998534440644836 0.49682462139716654
0.04121039999972709 0.4851001465559355 0.495847581827064
0.04140021000011984 0.48705422569614076 0.49877870053737183
0.04159026099978291 0.4851001465559355 0.5026868588177822
0.0417801089997738 0.4851001465559355 0.5046409379579873
0.041970733999733056 0.47923790913532005 0.5017098192476794
0.04216067400011525 0.48412310698583294 0.49682462139716654
0.04235098399976778 0.48412310698583294 0.5017098192476794
0.04254286900004445 0.48412310698583294 0.5026868588177822
0.04273995699986699 0.48216902784562765 0.5026868588177822
0.04293019299984735 0.48412310698583294 0.5036638983878847
0.043120392999753676 0.486077186126038 0.5046409379579873
0.04331040699980804 0.48900830483634583 0.5017098192476794
0.043500809999841294 0.486077186126038 0.49193942354665365
0.043691508999927464 0.4880312652662433 0.4978016609672691
0.043881208000129845 0.495847581827064 0.49682462139716654
0.04407107399993038 0.495847581827064 0.49975574010747437
0.04426106999972035 0.4938935026868587 0.49877870053737183
0.04445165800007089 0.495847581827064 0.5036638983878847
0.044641672000125254 0.495847581827064 0.5026868588177822
0.044831722999788326 0.495847581827064 0.5036638983878847
0.04502131199978976 0.4978016609672691 0.5046409379579873
0.045224176999909105 0.49877870053737183 0.5056179775280898
0.04541496899992126 0.49877870053737183 0.5056179775280898
0.04560598299985941 0.49682462139716654 0.49975574010747437
0.04579636800008302 0.49975574010747437 0.49877870053737183
0.04598643700001048 0.5007327796775769 0.48900830483634583
0.04617604399982156 0.5007327796775769 0.49193942354665365
0.04636585499974899 0.5007327796775769 0.48705422569614076
0.04655657200009955 0.5017098192476794 0.48412310698583294
0.046746530999826064 0.5026868588177822 0.47923790913532005
0.04693661900000734 0.49975574010747437 0.47728382999511476
0.047126780999860785 0.49975574010747437 0.4763067904250122
0.04731666599991513 0.4978016609672691 0.47142159257449934
0.04750638399991658 0.4938935026868587 0.4655593551538837
0.04769726799986529 0.4948705422569615 0.467513434294089
0.04788705999999365 0.4948705422569615 0.47728382999511476
0.04807670399986819 0.5017098192476794 0.467513434294089
0.04826664399979563 0.495847581827064 0.47142159257449934
0.04845687999977599 0.4929164631167562 0.47142159257449934
0.04864706099988325 0.4978016609672691 0.46946751343429405
0.04884537099997033 0.495847581827064 0.46946751343429405
0.049037700000098994 0.4948705422569615 0.47435271128480694
0.04922771399969861 0.4909623839765511 0.4655593551538837
0.04941763599981641 0.49193942354665365 0.46262823644357587
0.04960805700011406 0.4938935026868587 0.46458231558378116
0.04980270099986228 0.48900830483634583 0.46262823644357587
0.04999330800001189 0.4929164631167562 0.4665363947239862
0.050182988999949885 0.4929164631167562 0.4665363947239862
0.050373558000046614 0.4938935026868587 0.47142159257449934
0.050565664999794535 0.49193942354665365 0.47435271128480694
0.05075623499988069 0.4880312652662433 0.47239863214460187
0.05095719299970369 0.49193942354665365 0.47435271128480694
0.051147300000138785 0.4909623839765511 0.4733756717147044
0.05133711000007679 0.4880312652662433 0.4782608695652173
0.0515272909997293 0.48900830483634583 0.4831460674157304
0.05171756399977312 0.48998534440644836 0.4851001465559355
0.05190756000001784 0.4909623839765511 0.48900830483634583
0.052096906999850034 0.4880312652662433 0.4938935026868587
0.05228697699976692 0.4851001465559355 0.495847581827064
0.0524781389999589 0.4909623839765511 0.4938935026868587
0.052668560999791225 0.4851001465559355 0.49975574010747437
0.05285900099988794 0.486077186126038 0.5007327796775769
0.053048477999709576 0.48705422569614076 0.49975574010747437
0.05323782499999652 0.4831460674157304 0.49975574010747437
0.05342750599993451 0.4851001465559355 0.49877870053737183
0.05361822399981975 0.48216902784562765 0.495847581827064
0.053808220000064466 0.4802149487054226 0.48998534440644836
0.05399828899999193 0.47728382999511476 0.486077186126038
0.054187895999803004 0.47923790913532005 0.48705422569614076
0.0543771879997621 0.48216902784562765 0.48216902784562765
0.05456738700013375 0.4782608695652173 0.48705422569614076
0.05475691999981791 0.4811919882755251 0.4880312652662433
0.05494721200011554 0.47728382999511476 0.4851001465559355
0.055137095999725716 0.4811919882755251 0.48412310698583294
0.05532659199980117 0.4802149487054226 0.4831460674157304
0.05551642099999299 0.48216902784562765 0.4831460674157304
0.055706176000057894 0.4851001465559355 0.4909623839765511
0.05589630099984788 0.4948705422569615 0.4909623839765511
0.05608677800000805 0.49193942354665365 0.4938935026868587
0.0562764960000095 0.49193942354665365 0.49975574010747437
0.05646576899971478 0.4938935026868587 0.5046409379579873
0.05665539399979025 0.495847581827064 0.5007327796775769
0.05684503800011953 0.49975574010747437 0.49877870053737183
0.05703529299989896 0.5036638983878847 0.49877870053737183
0.05722536299981584 0.495847581827064 0.49682462139716654
0.057421302999955515 0.4938935026868587 0.4978016609672691
0.057613427999967826 0.495847581827064 0.49682462139716654
0.05780381199974727 0.4978016609672691 0.5026868588177822
0.057994493000023795 0.4938935026868587 0.49975574010747437
0.058185192000109964 0.4929164631167562 0.5036638983878847
0.05837511399977302 0.48998534440644836 0.5134342940889105
0.058565868999721715 0.4909623839765511 0.5163654127992183
0.05875854999976582 0.49682462139716654 0.5173424523693209
0.058958062999863614 0.49682462139716654 0.5173424523693209
0.059148891999939224 0.48705422569614076 0.5173424523693209
0.05933846199968684 0.48705422569614076 0.5271128480703469
0.05952827300006902 0.4851001465559355 0.5290669272105519
0.05971823099980611 0.48412310698583294 0.5378602833414754
0.05990763399995558 0.486077186126038 0.5378602833414754
0.06009774099993592 0.4831460674157304 0.5359062042012701
0.06056854500002373 0.4948705422569615 0.5368832437713726
0.06076124399987748 0.4938935026868587 0.533952125061065
0.060952369000006 0.486077186126038 0.5271128480703469
0.061142809000102716 0.4851001465559355 0.524181729360039
0.061333823000040866 0.4851001465559355 0.5202735710796287
0.0615245409999261 0.48705422569614076 0.5202735710796287
0.061714814999959344 0.48412310698583294 0.5183194919394236
0.06190540299985514 0.4811919882755251 0.5065950170981925
0.06209582399969804 0.4831460674157304 0.5017098192476794
0.06228593100013313 0.4811919882755251 0.49975574010747437
0.0624762039997222 0.48412310698583294 0.49877870053737183
0.06266923700013649 0.4880312652662433 0.5046409379579873
0.06285947300011685 0.49193942354665365 0.5007327796775769
0.0630501729997377 0.4929164631167562 0.4978016609672691
0.06324138999980278 0.49682462139716654 0.49877870053737183
0.0634322930000053 0.49975574010747437 0.49877870053737183
0.0636224370000491 0.5007327796775769 0.49877870053737183
0.06381285899988143 0.5007327796775769 0.495847581827064
0.06400385400002051 0.4978016609672691 0.49193942354665365
0.06419453499984229 0.5046409379579873 0.4851001465559355
0.06438545699984388 0.5036638983878847 0.4831460674157304
0.06457582299981368 0.5007327796775769 0.4753297508549097
0.06476641099970948 0.5036638983878847 0.46946751343429405
0.06495675799988021 0.5095261358085001 0.4606741573033708
0.06514756899969143 0.5007327796775769 0.4636052760136786
0.06533756399994672 0.5007327796775769 0.46458231558378116
0.06552854099982142 0.5075720566682951 0.46458231558378116
0.06571883300011905 0.49877870053737183 0.4655593551538837
0.06590927299976101 0.4978016609672691 0.4665363947239862
0.0660991390000163 0.49975574010747437 0.4733756717147044
0.06629032000000734 0.4938935026868587 0.4802149487054226
0.06648940800005221 0.5036638983878847 0.48216902784562765
0.06668116299988469 0.49877870053737183 0.47142159257449934
0.06687169499991796 0.5036638983878847 0.4733756717147044
0.06706211699975029 0.495847581827064 0.46946751343429405
0.06726427900002818 0.4938935026868587 0.46946751343429405
0.0674547559997336 0.4929164631167562 0.4802149487054226
0.0676450850000947 0.5007327796775769 0.46946751343429405
0.06783476600003269 0.4938935026868587 0.46946751343429405
0.06802429799972742 0.495847581827064 0.47142159257449934
0.06821414599971831 0.5036638983878847 0.46946751343429405
0.06840399299971978 0.495847581827064 0.4763067904250122
0.06859502599991174 0.4938935026868587 0.4811919882755251
0.06878648399970189 0.49682462139716654 0.4851001465559355
0.06897701699972458 0.4948705422569615 0.48216902784562765
0.06916734600008567 0.495847581827064 0.486077186126038
0.0693574339998122 0.495847581827064 0.4851001465559355
0.06954737399973965 0.49877870053737183 0.48412310698583294
0.0697434069998053 0.49975574010747437 0.4811919882755251
0.06993325399980677 0.4948705422569615 0.4811919882755251
0.07012345399971309 0.4948705422569615 0.4802149487054226
0.07031328199991549 0.4909623839765511 0.4802149487054226
0.07050361099982183 0.5017098192476794 0.47728382999511476
0.07071621799968852 0.49193942354665365 0.4831460674157304
0.07090680600003907 0.4978016609672691 0.4851001465559355
0.07109739399993487 0.486077186126038 0.48705422569614076
0.07128751899972485 0.48998534440644836 0.4909623839765511
0.07147755200003303 0.48998534440644836 0.4909623839765511
0.07166771399988647 0.4929164631167562 0.4909623839765511
0.07185789499999373 0.4929164631167562 0.48998534440644836
0.07204851999995299 0.49193942354665365 0.486077186126038
0.0722393309997642 0.4909623839765511 0.48216902784562765
0.07242956699974457 0.4909623839765511 0.4811919882755251
0.07261926599994695 0.4909623839765511 0.48412310698583294
0.07280994699976873 0.49193942354665365 0.4851001465559355
0.07300029399993946 0.48900830483634583 0.486077186126038
0.07319075299983524 0.48705422569614076 0.486077186126038
0.07338124899979448 0.49193942354665365 0.48998534440644836
0.07357146599997577 0.48705422569614076 0.4929164631167562
0.07376153599989266 0.48412310698583294 0.4938935026868587
0.07395242099983079 0.48216902784562765 0.495847581827064
0.07414260099994863 0.4811919882755251 0.495847581827064
0.0743335039996964 0.48705422569614076 0.4938935026868587
0.07453255500013256 0.4851001465559355 0.49682462139716654
0.0747234949999438 0.48216902784562765 0.49975574010747437
0.07491295399995579 0.486077186126038 0.49877870053737183
0.07510302399987268 0.4880312652662433 0.49877870053737183
0.0752931299998636 0.48412310698583294 0.495847581827064
0.07548808899991855 0.486077186126038 0.4938935026868587
0.07567817700009982 0.48412310698583294 0.48998534440644836
0.07586854300006962 0.4851001465559355 0.486077186126038
0.07605826100007107 0.48900830483634583 0.48216902784562765
0.0762483489997976 0.48900830483634583 0.48412310698583294
0.07643786300013744 0.4909623839765511 0.4782608695652173
0.07662822900010724 0.48900830483634583 0.4782608695652173
0.07681807700009813 0.48900830483634583 0.4831460674157304
0.07700823899995157 0.4851001465559355 0.486077186126038
0.07719840099980502 0.48900830483634583 0.48412310698583294
0.07738835999998628 0.48705422569614076 0.486077186126038
0.07757839199985028 0.48900830483634583 0.4880312652662433
0.07776844399995753 0.48705422569614076 0.48216902784562765
0.07795921699971586 0.48900830483634583 0.4811919882755251
0.0781495090000135 0.495847581827064 0.48216902784562765
0.0783397079999304 0.49193942354665365 0.4802149487054226
0.07853918499995416 0.48998534440644836 0.4802149487054226
0.07873014400001921 0.48705422569614076 0.4851001465559355
0.07891986100003123 0.4831460674157304 0.48705422569614076
0.07910950499990577 0.486077186126038 0.49193942354665365
0.07929927799978032 0.49193942354665365 0.49682462139716654
0.0794893479996972 0.48900830483634583 0.5036638983878847
0.0796795100000054 0.48998534440644836 0.5095261358085001
0.07986941299986938 0.48998534440644836 0.5114802149487054
0.08005959399997664 0.4880312652662433 0.5173424523693209
0.0802501640000628 0.48900830483634583 0.5153883732291158
0.08044080799982112 0.4909623839765511 0.5144113336590133
0.08063159999983327 0.4909623839765511 0.5144113336590133
0.08082218799972907 0.4938935026868587 0.5144113336590133
0.08101259099976232 0.486077186126038 0.5163654127992183
0.08120227199970032 0.486077186126038 0.5153883732291158
0.08139221200008251 0.49193942354665365 0.5153883732291158
0.08158183699970323 0.48998534440644836 0.5163654127992183
0.08177161000003252 0.4909623839765511 0.5153883732291158
0.08196660599969618 0.48900830483634583 0.5144113336590133
0.08215706400005729 0.49193942354665365 0.5144113336590133
0.08234752299995307 0.49193942354665365 0.5163654127992183
0.08253827799990177 0.4880312652662433 0.5183194919394236
0.08272758800012525 0.4938935026868587 0.5232046897899365
0.0829173060001267 0.49193942354665365 0.5105031753786029
0.08310744999971575 0.495847581827064 0.5085490962383976
0.08329798199974903 0.4938935026868587 0.5114802149487054
0.08348847799970827 0.5007327796775769 0.5085490962383976
0.0836864359998799 0.4978016609672691 0.5085490962383976
0.08387717300001896 0.5007327796775769 0.5017098192476794
0.08406744600006277 0.49877870053737183 0.4978016609672691
0.08425771900010659 0.49975574010747437 0.4929164631167562
0.0844482339998649 0.5046409379579873 0.48900830483634583
0.08463871100002507 0.5026868588177822 0.48705422569614076
0.08482933599998432 0.5036638983878847 0.48900830483634583
0.08501949799983777 0.5026868588177822 0.47728382999511476
0.08520973399981813 0.49975574010747437 0.4811919882755251
0.08540000799985137 0.49877870053737183 0.4831460674157304
0.08559026300008554 0.49877870053737183 0.48412310698583294
0.08578007300002355 0.49877870053737183 0.48705422569614076
0.08597021700006735 0.49877870053737183 0.48998534440644836
0.08616017499980444 0.5026868588177822 0.4938935026868587
0.08635018999984823 0.49877870053737183 0.4938935026868587
0.08654064799975458 0.49877870053737183 0.5017098192476794
0.08673049599974547 0.5036638983878847 0.5036638983878847
0.08692547300006481 0.495847581827064 0.5095261358085001
0.0871393940001326 0.5026868588177822 0.5144113336590133
0.08734231500011447 0.49682462139716654 0.5085490962383976
0.08754288399995858 0.4929164631167562 0.512457254518808
0.08774663899976076 0.495847581827064 0.5056179775280898
0.08795691199975408 0.49682462139716654 0.5046409379579873
0.0881604809997043 0.49682462139716654 0.49682462139716654
0.0883611799999926 0.49682462139716654 0.4909623839765511
0.08855887899972004 0.49682462139716654 0.4909623839765511
0.08875974500006123 0.49877870053737183 0.47923790913532005
0.08895805499969356 0.4948705422569615 0.4782608695652173
0.08915045799994914 0.5026868588177822 0.47728382999511476
0.08934804599994095 0.495847581827064 0.4753297508549097
0.08955281899989131 0.49682462139716654 0.47142159257449934
0.0897566660000848 0.495847581827064 0.4753297508549097
0.08996408799976052 0.4948705422569615 0.47239863214460187
0.0901693789996898 0.49193942354665365 0.4704445530043966
0.09037431899969306 0.4948705422569615 0.47435271128480694
0.09057725899992874 0.48705422569614076 0.46946751343429405
0.09077708699987852 0.486077186126038 0.46946751343429405
0.09099695299983068 0.48412310698583294 0.47239863214460187
0.09119750299987572 0.486077186126038 0.4753297508549097
0.0913999250001325 0.4880312652662433 0.47239863214460187
0.0916246419997151 0.4811919882755251 0.4811919882755251
0.09186865499987107 0.4811919882755251 0.4831460674157304
0.09208711299970673 0.4851001465559355 0.4851001465559355
0.09228379299975131 0.486077186126038 0.48998534440644836
0.09247684399997524 0.48705422569614076 0.4880312652662433
0.0926697840000088 0.486077186126038 0.4909623839765511
0.0928636869998627 0.4831460674157304 0.495847581827064
0.09306910799978141 0.4851001465559355 0.4929164631167562
0.093301732999862 0.48412310698583294 0.4978016609672691
0.09352856099985729 0.4909623839765511 0.49682462139716654
0.09373857399987173 0.48705422569614076 0.4929164631167562
0.09395143999972788 0.486077186126038 0.4929164631167562
0.094158786999742 0.49193942354665365 0.48705422569614076
0.09436789299979864 0.4831460674157304 0.47923790913532005
0.09459131399989928 0.486077186126038 0.4763067904250122
0.09486264099996333 0.4811919882755251 0.48216902784562765
0.09507765499984089 0.486077186126038 0.4782608695652173
0.0952794649997486 0.47923790913532005 0.4753297508549097
0.09548005299984652 0.48412310698583294 0.4733756717147044
0.09567923299982795 0.4811919882755251 0.4753297508549097
0.09587974699979895 0.4811919882755251 0.47435271128480694
0.09608026099976996 0.48216902784562765 0.47923790913532005
0.09628129299971988 0.47923790913532005 0.47923790913532005
0.09648354799992376 0.48216902784562765 0.4929164631167562
0.09670733899974948 0.4811919882755251 0.4938935026868587
0.0969334080000408 0.4802149487054226 0.4811919882755251
0.09716753199973027 0.4753297508549097 0.4851001465559355
0.09738098999969225 0.4802149487054226 0.47923790913532005
0.09759298500011937 0.48412310698583294 0.4763067904250122
0.09782264699970256 0.486077186126038 0.46946751343429405
0.09802708600000187 0.48705422569614076 0.4684904738641915
0.09822430399981386 0.4880312652662433 0.4733756717147044
0.09842042899981607 0.4880312652662433 0.46262823644357587
0.09866671999998289 0.4831460674157304 0.467513434294089
0.0989033619998736 0.4948705422569615 0.46946751343429405
0.09914987499996641 0.4851001465559355 0.4763067904250122
0.09938003699971887 0.4851001465559355 0.4851001465559355
0.09961456800010637 0.4831460674157304 0.48216902784562765
0.09985174799976448 0.48412310698583294 0.4831460674157304
0.10011501999997563 0.486077186126038 0.486077186126038
0.10037140299982639 0.47923790913532005 0.486077186126038
0.10065126600011354 0.48900830483634583 0.4880312652662433
0.10094529699972554 0.48900830483634583 0.48900830483634583
0.10119049500008259 0.48998534440644836 0.49682462139716654
0.10145009999996546 0.4909623839765511 0.5095261358085001
0.10172614900011467 0.4851001465559355 0.522227650219834
0.10195436599997265 0.4880312652662433 0.524181729360039
0.10217158299974471 0.48705422569614076 0.5300439667806547
0.10239739300004658 0.49682462139716654 0.5329750854909623
0.10277934699979596 0.4909623839765511 0.5280898876404494
0.10305493299983937 0.49193942354665365 0.5173424523693209
0.1033175749998918 0.4948705422569615 0.5134342940889105
0.10360349399979896 0.4948705422569615 0.5075720566682951
0.10402626199993392 0.4948705422569615 0.49975574010747437
0.1043165709997993 0.5056179775280898 0.5036638983878847
0.10452254699976038 0.5036638983878847 0.5017098192476794
0.10471356099969853 0.5007327796775769 0.5075720566682951
0.10490170499997475 0.5036638983878847 0.5065950170981925
0.10508931200001825 0.5065950170981925 0.5056179775280898
0.10527789999969173 0.5085490962383976 0.5085490962383976
0.10546604399996795 0.5056179775280898 0.5065950170981925
0.10565372500013837 0.5046409379579873 0.5056179775280898
0.10584286899984363 0.5085490962383976 0.5065950170981925
0.1060327159998451 0.5105031753786029 0.49877870053737183
0.10622052700000495 0.512457254518808 0.495847581827064
0.10640874399996392 0.5105031753786029 0.4909623839765511
0.10663155399970492 0.5105031753786029 0.4880312652662433
0.10682055000006585 0.5144113336590133 0.4831460674157304
0.10700856399989789 0.5105031753786029 0.47142159257449934
0.10719644799974049 0.5114802149487054 0.46458231558378116
0.10738488900005905 0.5095261358085001 0.46458231558378116
0.10757243999978527 0.5075720566682951 0.46165119687347334
0.10776013899976533 0.5036638983878847 0.46165119687347334
0.10794720900003085 0.5095261358085001 0.457743038593063
0.10813466799982052 0.5017098192476794 0.46165119687347334
0.10832218199993804 0.5046409379579873 0.4636052760136786
0.10851017699997101 0.495847581827064 0.467513434294089
0.10869813599992995 0.495847581827064 0.4684904738641915
0.108885612999984 0.4811919882755251 0.47239863214460187
0.10910358999990422 0.4909623839765511 0.47923790913532005
0.10929275199987387 0.49193942354665365 0.46946751343429405
0.10948130299993863 0.4802149487054226 0.4704445530043966
0.10966863199973886 0.4782608695652173 0.46946751343429405
0.10985562799987747 0.47923790913532005 0.4763067904250122
0.11004284599994207 0.48216902784562765 0.46946751343429405
0.1102301930000067 0.47239863214460187 0.46946751343429405
0.11041846699981761 0.47142159257449934 0.4753297508549097
0.11062570300009611 0.46946751343429405 0.47435271128480694
0.11081401299998106 0.4704445530043966 0.47728382999511476
0.11100167499989766 0.47239863214460187 0.4753297508549097
0.1111891900000046 0.47142159257449934 0.4782608695652173
0.1113768519999212 0.4753297508549097 0.48412310698583294
0.11156542199978503 0.4763067904250122 0.486077186126038
0.11175378799998725 0.4753297508549097 0.4909623839765511
0.11194148699996731 0.47923790913532005 0.4811919882755251
0.11212924199980989 0.47728382999511476 0.4880312652662433
0.11231679299999087 0.4782608695652173 0.4909623839765511
0.11250447399970653 0.47728382999511476 0.4948705422569615
0.11269174700009899 0.4753297508549097 0.49877870053737183
0.11287887299977228 0.47923790913532005 0.4978016609672691
0.11306585000011182 0.47923790913532005 0.5065950170981925
0.11326138200001878 0.4763067904250122 0.49877870053737183
0.11347459999979037 0.4733756717147044 0.5056179775280898
0.11370363100013492 0.47923790913532005 0.5075720566682951
0.11392505200001324 0.4831460674157304 0.5095261358085001
0.1141506029998709 0.486077186126038 0.5065950170981925
0.1143817819997821 0.49193942354665365 0.5046409379579873
0.11468058999980713 0.49193942354665365 0.5017098192476794
0.1149568249998083 0.4929164631167562 0.49975574010747437
0.11521072599998661 0.48705422569614076 0.495847581827064
0.11543864699979167 0.5017098192476794 0.49193942354665365
0.11567627099975653 0.4948705422569615 0.49193942354665365
0.1159114510001018 0.4929164631167562 0.48705422569614076
0.11613122300013856 0.4909623839765511 0.48998534440644836
0.11635845899991182 0.4909623839765511 0.49682462139716654
0.11657754599991677 0.486077186126038 0.495847581827064
0.11679035599991039 0.4880312652662433 0.49975574010747437
0.1170370909999292 0.48705422569614076 0.5114802149487054
0.11728266000000076 0.4811919882755251 0.5153883732291158
0.11754685699997935 0.48412310698583294 0.5173424523693209
0.11778648099971178 0.48900830483634583 0.5144113336590133
0.11800105099973734 0.4948705422569615 0.5173424523693209
0.1182066940000368 0.4909623839765511 0.5056179775280898
0.11841487399988182 0.49877870053737183 0.5105031753786029
0.11866301700001713 0.49975574010747437 0.5036638983878847
0.11886153099976582 0.49877870053737183 0.5017098192476794
0.11905960000012783 0.49877870053737183 0.49975574010747437
0.11929813200003991 0.5036638983878847 0.5085490962383976
0.11949616399988372 0.49975574010747437 0.5065950170981925
0.11972239999977319 0.4948705422569615 0.49682462139716654
0.1200315959999898 0.4938935026868587 0.5075720566682951
0.12026888699983829 0.48998534440644836 0.49877870053737183
0.12046919699969294 0.4909623839765511 0.5007327796775769
0.12066858099979072 0.48998534440644836 0.49682462139716654
0.12085761399976036 0.486077186126038 0.5007327796775769
0.12104616499982512 0.48900830483634583 0.5075720566682951
0.12123440200002733 0.4851001465559355 0.49975574010747437
0.12142197100001795 0.4909623839765511 0.49877870053737183
0.12160924499994508 0.486077186126038 0.49682462139716654
0.12180353699977786 0.486077186126038 0.5036638983878847
0.12199701400004415 0.48412310698583294 0.49877870053737183
0.12218863899988719 0.486077186126038 0.49975574010747437
0.12240337499997622 0.4909623839765511 0.5007327796775769
0.12261174000013852 0.4929164631167562 0.49682462139716654
0.12279986599969561 0.4880312652662433 0.4929164631167562
0.12298821300009877 0.4880312652662433 0.4880312652662433
0.12317593099987789 0.486077186126038 0.48705422569614076
0.12336446400013301 0.48900830483634583 0.48705422569614076
0.12355140399995435 0.49877870053737183 0.4851001465559355
0.12373873299975457 0.49193942354665365 0.4880312652662433
0.12392593200002011 0.49877870053737183 0.49193942354665365
0.12411342799987324 0.49877870053737183 0.486077186126038
0.1243010719999802 0.5007327796775769 0.4909623839765511
0.12448845600010827 0.5007327796775769 0.49193942354665365
0.12467613699982394 0.5046409379579873 0.4929164631167562
0.12486353999975108 0.5056179775280898 0.4978016609672691
0.12505072099975223 0.5075720566682951 0.4978016609672691
0.12524362399972233 0.5036638983878847 0.49877870053737183
0.12543315699986124 0.5095261358085001 0.49682462139716654
0.1256204669998624 0.5007327796775769 0.4978016609672691
0.12580801800004338 0.49975574010747437 0.4929164631167562
0.12599623599999177 0.5046409379579873 0.49975574010747437
0.1261835840000458 0.5026868588177822 0.4929164631167562
0.12637256099969818 0.5056179775280898 0.4880312652662433
0.12656653800013373 0.5075720566682951 0.49877870053737183
0.12675682999997662 0.5085490962383976 0.4938935026868587
0.12694399199972395 0.5036638983878847 0.4929164631167562
0.12713076499994713 0.5046409379579873 0.495847581827064
0.12731881699983205 0.5007327796775769 0.495847581827064
0.1275065159998121 0.49877870053737183 0.4948705422569615
0.12769371500007765 0.49975574010747437 0.4948705422569615
0.12788223000006838 0.4938935026868587 0.4909623839765511
0.12808353999980682 0.4948705422569615 0.4909623839765511
0.12827072099980796 0.49193942354665365 0.48998534440644836
0.12845871599984093 0.49193942354665365 0.4938935026868587
0.1286463599999479 0.48900830483634583 0.4938935026868587
0.12883372599981158 0.49193942354665365 0.4909623839765511
0.1290212399999291 0.49193942354665365 0.4938935026868587
0.12920858799998314 0.4929164631167562 0.4948705422569615
0.12939643499976228 0.4938935026868587 0.4938935026868587
0.12958368999989034 0.495847581827064 0.495847581827064
0.12977096399981747 0.4909623839765511 0.48900830483634583
0.12995784799977628 0.4909623839765511 0.4851001465559355
0.13014519599983032 0.48900830483634583 0.48216902784562765
0.1303366540000752 0.48900830483634583 0.48412310698583294
0.13056266800003868 0.4880312652662433 0.4802149487054226
0.1307972360000349 0.4909623839765511 0.47923790913532005
0.13107317399999374 0.49193942354665365 0.4880312652662433
0.13130211299994698 0.48705422569614076 0.4802149487054226
0.1315439410000181 0.495847581827064 0.48412310698583294
0.13178613899981428 0.4948705422569615 0.48412310698583294
0.13205165199997282 0.48998534440644836 0.49193942354665365
0.13231810899969787 0.49193942354665365 0.486077186126038
0.13258595399975093 0.49682462139716654 0.4851001465559355
0.13284759599991958 0.4929164631167562 0.4831460674157304
0.13304998000012347 0.4880312652662433 0.4802149487054226
0.1332483090000096 0.49682462139716654 0.4851001465559355
0.13344841599973734 0.4880312652662433 0.4929164631167562
0.13365170699989903 0.49193942354665365 0.48900830483634583
0.13384922099976393 0.4948705422569615 0.486077186126038
0.13411697399988043 0.4929164631167562 0.486077186126038
0.13432295099983094 0.48900830483634583 0.48998534440644836
0.13456124200001796 0.486077186126038 0.4948705422569615
0.13477299599981052 0.4880312652662433 0.4929164631167562
0.13496097300003385 0.48705422569614076 0.49193942354665365
0.13515019099986603 0.486077186126038 0.4938935026868587
0.13536409400012417 0.4929164631167562 0.4909623839765511
0.13555388599979779 0.48900830483634583 0.4948705422569615
0.13574151100010567 0.4880312652662433 0.49877870053737183
0.13592998800004352 0.486077186126038 0.4938935026868587
0.13611729800004468 0.486077186126038 0.5007327796775769
0.13630638699987685 0.49877870053737183 0.49193942354665365
0.13649445600003673 0.4851001465559355 0.49877870053737183
0.13668239699973128 0.48705422569614076 0.4948705422569615
0.13687926200009315 0.486077186126038 0.4938935026868587
0.13706696200006263 0.48412310698583294 0.49193942354665365
0.13725518000001102 0.4851001465559355 0.48900830483634583
0.13744311999971615 0.4851001465559355 0.4909623839765511
0.1376307820000875 0.4880312652662433 0.4938935026868587
0.13782016699997257 0.4831460674157304 0.4938935026868587
0.138008420999995 0.4880312652662433 0.48998534440644836
0.13819569499992213 0.4880312652662433 0.49193942354665365
0.13838287599992327 0.48998534440644836 0.4831460674157304
0.13857272299992474 0.4880312652662433 0.486077186126038
0.13876718199981042 0.48412310698583294 0.48900830483634583
0.13897008399999322 0.4880312652662433 0.4909623839765511
0.1391708579999431 0.48705422569614076 0.4880312652662433
0.1393756120000944 0.4851001465559355 0.4880312652662433
0.1395793669998966 0.48705422569614076 0.4831460674157304
0.13976650999984486 0.48998534440644836 0.48216902784562765
0.13995565400000487 0.4880312652662433 0.4811919882755251
0.14014492799969958 0.4880312652662433 0.4811919882755251
0.14033310800004983 0.48998534440644836 0.4802149487054226
0.1405205669998395 0.48412310698583294 0.4831460674157304
0.1407078779998301 0.4851001465559355 0.4851001465559355
0.14089535499988415 0.48998534440644836 0.4811919882755251
0.1410823689998324 0.4909623839765511 0.4831460674157304
0.14126967899983356 0.48900830483634583 0.48705422569614076
0.14145636000012018 0.4909623839765511 0.48900830483634583
0.14164354100012133 0.48900830483634583 0.4929164631167562
0.14183112899991102 0.4880312652662433 0.4948705422569615
0.14201810699978523 0.48998534440644836 0.4948705422569615
0.14220471299995552 0.4909623839765511 0.5036638983878847
0.1423916349999672 0.48998534440644836 0.49877870053737183
0.14258779700003288 0.4929164631167562 0.5036638983878847
0.1428115139997317 0.48900830483634583 0.5085490962383976
0.14300028799971187 0.4880312652662433 0.5065950170981925
0.14318952399980844 0.48998534440644836 0.5046409379579873
0.14337689000012688 0.49193942354665365 0.5026868588177822
0.14356458900010693 0.4948705422569615 0.5007327796775769
0.1437528809997275 0.495847581827064 0.5026868588177822
0.1439408769997499 0.49682462139716654 0.5114802149487054
0.14412842799993086 0.4978016609672691 0.5105031753786029
0.14431597900011184 0.49877870053737183 0.5026868588177822
0.1445038269998804 0.49682462139716654 0.5056179775280898
0.144691266999871 0.4929164631167562 0.5075720566682951
0.14487937400008377 0.4938935026868587 0.5105031753786029
0.14508810999996058 0.495847581827064 0.512457254518808
0.14527617900012046 0.4978016609672691 0.512457254518808
0.1454658049997306 0.49682462139716654 0.5153883732291158
0.14565350399971067 0.49682462139716654 0.5192965315095261
0.14584074000003966 0.49682462139716654 0.5202735710796287
0.14602875499986112 0.49975574010747437 0.5095261358085001
0.1462167499998941 0.495847581827064 0.5065950170981925
0.14640495000003284 0.4938935026868587 0.5075720566682951
0.14660527799969714 0.49682462139716654 0.5114802149487054
0.14679329199998392 0.4938935026868587 0.5046409379579873
0.1469809919999534 0.5026868588177822 0.4929164631167562
0.14716880200012383 0.495847581827064 0.48900830483634583
0.14735616799998752 0.4948705422569615 0.48412310698583294
0.1475566079998316 0.5007327796775769 0.49193942354665365
0.1477442149998751 0.4978016609672691 0.4811919882755251
0.1479314139996859 0.49877870053737183 0.4880312652662433
0.14811924300011015 0.4938935026868587 0.47923790913532005
0.1483066460000373 0.4938935026868587 0.4782608695652173
0.14849503100003858 0.4948705422569615 0.47923790913532005
0.14868232299977535 0.495847581827064 0.4753297508549097
0.14886954099983996 0.49682462139716654 0.4811919882755251
0.14905703599970366 0.49975574010747437 0.4782608695652173
0.14924401400003262 0.4929164631167562 0.4753297508549097
0.14943169399975886 0.495847581827064 0.467513434294089
0.14961902300001384 0.49682462139716654 0.47142159257449934
0.1498068709997824 0.4938935026868587 0.47142159257449934
0.14999425499991048 0.49682462139716654 0.46946751343429405
0.1501819179998165 0.4938935026868587 0.4753297508549097
0.1503697650000504 0.4978016609672691 0.4704445530043966
0.15056035399993561 0.49682462139716654 0.47142159257449934
0.15074914499973602 0.4948705422569615 0.47435271128480694
0.1509364559997266 0.4909623839765511 0.47728382999511476
0.15112472900000284 0.48900830483634583 0.4763067904250122
0.151315742999941 0.49193942354665365 0.4782608695652173
0.15150336899978356 0.4909623839765511 0.48216902784562765
0.151690735000102 0.48705422569614076 0.48216902784562765
0.15187828599982822 0.4929164631167562 0.47923790913532005
0.1520654299997659 0.49193942354665365 0.47728382999511476
0.1522532589997354 0.4909623839765511 0.47728382999511476
0.1524411800000962 0.4909623839765511 0.4753297508549097
0.15262923199998113 0.48900830483634583 0.47728382999511476
0.1528172270000141 0.48705422569614076 0.48216902784562765
0.1530044269998143 0.48412310698583294 0.48900830483634583
0.15320879199998672 0.4851001465559355 0.4938935026868587
0.153397176999988 0.4831460674157304 0.49877870053737183
0.15358441299986225 0.4880312652662433 0.5036638983878847
0.15377385300007518 0.4851001465559355 0.5075720566682951
0.15397162699991895 0.4851001465559355 0.5134342940889105
0.15416530699985742 0.4851001465559355 0.5251587689301416
0.15436004299999695 0.4851001465559355 0.5261358085002443
0.1545731309997791 0.47728382999511476 0.5183194919394236
0.154831755000032 0.4831460674157304 0.5192965315095261
0.15516585799969107 0.4782608695652173 0.5192965315095261
0.1554589809998106 0.4811919882755251 0.5114802149487054
0.15574360399978104 0.4880312652662433 0.5085490962383976
0.15603607899993222 0.486077186126038 0.5007327796775769
0.1563676820001092 0.49193942354665365 0.4929164631167562
0.15670078599987391 0.48900830483634583 0.48705422569614076
0.1569358540000394 0.4938935026868587 0.4802149487054226
0.15717494099999385 0.48900830483634583 0.4782608695652173
0.15754167399973085 0.48412310698583294 0.47435271128480694
0.15791662799983897 0.486077186126038 0.48216902784562765
0.1581891769997128 0.49193942354665365 0.4782608695652173
0.15840007999986483 0.4909623839765511 0.47728382999511476
0.15864025900009437 0.4880312652662433 0.48216902784562765
0.15884851400005573 0.4909623839765511 0.48216902784562765
0.15904797199982568 0.49877870053737183 0.49193942354665365
0.15924369000003935 0.49193942354665365 0.4978016609672691
0.15944325899999967 0.4909623839765511 0.4929164631167562
0.15964056999973764 0.4929164631167562 0.4909623839765511
0.15991759999997157 0.48900830483634583 0.4948705422569615
0.16013287299983858 0.4880312652662433 0.5007327796775769
0.160343200999705 0.4909623839765511 0.49682462139716654
0.16053977100000338 0.48998534440644836 0.5026868588177822
0.16073182199988878 0.49877870053737183 0.5056179775280898
0.16092066999999588 0.4880312652662433 0.49975574010747437
0.16110951700011356 0.48900830483634583 0.5056179775280898
0.16131940100012798 0.4929164631167562 0.5095261358085001
0.16150911900012943 0.4909623839765511 0.5114802149487054
0.1616967999998451 0.49193942354665365 0.5183194919394236
0.16188444399995205 0.48900830483634583 0.5183194919394236
0.16207177299975228 0.4938935026868587 0.522227650219834
0.1622595089997958 0.4909623839765511 0.5261358085002443
0.16244693099997676 0.4929164631167562 0.524181729360039
0.1626573329999701 0.48900830483634583 0.524181729360039
0.16285247699988759 0.4929164631167562 0.522227650219834
0.16304041700004746 0.48998534440644836 0.5183194919394236
0.16322748699985823 0.49682462139716654 0.5153883732291158
0.1634150189997854 0.4909623839765511 0.5144113336590133
0.1636021819999769 0.49682462139716654 0.5114802149487054
0.16378921399973478 0.49193942354665365 0.5153883732291158
0.16397806199984188 0.4909623839765511 0.512457254518808
0.1641653540000334 0.4909623839765511 0.5007327796775769
0.16435251599978074 0.4909623839765511 0.5046409379579873
0.16453941899999336 0.49682462139716654 0.49877870053737183
0.1647266929999205 0.48900830483634583 0.4929164631167562
0.16491348499994274 0.4909623839765511 0.49682462139716654
0.16510064699969007 0.48900830483634583 0.4909623839765511
0.16528714300011416 0.49193942354665365 0.5007327796775769
0.1654740829999355 0.4948705422569615 0.48900830483634583
0.16566217099989444 0.48900830483634583 0.4909623839765511
0.1658490370000436 0.4929164631167562 0.4851001465559355
0.16603623699984382 0.49193942354665365 0.48705422569614076
0.16622347299971807 0.4978016609672691 0.48998534440644836
0.16641085699984615 0.4938935026868587 0.4880312652662433
0.16661170499992295 0.49682462139716654 0.4811919882755251
0.16679838599975483 0.49877870053737183 0.47923790913532005
0.16698575200007326 0.5046409379579873 0.4802149487054226
0.16717811799981064 0.5017098192476794 0.46946751343429405
0.16737570599980245 0.5075720566682951 0.4763067904250122
0.16756353499977195 0.5105031753786029 0.4665363947239862
0.167751011999826 0.5007327796775769 0.46458231558378116
0.1679390629997215 0.5065950170981925 0.46262823644357587
0.1681273730000612 0.49877870053737183 0.4587200781631655
0.16831701699993573 0.5017098192476794 0.45969711773326827
0.1685049939997043 0.4978016609672691 0.457743038593063
0.16869249000001219 0.49877870053737183 0.457743038593063
0.16888002299992877 0.5026868588177822 0.4538348803126526
0.16906785199989827 0.495847581827064 0.45481191988275516
0.1692559580001216 0.49193942354665365 0.4606741573033708
0.16944337999984782 0.48998534440644836 0.46458231558378116
0.1696307090001028 0.4938935026868587 0.467513434294089
0.16981859399993482 0.49193942354665365 0.47435271128480694
0.17000621899978796 0.48900830483634583 0.4802149487054226
0.17019278899988421 0.48998534440644836 0.48705422569614076
0.17040728399979344 0.4851001465559355 0.49877870053737183
0.170612538000114 0.48705422569614076 0.4948705422569615
0.17081660799976817 0.48705422569614076 0.4948705422569615
0.17100415899994914 0.49193942354665365 0.4929164631167562
0.17119157999968593 0.48998534440644836 0.49193942354665365
0.1713834649999626 0.486077186126038 0.48705422569614076
0.17159484900003008 0.48412310698583294 0.486077186126038
0.17184813899984874 0.4880312652662433 0.486077186126038
0.17212481799970192 0.47728382999511476 0.4880312652662433
0.1723396090001188 0.4811919882755251 0.48412310698583294
0.17256362299985994 0.4811919882755251 0.4909623839765511
0.1728227829999014 0.4851001465559355 0.48412310698583294
0.17309281400002874 0.4753297508549097 0.48705422569614076
0.173301679999895 0.47728382999511476 0.47728382999511476
0.17354602599971258 0.47728382999511476 0.4753297508549097
0.17391459100008433 0.48216902784562765 0.46946751343429405
0.17417049300001963 0.48412310698583294 0.4655593551538837
0.17444244999978764 0.48705422569614076 0.45969711773326827
0.17476792399975238 0.486077186126038 0.4587200781631655
0.17497152999976606 0.4851001465559355 0.46165119687347334
0.1751771919998646 0.48412310698583294 0.4684904738641915
0.17537652100008927 0.48900830483634583 0.47142159257449934
0.1755912929997976 0.4880312652662433 0.47728382999511476
0.17579590000013923 0.4929164631167562 0.4811919882755251
0.17599915399978272 0.4938935026868587 0.4948705422569615
0.17620172399983858 0.4948705422569615 0.4929164631167562
0.17644608799992056 0.4929164631167562 0.5026868588177822
0.1766520840001249 0.49682462139716654 0.5114802149487054
0.17684069000006275 0.5007327796775769 0.5144113336590133
0.177034575000107 0.48900830483634583 0.5114802149487054
0.17722434799998155 0.48900830483634583 0.5114802149487054
0.17741589899969767 0.48216902784562765 0.512457254518808
0.17760391399997388 0.4851001465559355 0.5105031753786029
0.1777922609999223 0.4831460674157304 0.5153883732291158
0.17798233099983918 0.4811919882755251 0.512457254518808
0.1781698999998298 0.4811919882755251 0.5095261358085001
0.17835843300008491 0.48705422569614076 0.5095261358085001
0.17856418800010943 0.486077186126038 0.5075720566682951
0.17875410899978306 0.4811919882755251 0.5095261358085001
0.1789418640000804 0.4811919882755251 0.5085490962383976
0.17912917500007097 0.495847581827064 0.5046409379579873
0.17931637399988176 0.4909623839765511 0.5036638983878847
0.1795041659997878 0.48705422569614076 0.49877870053737183
0.17969312500008527 0.4909623839765511 0.4929164631167562
0.1798823240001184 0.49193942354665365 0.4909623839765511
0.180110429999786 0.49193942354665365 0.49193942354665365
0.1802985549998084 0.49193942354665365 0.495847581827064
0.18048605100011628 0.48412310698583294 0.49682462139716654
0.1806733799999165 0.48900830483634583 0.4978016609672691
0.180861208999886 0.486077186126038 0.49682462139716654
0.18104881499994008 0.48900830483634583 0.495847581827064
0.18123577400001523 0.49193942354665365 0.4978016609672691
0.18142343599993183 0.4831460674157304 0.4880312652662433
0.18161111700010224 0.48998534440644836 0.48900830483634583
0.18179859399970155 0.4880312652662433 0.4929164631167562
0.18198816399990392 0.4909623839765511 0.4929164631167562
0.18217582599982052 0.48998534440644836 0.486077186126038
0.18236365499979001 0.4851001465559355 0.48705422569614076
0.18255361399997128 0.486077186126038 0.4880312652662433
0.18274340600009964 0.4831460674157304 0.48705422569614076
0.1829306979998364 0.486077186126038 0.48705422569614076
0.18311847099994338 0.486077186126038 0.486077186126038
0.18330604099992343 0.4831460674157304 0.4929164631167562
0.18349353699977655 0.48998534440644836 0.48900830483634583
0.1836811809998835 0.4831460674157304 0.48412310698583294
0.1838686759997472 0.47728382999511476 0.4851001465559355
0.18405933799976992 0.47923790913532005 0.4802149487054226
0.18424716699973942 0.47728382999511476 0.47728382999511476
0.18443471899990982 0.48412310698583294 0.47728382999511476
0.18462215899990042 0.4811919882755251 0.4802149487054226
0.1848095430000285 0.486077186126038 0.47923790913532005
0.18499733499993454 0.486077186126038 0.47435271128480694
0.1851842379996924 0.4851001465559355 0.4782608695652173
0.1853734749997784 0.48705422569614076 0.48705422569614076
0.18556056299985357 0.49193942354665365 0.48900830483634583
0.18574839199982307 0.495847581827064 0.4929164631167562
0.18593577699994057 0.5007327796775769 0.49193942354665365
0.18612388299970917 0.5007327796775769 0.49193942354665365
0.18631119399969975 0.5056179775280898 0.495847581827064
0.18650963399977627 0.5036638983878847 0.5026868588177822
0.1867123699998956 0.5134342940889105 0.5007327796775769
0.18691082799978176 0.5095261358085001 0.49975574010747437
0.18710063799971977 0.5075720566682951 0.5056179775280898
0.18729742999994414 0.5065950170981925 0.5134342940889105
0.18748940699970262 0.5026868588177822 0.5134342940889105
0.1876816809999582 0.5007327796775769 0.5212506106497312
0.18787823200000275 0.49975574010747437 0.5183194919394236
0.18808357899979455 0.5017098192476794 0.5105031753786029
0.1883519059997525 0.49975574010747437 0.5075720566682951
0.18855334599993512 0.5007327796775769 0.5056179775280898
0.1887466369998947 0.49975574010747437 0.5085490962383976
0.1889389289999599 0.5007327796775769 0.5153883732291158
0.18912986899977113 0.49877870053737183 0.5085490962383976
0.18936117900011595 0.5007327796775769 0.5183194919394236
0.18955689699987488 0.4909623839765511 0.5251587689301416
0.18978281699992294 0.4938935026868587 0.5232046897899365
0.19001203400011946 0.495847581827064 0.5212506106497312
0.1902119000001221 0.48900830483634583 0.5192965315095261
0.19045167200010837 0.48998534440644836 0.5114802149487054
0.1907532209997953 0.48705422569614076 0.5065950170981925
0.19105395499991573 0.4880312652662433 0.5036638983878847
0.19127713499983656 0.48900830483634583 0.4909623839765511
0.19146874099988054 0.486077186126038 0.4909623839765511
0.19165788500004055 0.48998534440644836 0.486077186126038
0.19184663999976692 0.4880312652662433 0.48998534440644836
0.19203598700005386 0.48705422569614076 0.4880312652662433
0.19222342700004447 0.48412310698583294 0.48216902784562765
0.19241142300006686 0.4851001465559355 0.47728382999511476
0.19259893699972963 0.4851001465559355 0.47239863214460187
0.19278691399995296 0.49193942354665365 0.467513434294089
0.19298126200010302 0.48216902784562765 0.46458231558378116
0.1932560889999877 0.4851001465559355 0.4684904738641915
0.19366261599998325 0.47923790913532005 0.46946751343429405
0.19399660899989613 0.4811919882755251 0.4704445530043966
0.19431817499980752 0.48216902784562765 0.4684904738641915
0.19459413200002018 0.4802149487054226 0.4655593551538837
0.1948814960001073 0.486077186126038 0.46946751343429405
0.19515708199969595 0.4880312652662433 0.4684904738641915
0.1954278529997282 0.48705422569614076 0.4684904738641915
0.19563514499986923 0.48705422569614076 0.47728382999511476
0.195838139999978 0.48705422569614076 0.4802149487054226
0.19604261699987546 0.48705422569614076 0.4782608695652173
0.1962782780001362 0.486077186126038 0.4831460674157304
0.19648599599986483 0.4851001465559355 0.49193942354665365
0.19667638000009902 0.4880312652662433 0.495847581827064
0.19686433900005795 0.486077186126038 0.49877870053737183
0.19705131599994274 0.48900830483634583 0.5046409379579873
0.1972384969999439 0.4948705422569615 0.5017098192476794
0.1974249370000507 0.4851001465559355 0.5046409379579873
0.1976153579998936 0.48998534440644836 0.5105031753786029
0.19782755699998233 0.48412310698583294 0.5105031753786029
0.19801531199982492 0.48412310698583294 0.5056179775280898
0.1982022889997097 0.4811919882755251 0.5095261358085001
0.19838998900013394 0.486077186126038 0.49682462139716654
0.1985784099997545 0.4880312652662433 0.49975574010747437
0.19876583199993547 0.4880312652662433 0.4938935026868587
0.19895314199993663 0.486077186126038 0.495847581827064
0.19913978599970505 0.4909623839765511 0.48998534440644836
0.19932683699971676 0.48998534440644836 0.4753297508549097
0.199513499999739 0.49193942354665365 0.47239863214460187
0.19970138400003634 0.49682462139716654 0.47239863214460187
0.19988849099991057 0.4948705422569615 0.47435271128480694
0.20007548700004918 0.49877870053737183 0.4704445530043966
0.20028055600005246 0.49682462139716654 0.4802149487054226
0.20046723699988434 0.4938935026868587 0.4733756717147044
0.20065506599985383 0.5007327796775769 0.4763067904250122
0.20084578399973907 0.49877870053737183 0.4831460674157304
0.2010333529997297 0.495847581827064 0.4851001465559355
0.20122131199968862 0.495847581827064 0.49193942354665365
0.2014086409999436 0.4929164631167562 0.4929164631167562
0.20159619200012457 0.495847581827064 0.49975574010747437
0.2017838550000306 0.49877870053737183 0.5085490962383976
0.201972072999979 0.4978016609672691 0.5065950170981925
0.2021597899997687 0.48998534440644836 0.5046409379579873
0.20250089399996796 0.495847581827064 0.5065950170981925
0.20271905499976128 0.4978016609672691 0.5056179775280898
0.20290762500007986 0.4948705422569615 0.5036638983878847
0.20309667599985914 0.49682462139716654 0.5007327796775769
0.20328504200006137 0.495847581827064 0.5036638983878847
0.20347331599987228 0.4948705422569615 0.5085490962383976
0.20366638499990586 0.49877870053737183 0.5075720566682951
0.20385399199994936 0.4978016609672691 0.5036638983878847
0.20404146900000342 0.4938935026868587 0.5026868588177822
0.2042279279999093 0.49975574010747437 0.5046409379579873
0.20441503499978353 0.49975574010747437 0.5026868588177822
0.2046023640000385 0.49975574010747437 0.5144113336590133
0.20478952599978584 0.5007327796775769 0.5105031753786029
0.20497663300011482 0.5085490962383976 0.5105031753786029
0.2051655169998412 0.5036638983878847 0.5114802149487054
0.2053581979998853 0.5017098192476794 0.512457254518808
0.20554673099968568 0.5065950170981925 0.512457254518808
0.20575122599984752 0.5007327796775769 0.5183194919394236
0.20598983199988652 0.49975574010747437 0.5153883732291158
0.20619099399982588 0.5017098192476794 0.512457254518808
0.20638697000003958 0.4948705422569615 0.5163654127992183
0.20679455399977087 0.5007327796775769 0.5163654127992183
0.20717122999985804 0.4948705422569615 0.5202735710796287
0.20755496199990375 0.49193942354665365 0.5065950170981925
0.2079358979999597 0.48900830483634583 0.5007327796775769
0.20819424399996933 0.4909623839765511 0.5056179775280898
0.20842870099977517 0.49682462139716654 0.4929164631167562
0.20869262099995467 0.4978016609672691 0.48998534440644836
0.20891483800005517 0.49975574010747437 0.4909623839765511
0.20913286999984848 0.4948705422569615 0.48998534440644836
0.20932849500013617 0.495847581827064 0.48900830483634583
0.20951971299973593 0.49682462139716654 0.4929164631167562
0.20970691200000147 0.4929164631167562 0.48412310698583294
0.20989422299999205 0.495847581827064 0.486077186126038
0.21008190399970772 0.4929164631167562 0.48412310698583294
0.21026888100004726 0.4929164631167562 0.48216902784562765
0.21045639499971003 0.48998534440644836 0.4782608695652173
0.21066961199994694 0.49682462139716654 0.47435271128480694
0.21085751500004335 0.49193942354665365 0.4763067904250122
0.21104473300010795 0.49193942354665365 0.4851001465559355
0.21123980299989853 0.4880312652662433 0.4802149487054226
0.21142809499997384 0.486077186126038 0.486077186126038
0.21161523899991153 0.48705422569614076 0.47923790913532005
0.21180228999992323 0.48412310698583294 0.4811919882755251
0.21198974799972348 0.49193942354665365 0.4753297508549097
0.21217768799988335 0.48705422569614076 0.4811919882755251
0.21236498000007487 0.4929164631167562 0.47142159257449934
0.21255356899973776 0.48998534440644836 0.47142159257449934
0.2127410640000562 0.48705422569614076 0.47142159257449934
0.21292792999975063 0.4851001465559355 0.4753297508549097
0.21311537099973066 0.4851001465559355 0.467513434294089
0.21330351400001746 0.48705422569614076 0.47239863214460187
0.21349087999988114 0.4851001465559355 0.4655593551538837
0.21371380099981252 0.4938935026868587 0.47435271128480694
0.21390442599977177 0.4909623839765511 0.4665363947239862
0.21409201500000563 0.48998534440644836 0.46262823644357587
0.21427925099987988 0.4880312652662433 0.4665363947239862
0.21446583899978577 0.48412310698583294 0.4733756717147044
0.21474716600005195 0.48900830483634583 0.4763067904250122
0.21493842099971516 0.49193942354665365 0.4782608695652173
0.21512756499987518 0.4880312652662433 0.4851001465559355
0.21533081899997342 0.486077186126038 0.48412310698583294
0.2155188149999958 0.4811919882755251 0.4909623839765511
0.21570692199975383 0.48412310698583294 0.49193942354665365
0.2158944729999348 0.4880312652662433 0.48998534440644836
0.2160814499998196 0.48900830483634583 0.48900830483634583
0.216269352999916 0.48705422569614076 0.4929164631167562
0.21645668199971624 0.4929164631167562 0.4909623839765511
0.21664425199969628 0.5017098192476794 0.4978016609672691
0.21683256200003598 0.4929164631167562 0.49877870053737183
0.2170201509998151 0.49877870053737183 0.4978016609672691
0.2172073689998797 0.49975574010747437 0.4929164631167562
0.21739467899988085 0.49877870053737183 0.49682462139716654
0.21758261900004072 0.5007327796775769 0.49193942354665365
0.21777063299987276 0.5017098192476794 0.495847581827064
0.21796003600002223 0.5026868588177822 0.4938935026868587
0.21814719899975898 0.49193942354665365 0.4938935026868587
0.21833461999995052 0.495847581827064 0.48900830483634583
0.2185453189999862 0.4948705422569615 0.48900830483634583
0.21873364800012496 0.4929164631167562 0.495847581827064
0.21892064399980882 0.4938935026868587 0.49975574010747437
0.21910939899998993 0.4938935026868587 0.5017098192476794
0.2192967089999911 0.4929164631167562 0.5065950170981925
0.21948344600014025 0.4880312652662433 0.512457254518808
0.21967127500010974 0.48705422569614076 0.5134342940889105
0.21985852899979363 0.4880312652662433 0.5144113336590133
0.22004543299999568 0.49193942354665365 0.5134342940889105
0.22023513199974332 0.4938935026868587 0.5144113336590133
0.2204223680000723 0.4909623839765511 0.5144113336590133
0.22061008599985144 0.48998534440644836 0.512457254518808
0.22080295199975808 0.48900830483634583 0.5144113336590133
0.22099011399996016 0.48998534440644836 0.5144113336590133
0.2211770730000353 0.48900830483634583 0.5153883732291158
0.22136425400003645 0.4909623839765511 0.5105031753786029
0.22155450899981588 0.4978016609672691 0.5105031753786029
0.22174250399984885 0.4978016609672691 0.5056179775280898
0.22192944500011436 0.48900830483634583 0.5095261358085001
0.2221168480000415 0.48998534440644836 0.5036638983878847
0.222304898999937 0.48900830483634583 0.495847581827064
0.22250543099971765 0.4978016609672691 0.49682462139716654
0.2227362409998932 0.4909623839765511 0.48705422569614076
0.22295034699982352 0.4938935026868587 0.48705422569614076
0.22315254599971013 0.48998534440644836 0.4851001465559355
0.22334113399983835 0.49877870053737183 0.48412310698583294
0.2235603330000231 0.49975574010747437 0.48705422569614076
0.22375003199977073 0.49682462139716654 0.48705422569614076
0.22393847200009986 0.5007327796775769 0.48412310698583294
0.22412555999972028 0.5007327796775769 0.48705422569614076
0.2243124080000598 0.5026868588177822 0.48900830483634583
0.224500051999712 0.5056179775280898 0.5007327796775769
0.22468712199997753 0.5065950170981925 0.48998534440644836
0.22487456199996814 0.5017098192476794 0.48900830483634583
0.22506153899985293 0.49975574010747437 0.4851001465559355
0.22524875699991753 0.4978016609672691 0.4851001465559355
0.2254366229999505 0.49975574010747437 0.48900830483634583
0.22562656299987793 0.4929164631167562 0.48412310698583294
0.2258260949997748 0.4948705422569615 0.48705422569614076
0.22601403499993467 0.4929164631167562 0.4929164631167562
0.22620219800000996 0.4929164631167562 0.49682462139716654
0.2263898229998631 0.48900830483634583 0.4929164631167562
0.22659959599968715 0.48900830483634583 0.4978016609672691
0.2267962579999221 0.48998534440644836 0.49682462139716654
0.22698723499979678 0.4831460674157304 0.49682462139716654
0.2271776200000204 0.4929164631167562 0.48900830483634583
0.22736694800005353 0.486077186126038 0.4851001465559355
0.22755670300011843 0.4851001465559355 0.4811919882755251
0.22774706900008823 0.4811919882755251 0.4802149487054226
0.22793786100010038 0.48412310698583294 0.4782608695652173
0.22812809800007017 0.4802149487054226 0.4782608695652173
0.22832009300009304 0.4831460674157304 0.4802149487054226
0.22851016300000992 0.4831460674157304 0.47435271128480694
0.22870204699984242 0.4929164631167562 0.4763067904250122
0.22889321000002383 0.48900830483634583 0.47728382999511476
0.2290832789999513 0.4929164631167562 0.47923790913532005
0.22927420099995288 0.48900830483634583 0.47923790913532005
0.22946517799982757 0.49682462139716654 0.48705422569614076
0.2296555249999983 0.4938935026868587 0.48998534440644836
0.22984602099995755 0.495847581827064 0.4880312652662433
0.23003657199978989 0.49193942354665365 0.4948705422569615
0.23022667899977023 0.49682462139716654 0.4880312652662433
0.23041687799968713 0.4929164631167562 0.495847581827064
0.2306214469999759 0.4948705422569615 0.4938935026868587
0.230812646999766 0.49682462139716654 0.48900830483634583
0.2310035309997147 0.4978016609672691 0.486077186126038
0.2311946380000336 0.4909623839765511 0.4831460674157304
0.23138524399973903 0.4909623839765511 0.4733756717147044
0.23158240700013266 0.49193942354665365 0.47239863214460187
0.23177312400002847 0.49682462139716654 0.4655593551538837
0.23196391600004063 0.4929164631167562 0.46165119687347334
0.23215496700004223 0.4948705422569615 0.4606741573033708
0.23234594499990635 0.4948705422569615 0.4587200781631655
0.23253710700009833 0.5007327796775769 0.46165119687347334
0.23272752799994123 0.49877870053737183 0.467513434294089
0.23291802399990047 0.4978016609672691 0.47728382999511476
0.23310775999971156 0.5007327796775769 0.4811919882755251
0.23329823699987173 0.5065950170981925 0.4880312652662433
0.23348867699996845 0.49877870053737183 0.4948705422569615
0.23367956199990658 0.49682462139716654 0.5017098192476794
0.23387096499982363 0.4929164631167562 0.5026868588177822
0.2340711269998792 0.4909623839765511 0.512457254518808
0.23427075199970204 0.49193942354665365 0.5114802149487054
0.23446215500007384 0.48900830483634583 0.5114802149487054
0.23465359500005434 0.48900830483634583 0.5085490962383976
0.23484368299978087 0.49193942354665365 0.5105031753786029
0.23503408599981412 0.48900830483634583 0.5065950170981925
0.23522447100003774 0.49193942354665365 0.5144113336590133
0.23541535499998645 0.4851001465559355 0.5017098192476794
0.23560525799985044 0.4880312652662433 0.5065950170981925
0.2357958829998097 0.486077186126038 0.5007327796775769
0.23598560099981114 0.48705422569614076 0.5007327796775769
0.2361754859998655 0.48412310698583294 0.49682462139716654
0.23636777699994127 0.48412310698583294 0.4978016609672691
0.23655845799976305 0.48998534440644836 0.4978016609672691
0.23674989799974355 0.4851001465559355 0.49877870053737183
0.23694028299996717 0.4811919882755251 0.49682462139716654
0.23713749999978972 0.48900830483634583 0.49877870053737183
0.2373369960000673 0.4811919882755251 0.49877870053737183
0.23753462100012257 0.486077186126038 0.49682462139716654
0.23774372699972446 0.4802149487054226 0.49877870053737183
0.23796498100000463 0.48705422569614076 0.48998534440644836
0.23881910999989486 0.48705422569614076 0.4909623839765511
0.23981536399969627 0.5017098192476794 0.4851001465559355
0.2402119479997964 0.49975574010747437 0.48998534440644836
0.24069699199981187 0.5007327796775769 0.495847581827064
0.2410665950001203 0.49877870053737183 0.49975574010747437
0.24149786299994958 0.4978016609672691 0.49975574010747437
0.24176231899991762 0.49975574010747437 0.5036638983878847
0.24214410700005828 0.4948705422569615 0.5065950170981925
0.24291964499980168 0.4929164631167562 0.5105031753786029
0.24333309799976632 0.4948705422569615 0.5192965315095261
0.24358427700008178 0.49682462139716654 0.5134342940889105
0.24386589999994612 0.4909623839765511 0.5144113336590133
0.2441660229997069 0.48900830483634583 0.5144113336590133
0.24444520199995168 0.4753297508549097 0.5202735710796287
0.24472462099993209 0.4763067904250122 0.5173424523693209
0.24498422599981495 0.4811919882755251 0.5144113336590133
0.24522012799980075 0.4782608695652173 0.5153883732291158
0.24542904899999485 0.4782608695652173 0.5163654127992183
0.2456273970001348 0.4782608695652173 0.5065950170981925
0.2458284479998838 0.4851001465559355 0.5095261358085001
0.24602696200008722 0.4831460674157304 0.5056179775280898
0.24623195699996359 0.48412310698583294 0.5007327796775769
0.2464513589998205 0.48900830483634583 0.5017098192476794
0.24669033500003934 0.4909623839765511 0.4948705422569615
0.24688310800002 0.4909623839765511 0.5056179775280898
0.2470881039998858 0.48705422569614076 0.5114802149487054
0.2473072279999542 0.49193942354665365 0.5026868588177822
0.24750383499986128 0.49193942354665365 0.49975574010747437
0.24769723800000065 0.4948705422569615 0.4978016609672691
0.24790480699994077 0.49877870053737183 0.49975574010747437
0.24810304299990094 0.4948705422569615 0.495847581827064
0.24830764999978783 0.4909623839765511 0.49193942354665365
0.2485042749999593 0.49682462139716654 0.4851001465559355
0.2486959919997389 0.48900830483634583 0.4782608695652173
0.24888513599989892 0.49193942354665365 0.47728382999511476
0.2490745390000484 0.49193942354665365 0.46946751343429405
0.24926310899991222 0.4938935026868587 0.4655593551538837
0.24945097499994517 0.4880312652662433 0.4655593551538837
0.24963841499993578 0.48998534440644836 0.4655593551538837
0.2498260960001062 0.4938935026868587 0.4733756717147044
0.2500144249997902 0.49975574010747437 0.4851001465559355
0.2502018099999077 0.49877870053737183 0.4929164631167562
0.2503897130000041 0.49877870053737183 0.4938935026868587
0.2505806899998788 0.4948705422569615 0.5007327796775769
0.2507689260000916 0.49877870053737183 0.5105031753786029
0.2509563660000822 0.4948705422569615 0.5075720566682951
0.25114776899999924 0.4948705422569615 0.5105031753786029
0.2513352279997889 0.5026868588177822 0.5153883732291158
0.25152196399994864 0.4929164631167562 0.5065950170981925
0.25170899699969596 0.495847581827064 0.5017098192476794
0.25189926999973977 0.4929164631167562 0.5007327796775769
0.2521211729999777 0.495847581827064 0.4880312652662433
0.25230907600007413 0.48900830483634583 0.48216902784562765
0.2524964419999378 0.48998534440644836 0.4733756717147044
0.25268306699990717 0.48900830483634583 0.47239863214460187
0.25287015499998233 0.48900830483634583 0.47142159257449934
0.25305803999981435 0.4880312652662433 0.467513434294089
0.2532465169997522 0.48705422569614076 0.47142159257449934
0.2534397529998387 0.48705422569614076 0.46946751343429405
0.25362837800003035 0.486077186126038 0.4753297508549097
0.25384579899991877 0.4909623839765511 0.4704445530043966
0.254032590999941 0.48998534440644836 0.4733756717147044
0.2542197349998787 0.48705422569614076 0.4704445530043966
0.25440661999982694 0.4909623839765511 0.47239863214460187
0.25462500399999044 0.48412310698583294 0.4704445530043966
0.2548126289998436 0.48705422569614076 0.4684904738641915
0.2549996249999822 0.486077186126038 0.46165119687347334
0.25518691699971896 0.4880312652662433 0.46262823644357587
0.25537393100012196 0.48900830483634583 0.45969711773326827
0.25556188900009147 0.48705422569614076 0.45676599902296044
0.25574890400002914 0.4929164631167562 0.4557889594528579
0.2559369729997343 0.495847581827064 0.45676599902296044
0.2561234689997036 0.48998534440644836 0.4528578407425501
0.2563103540001066 0.4938935026868587 0.46165119687347334
0.25650273800010837 0.48412310698583294 0.4684904738641915
0.25671164100003807 0.4802149487054226 0.47728382999511476
0.25692198799970356 0.48412310698583294 0.4831460674157304
0.25711507599999095 0.4880312652662433 0.486077186126038
0.2573031639999499 0.4851001465559355 0.495847581827064
0.25750027000003683 0.486077186126038 0.5075720566682951
0.257689358999869 0.48705422569614076 0.5026868588177822
0.2578775580000183 0.4851001465559355 0.5056179775280898
0.25806505399987145 0.4851001465559355 0.5105031753786029
0.2582525859997986 0.4811919882755251 0.5114802149487054
0.25843971199992666 0.486077186126038 0.512457254518808
0.25864665099970807 0.4880312652662433 0.5056179775280898
0.25883375800003705 0.486077186126038 0.5163654127992183
0.25902090199997474 0.4929164631167562 0.5085490962383976
0.2592078049997326 0.48900830483634583 0.5085490962383976
0.2593965969999772 0.48705422569614076 0.5075720566682951
0.2595854070000314 0.486077186126038 0.512457254518808
0.25977347699972597 0.48705422569614076 0.5153883732291158
0.2599610649999704 0.486077186126038 0.5144113336590133
0.2601487649999399 0.48900830483634583 0.5105031753786029
0.26036122300001807 0.48998534440644836 0.5075720566682951
0.26054977400008283 0.4909623839765511 0.5017098192476794
0.2607367509999676 0.48900830483634583 0.49877870053737183
0.26092432099994767 0.4978016609672691 0.486077186126038
0.2611118350000652 0.4909623839765511 0.4880312652662433
0.26129953400004524 0.48998534440644836 0.4851001465559355
0.2614866409999195 0.4909623839765511 0.4831460674157304
0.26167428500002643 0.4948705422569615 0.4851001465559355
0.261861596000017 0.48998534440644836 0.48705422569614076
0.2620523319997119 0.4948705422569615 0.48705422569614076
0.2622394019999774 0.49682462139716654 0.4802149487054226
0.26242641599992567 0.4948705422569615 0.4851001465559355
0.2626310780001404 0.4909623839765511 0.48216902784562765
0.2628185919998032 0.4909623839765511 0.486077186126038
0.2630057910000687 0.48900830483634583 0.4851001465559355
0.2631927499996891 0.4938935026868587 0.48412310698583294
0.2633804490001239 0.4938935026868587 0.4851001465559355
0.2635675749997972 0.495847581827064 0.48216902784562765
0.2637541809999675 0.4948705422569615 0.4831460674157304
0.2639413249999052 0.4978016609672691 0.4811919882755251
0.2641285429999698 0.49682462139716654 0.4802149487054226
0.26431579800009786 0.49877870053737183 0.4802149487054226
0.26450294200003555 0.49682462139716654 0.4851001465559355
0.2646912519999205 0.49682462139716654 0.48705422569614076
0.26487989599991124 0.5056179775280898 0.4880312652662433
0.26507392899975457 0.5017098192476794 0.48900830483634583
0.2652644239997244 0.49682462139716654 0.48705422569614076
0.2654525869997997 0.49682462139716654 0.48900830483634583
0.2656400079999912 0.5036638983878847 0.48900830483634583
0.26582789299982323 0.5026868588177822 0.48998534440644836
0.2660154249997504 0.5007327796775769 0.495847581827064
0.26620284699993135 0.5017098192476794 0.49682462139716654
0.2663897869997527 0.5046409379579873 0.5026868588177822
0.2665970049997668 0.5007327796775769 0.49682462139716654
0.2668199069998991 0.49682462139716654 0.5056179775280898
0.2670234759998493 0.5036638983878847 0.5017098192476794
0.2672153979997347 0.4978016609672691 0.5007327796775769
0.2674078009999903 0.5007327796775769 0.49975574010747437
0.26759803699997065 0.49682462139716654 0.5056179775280898
0.2677885329999299 0.49975574010747437 0.5026868588177822
0.2679781950000688 0.495847581827064 0.4978016609672691
0.26816957899973204 0.4948705422569615 0.49682462139716654
0.268371444999957 0.4909623839765511 0.4929164631167562
0.26856249599995863 0.4880312652662433 0.49193942354665365
0.26875313999971695 0.48998534440644836 0.5026868588177822
0.2689440240001204 0.4909623839765511 0.48998534440644836
0.2691353350001009 0.48900830483634583 0.48705422569614076
0.26932579300000725 0.48998534440644836 0.4880312652662433
0.26951664099988193 0.4880312652662433 0.48900830483634583
0.26970669199999975 0.4938935026868587 0.48705422569614076
0.2698974649997581 0.4909623839765511 0.4811919882755251
0.27008820199989714 0.48998534440644836 0.4811919882755251
0.27027993799993055 0.4938935026868587 0.48900830483634583
0.2704742850000912 0.48705422569614076 0.486077186126038
0.27067329900000914 0.49682462139716654 0.4782608695652173
0.27086975800011714 0.49975574010747437 0.48216902784562765
0.2711142519997338 0.4929164631167562 0.4782608695652173
0.27131622899969443 0.4978016609672691 0.46946751343429405
0.2720086569997875 0.4938935026868587 0.4704445530043966
0.27224737400001686 0.4938935026868587 0.4704445530043966
0.2729598759997316 0.4811919882755251 0.48216902784562765
0.27359880599988173 0.4802149487054226 0.4938935026868587
0.2741059979998681 0.486077186126038 0.5017098192476794
0.27449622899985116 0.47923790913532005 0.4948705422569615
0.2748565359997883 0.47923790913532005 0.4929164631167562
0.2751032149999446 0.486077186126038 0.4909623839765511
0.2753290249997917 0.486077186126038 0.48998534440644836
0.27558238999972673 0.4880312652662433 0.4909623839765511
0.2758063470000707 0.486077186126038 0.49193942354665365
0.27603719399985494 0.4880312652662433 0.4938935026868587
0.27626222599974426 0.48705422569614076 0.4978016609672691
0.2764939979997507 0.4880312652662433 0.4948705422569615
0.2767197150001266 0.48900830483634583 0.49682462139716654
0.27691719199992804 0.4929164631167562 0.5017098192476794
0.2771055769999293 0.4880312652662433 0.5036638983878847
0.2772924799996872 0.49682462139716654 0.5026868588177822
0.2774795489999633 0.48900830483634583 0.5017098192476794
0.27766650800003845 0.48998534440644836 0.5036638983878847
0.2778537439999127 0.4851001465559355 0.5114802149487054
0.2780440550000094 0.4831460674157304 0.49975574010747437
0.27823145799993654 0.4831460674157304 0.5007327796775769
0.27841934199977914 0.48705422569614076 0.4978016609672691
0.2786667259997557 0.4831460674157304 0.5007327796775769
0.2788555729998734 0.4802149487054226 0.5017098192476794
0.2790848270001334 0.48216902784562765 0.5007327796775769
0.2792731559998174 0.4831460674157304 0.5036638983878847
0.27946363299997756 0.48216902784562765 0.49682462139716654
0.2796505729997989 0.4831460674157304 0.5017098192476794
0.27984360599975844 0.486077186126038 0.5017098192476794
0.2800309159997596 0.4909623839765511 0.5056179775280898
0.28021896800009927 0.486077186126038 0.5046409379579873
0.28040631499970914 0.486077186126038 0.5085490962383976
0.2805938659998901 0.486077186126038 0.5065950170981925
0.280783399000029 0.4880312652662433 0.5075720566682951
0.2809704689998398 0.48412310698583294 0.5105031753786029
0.2811574090001159 0.4880312652662433 0.5007327796775769
0.281344812000043 0.48705422569614076 0.4978016609672691
0.2815532889999304 0.48998534440644836 0.4978016609672691
0.28174019199968825 0.48998534440644836 0.49877870053737183
0.2819267800000489 0.4948705422569615 0.4948705422569615
0.2821136090001346 0.4909623839765511 0.48998534440644836
0.2823002899999665 0.48900830483634583 0.49193942354665365
0.2824883600001158 0.49193942354665365 0.48900830483634583
0.28267830000004324 0.4938935026868587 0.4929164631167562
0.28286703599997054 0.4948705422569615 0.4938935026868587
0.2830544019998342 0.495847581827064 0.4929164631167562
0.2832414159997825 0.4948705422569615 0.495847581827064
0.28342811599986817 0.49877870053737183 0.495847581827064
0.2836151480000808 0.49975574010747437 0.495847581827064
0.2838033660000292 0.49682462139716654 0.49682462139716654
0.283990213999914 0.4978016609672691 0.495847581827064
0.28417689499974585 0.49975574010747437 0.4909623839765511
0.2843634639998527 0.5036638983878847 0.495847581827064
0.2845518300000549 0.49975574010747437 0.49877870053737183
0.2847387329998128 0.5026868588177822 0.49975574010747437
0.2849258960000043 0.5026868588177822 0.5036638983878847
0.28511298400007945 0.5095261358085001 0.5075720566682951
0.2852997019999748 0.5017098192476794 0.4978016609672691
0.2854866980001134 0.5007327796775769 0.495847581827064
0.28567347099988183 0.5056179775280898 0.4929164631167562
0.28586052199989354 0.5007327796775769 0.4929164631167562
0.2860478329998841 0.49975574010747437 0.49682462139716654
0.2862349029996949 0.49975574010747437 0.49877870053737183
0.2864219170000979 0.5026868588177822 0.4978016609672691
0.286624393999773 0.5036638983878847 0.4938935026868587
0.2868119999998271 0.49975574010747437 0.48705422569614076
0.2870020889999978 0.4938935026868587 0.48412310698583294
0.28723249099994064 0.49877870053737183 0.4763067904250122
0.2874196339998889 0.49877870053737183 0.4753297508549097
0.2876063889998477 0.49877870053737183 0.47239863214460187
0.2877935329997854 0.49682462139716654 0.47239863214460187
0.2879801209996913 0.4948705422569615 0.47142159257449934
0.2881668019999779 0.5017098192476794 0.4753297508549097
0.28835357599973577 0.5046409379579873 0.4763067904250122
0.288540367999758 0.5017098192476794 0.48216902784562765
0.28872845599971697 0.49877870053737183 0.4851001465559355
0.2889156000001094 0.49682462139716654 0.4851001465559355
0.2891037250001318 0.495847581827064 0.486077186126038
0.2892971649998799 0.4978016609672691 0.4851001465559355
0.28950056799976664 0.4938935026868587 0.48900830483634583
0.28970645199979117 0.4938935026868587 0.4880312652662433
0.289903595999931 0.4978016609672691 0.48705422569614076
0.29010451699969053 0.48998534440644836 0.48216902784562765
0.2903036970001267 0.4938935026868587 0.4811919882755251
0.29049422999969465 0.48705422569614076 0.4831460674157304
0.2906861139999819 0.48998534440644836 0.4831460674157304
0.2908744249998563 0.4880312652662433 0.49193942354665365
0.2910619389999738 0.4880312652662433 0.48900830483634583
0.29124941600002785 0.486077186126038 0.48998534440644836
0.291439986000114 0.486077186126038 0.49975574010747437
0.2916272409997873 0.48412310698583294 0.4978016609672691
0.29181697700005316 0.48412310698583294 0.5017098192476794
0.29200450999996974 0.4811919882755251 0.4948705422569615
0.2921915980000449 0.4831460674157304 0.5017098192476794
0.2923785200000566 0.4851001465559355 0.4929164631167562
0.2925658670001212 0.4831460674157304 0.495847581827064
0.29275275200006945 0.48412310698583294 0.5017098192476794
0.2929400809998697 0.4811919882755251 0.49975574010747437
0.29312741000012466 0.48998534440644836 0.5085490962383976
0.29331392399990364 0.48998534440644836 0.5036638983878847
0.29350503099976777 0.4831460674157304 0.5105031753786029
0.29371663699976125 0.4763067904250122 0.5105031753786029
0.29390917000000627 0.4811919882755251 0.5046409379579873
0.29410307299986016 0.48216902784562765 0.5114802149487054
0.29429436400005216 0.4880312652662433 0.5095261358085001
0.29448139699979947 0.4782608695652173 0.5046409379579873
0.2946789849997913 0.48900830483634583 0.49975574010747437
0.29487007299985635 0.4851001465559355 0.49975574010747437
0.29506136500003777 0.4831460674157304 0.4909623839765511
0.29525302699994427 0.4880312652662433 0.48900830483634583
0.29546487400011756 0.4909623839765511 0.48900830483634583
0.2956567769997491 0.48998534440644836 0.48705422569614076
0.2958475139998882 0.4929164631167562 0.4831460674157304
0.2960379349997311 0.48998534440644836 0.48216902784562765
0.29622857899994415 0.4929164631167562 0.48216902784562765
0.29641885199998796 0.4948705422569615 0.47923790913532005
0.29660877400010577 0.4909623839765511 0.48412310698583294
0.29680019499983246 0.49682462139716654 0.4802149487054226
0.2969905429999926 0.48900830483634583 0.47239863214460187
0.29718100099989897 0.486077186126038 0.4704445530043966
0.2973718119997102 0.4880312652662433 0.4782608695652173
0.29756251099979636 0.486077186126038 0.4763067904250122
0.29775326599974505 0.4802149487054226 0.4782608695652173
0.29794428000013795 0.4831460674157304 0.4851001465559355
0.29813633100002335 0.4831460674157304 0.49193942354665365
0.29832738200002495 0.48412310698583294 0.49682462139716654
0.29854026599969075 0.4851001465559355 0.5105031753786029
0.2987367619998622 0.48412310698583294 0.5065950170981925
0.29892670199978966 0.48412310698583294 0.5075720566682951
0.2991166419997171 0.4851001465559355 0.5036638983878847
0.2993065079999724 0.4880312652662433 0.5036638983878847
0.2994988000000376 0.48998534440644836 0.5056179775280898
0.2996891660000074 0.4938935026868587 0.5036638983878847
0.2998806800001148 0.4948705422569615 0.5026868588177822
0.30007884199994805 0.5026868588177822 0.5007327796775769
0.3002817999999934 0.4938935026868587 0.5017098192476794
0.30048720300010245 0.5007327796775769 0.5075720566682951
0.30068023500007257 0.5007327796775769 0.5017098192476794
0.3008705639999789 0.5007327796775769 0.5085490962383976
0.30106081899975834 0.4948705422569615 0.5026868588177822
0.3012524810001196 0.4929164631167562 0.5017098192476794
0.30144388400003663 0.4948705422569615 0.5026868588177822
0.3016339539999535 0.49193942354665365 0.5007327796775769
0.3018245789999128 0.4880312652662433 0.5065950170981925
0.30201511199993547 0.4880312652662433 0.5065950170981925
0.30220794099977866 0.486077186126038 0.5036638983878847
0.30239899199978026 0.48900830483634583 0.5075720566682951
0.3025917469999513 0.48998534440644836 0.5065950170981925
0.30278242699978364 0.48998534440644836 0.5065950170981925
0.30297225599997546 0.4929164631167562 0.5056179775280898
0.30316403000006176 0.5007327796775769 0.5046409379579873
0.3033550249997461 0.4938935026868587 0.5017098192476794
0.30356701999971847 0.5046409379579873 0.49682462139716654
0.30376414600004864 0.5046409379579873 0.495847581827064
0.30396262199974444 0.5026868588177822 0.495847581827064
0.3041602469997997 0.49975574010747437 0.4938935026868587
0.30436596499976076 0.5026868588177822 0.5017098192476794
0.30459168200013664 0.5036638983878847 0.4909623839765511
0.305301720999978 0.5075720566682951 0.4909623839765511
0.3055308079997303 0.5007327796775769 0.48705422569614076
0.3061799419997442 0.5105031753786029 0.5065950170981925
0.3073469149999255 0.5085490962383976 0.49975574010747437
0.3076315749999594 0.5085490962383976 0.5007327796775769
0.3080756939998537 0.5105031753786029 0.4929164631167562
0.30840729700003067 0.5046409379579873 0.495847581827064
0.3086953090000861 0.5026868588177822 0.49877870053737183
0.3089519139998629 0.5007327796775769 0.48998534440644836
0.30918131699991136 0.5036638983878847 0.48705422569614076
0.30943338499992024 0.5017098192476794 0.4909623839765511
0.309661842999958 0.49975574010747437 0.48705422569614076
0.30985511600010796 0.49877870053737183 0.4851001465559355
0.3100440929997603 0.49975574010747437 0.48216902784562765
0.3102317180000682 0.49877870053737183 0.4802149487054226
0.31042304699985834 0.5046409379579873 0.47923790913532005
0.31065061599974797 0.495847581827064 0.4811919882755251
0.31084038900007727 0.4938935026868587 0.47239863214460187
0.3110285699999622 0.4929164631167562 0.4684904738641915
0.3112173989998155 0.5007327796775769 0.4665363947239862
0.3114065429999755 0.4929164631167562 0.46458231558378116
0.31159431600008247 0.5026868588177822 0.45969711773326827
0.31178508999983023 0.4948705422569615 0.45969711773326827
0.31197345600003246 0.4938935026868587 0.457743038593063
0.31216133999987505 0.49193942354665365 0.4587200781631655
0.31234924299997147 0.49193942354665365 0.4606741573033708
0.3125368870000784 0.48998534440644836 0.46262823644357587
0.31272421599987865 0.48998534440644836 0.4684904738641915
0.3129125450000174 0.48412310698583294 0.467513434294089
0.31310196699996595 0.48216902784562765 0.47435271128480694
0.31329011099978743 0.47728382999511476 0.4684904738641915
0.3134779389997675 0.47239863214460187 0.47435271128480694
0.31366630599995915 0.47239863214460187 0.47435271128480694
0.31385443099998156 0.47239863214460187 0.4782608695652173
0.31404292599972905 0.47239863214460187 0.4802149487054226
0.3142312549998678 0.4704445530043966 0.48705422569614076
0.3144589349999478 0.4733756717147044 0.4851001465559355
0.31464937500004453 0.47142159257449934 0.48705422569614076
0.314837740999792 0.47142159257449934 0.4909623839765511
0.31502516299997296 0.4665363947239862 0.4831460674157304
0.31521362200010117 0.4684904738641915 0.4811919882755251
0.315402099000039 0.4704445530043966 0.4831460674157304
0.3155892979998498 0.4733756717147044 0.4851001465559355
0.3157774229998722 0.4753297508549097 0.486077186126038
0.31596499299985226 0.4733756717147044 0.4948705422569615
0.3161529330000121 0.4733756717147044 0.49877870053737183
0.31634067000004507 0.4753297508549097 0.495847581827064
0.3165276099998664 0.47435271128480694 0.4978016609672691
0.3167149939999945 0.4763067904250122 0.5026868588177822
0.316902601000038 0.4782608695652173 0.5065950170981925
0.3170901519997642 0.4831460674157304 0.5105031753786029
0.31727755499969135 0.48705422569614076 0.5144113336590133
0.3174646809998194 0.48412310698583294 0.5153883732291158
0.3176525099997889 0.4880312652662433 0.5134342940889105
0.3178398019999804 0.4909623839765511 0.5163654127992183
0.3180270939997172 0.4948705422569615 0.5192965315095261
0.31821479299969724 0.48705422569614076 0.5114802149487054
0.31840213999976186 0.4880312652662433 0.5114802149487054
0.3185899509999217 0.48900830483634583 0.5105031753786029
0.31877864999978556 0.4909623839765511 0.5075720566682951
0.3189658309997867 0.49193942354665365 0.5056179775280898
0.3191531600000417 0.48998534440644836 0.5056179775280898
0.31934028499972555 0.4938935026868587 0.5036638983878847
0.31952717000012854 0.495847581827064 0.49975574010747437
0.3197147579999182 0.4938935026868587 0.5036638983878847
0.31990225399977135 0.495847581827064 0.49975574010747437
0.3200893419998465 0.49682462139716654 0.5105031753786029
0.3202778559998478 0.5017098192476794 0.5026868588177822
0.3204650560001028 0.49877870053737183 0.5026868588177822
0.32065218099978665 0.49682462139716654 0.5007327796775769
0.32083984299970325 0.49975574010747437 0.49877870053737183
0.32104267199974856 0.49877870053737183 0.5017098192476794
0.3212318709997817 0.5056179775280898 0.4978016609672691
0.3214192559998992 0.4929164631167562 0.495847581827064
0.32160645499970997 0.4948705422569615 0.495847581827064
0.3217945249998593 0.4929164631167562 0.49682462139716654
0.32199837200005277 0.48998534440644836 0.5017098192476794
0.32220010799983356 0.4909623839765511 0.5007327796775769
0.32240078899985747 0.4880312652662433 0.5017098192476794
0.32267337499979476 0.4948705422569615 0.5026868588177822
0.32286537099980706 0.4880312652662433 0.5017098192476794
0.32305366299988236 0.4929164631167562 0.5007327796775769
0.32324241700007406 0.48900830483634583 0.49975574010747437
0.3234309320000648 0.48998534440644836 0.4948705422569615
0.3236190379998334 0.49193942354665365 0.48705422569614076
0.32381040399968697 0.4929164631167562 0.4831460674157304
0.32400397399987924 0.495847581827064 0.48412310698583294
0.32419163599979584 0.4909623839765511 0.4753297508549097
0.3243791689997124 0.495847581827064 0.47239863214460187
0.324566608999703 0.4938935026868587 0.4753297508549097
0.3247541790001378 0.49193942354665365 0.4733756717147044
0.32494217399971603 0.4938935026868587 0.47435271128480694
0.325129059000119 0.48998534440644836 0.4753297508549097
0.3253170919997501 0.4909623839765511 0.47142159257449934
0.32550443899981474 0.4880312652662433 0.4733756717147044
0.32569171299974187 0.48900830483634583 0.47923790913532005
0.32587915299973247 0.4948705422569615 0.4704445530043966
0.3260664260001249 0.4929164631167562 0.4782608695652173
0.32625431099995694 0.495847581827064 0.48216902784562765
0.32644175099994754 0.49193942354665365 0.486077186126038
0.3266480980000779 0.5017098192476794 0.49877870053737183
0.3268365939998148 0.49682462139716654 0.4978016609672691
0.3270236449998265 0.495847581827064 0.49975574010747437
0.3272106219997113 0.49682462139716654 0.49877870053737183
0.32739850699999806 0.5046409379579873 0.49975574010747437
0.3275865390000945 0.4978016609672691 0.49877870053737183
0.32777392399975724 0.49975574010747437 0.49682462139716654
0.3279619750001075 0.5007327796775769 0.5007327796775769
0.328150026000003 0.5026868588177822 0.5065950170981925
0.3283370029998878 0.5065950170981925 0.5075720566682951
0.3285243509999418 0.5007327796775769 0.5056179775280898
0.3287118279999959 0.5036638983878847 0.5075720566682951
0.3288991569997961 0.5017098192476794 0.5056179775280898
0.32908711599975504 0.5046409379579873 0.5065950170981925
0.3292784449999999 0.5075720566682951 0.5075720566682951
0.3294658659997367 0.5065950170981925 0.5095261358085001
0.3296531400001186 0.5075720566682951 0.5163654127992183
0.3298406349999823 0.5095261358085001 0.5036638983878847
0.3300273899999411 0.5065950170981925 0.5007327796775769
0.33021431199995277 0.5046409379579873 0.49975574010747437
0.33040303000007043 0.5046409379579873 0.5026868588177822
0.3306033579997347 0.5046409379579873 0.4978016609672691
0.3308092429997487 0.5017098192476794 0.4978016609672691
0.3309976830000778 0.49682462139716654 0.49877870053737183
0.3311851779999415 0.49682462139716654 0.49877870053737183
0.3313734700000168 0.49193942354665365 0.4978016609672691
0.33156157699977484 0.48998534440644836 0.4978016609672691
0.33175025799982905 0.48705422569614076 0.49975574010747437
0.3319374570000946 0.48705422569614076 0.5007327796775769
0.3321245639999688 0.48900830483634583 0.49877870053737183
0.3323124119997374 0.4851001465559355 0.495847581827064
0.33249979599986546 0.4851001465559355 0.4909623839765511
0.3326868099998137 0.4851001465559355 0.4880312652662433
0.33287399099981485 0.48705422569614076 0.4851001465559355
0.3330690239999967 0.4851001465559355 0.4831460674157304
0.3332570009997653 0.4811919882755251 0.4763067904250122
0.3334574780001276 0.48705422569614076 0.47239863214460187
0.333656529000109 0.4811919882755251 0.467513434294089
0.33384698700001536 0.4831460674157304 0.46165119687347334
0.334036019999985 0.4802149487054226 0.45676599902296044
0.33422418200007087 0.4802149487054226 0.457743038593063
0.33441469599983975 0.4811919882755251 0.4606741573033708
0.33464839499993104 0.4802149487054226 0.467513434294089
0.33484339000006 0.47923790913532005 0.47142159257449934
0.3350354409999454 0.47923790913532005 0.47923790913532005
0.3352261959998941 0.48412310698583294 0.48705422569614076
0.33541685799991683 0.4851001465559355 0.48705422569614076
0.33560774299985496 0.48412310698583294 0.4938935026868587
0.3357987009999306 0.49193942354665365 0.4929164631167562
0.3359903820000909 0.4851001465559355 0.49193942354665365
0.3361803959996905 0.48216902784562765 0.495847581827064
0.33637146599994594 0.4831460674157304 0.49682462139716654
0.33656229500002155 0.48412310698583294 0.495847581827064
0.3367532899997059 0.4851001465559355 0.4929164631167562
0.3369450820000566 0.4831460674157304 0.4929164631167562
0.3371405779998895 0.486077186126038 0.49682462139716654
0.33733920299982856 0.4851001465559355 0.49682462139716654
0.3375360689997251 0.48216902784562765 0.49877870053737183
0.3377370449998125 0.4831460674157304 0.49877870053737183
0.33793498499971975 0.48216902784562765 0.5017098192476794
0.3381367029996909 0.4802149487054226 0.49877870053737183
0.3383329580001373 0.48900830483634583 0.4978016609672691
0.33914104999985284 0.48412310698583294 0.4929164631167562
0.3394282290000774 0.4851001465559355 0.5017098192476794
0.3400502139998025 0.48705422569614076 0.4978016609672691
0.3407289579999997 0.48998534440644836 0.5036638983878847
0.34117670699970404 0.48998534440644836 0.5105031753786029
0.3414498669999375 0.4880312652662433 0.5095261358085001
0.3418890980001379 0.48900830483634583 0.5144113336590133
0.3422437379999792 0.4938935026868587 0.5114802149487054
0.3425433049997082 0.4929164631167562 0.5163654127992183
0.34280279899985544 0.4938935026868587 0.5153883732291158
0.3430392559998836 0.5036638983878847 0.5144113336590133
0.34325884400004725 0.4938935026868587 0.5075720566682951
0.3435176709999723 0.5056179775280898 0.5085490962383976
0.3437408330000835 0.5007327796775769 0.5046409379579873
0.34393004999992627 0.4978016609672691 0.4978016609672691
0.34411782400002267 0.49877870053737183 0.495847581827064
0.34430570799986526 0.5036638983878847 0.48900830483634583
0.34449353699983476 0.5026868588177822 0.4880312652662433
0.3446830519997093 0.5085490962383976 0.4851001465559355
0.34487082499981625 0.5046409379579873 0.4811919882755251
0.34505835799973283 0.5065950170981925 0.47923790913532005
0.3452478159997554 0.5046409379579873 0.4665363947239862
0.3454352009998729 0.5065950170981925 0.4606741573033708
0.345624399999906 0.5017098192476794 0.457743038593063
0.34581321099994966 0.5026868588177822 0.4587200781631655
0.3460011140000461 0.5046409379579873 0.457743038593063
0.3461880720001318 0.5017098192476794 0.46458231558378116
0.34637564200011184 0.49975574010747437 0.45676599902296044
0.3465707669997755 0.5017098192476794 0.46262823644357587
0.34676116999980877 0.5017098192476794 0.4704445530043966
0.3469496100001379 0.5007327796775769 0.46458231558378116
0.3471379759998854 0.5007327796775769 0.4684904738641915
0.34732611999970686 0.49975574010747437 0.47142159257449934
0.34751435599991964 0.49975574010747437 0.47728382999511476
0.3477055929997732 0.4978016609672691 0.4851001465559355
0.34789481100006014 0.5017098192476794 0.4831460674157304
0.3481278240001302 0.495847581827064 0.486077186126038
0.3483174489997509 0.4938935026868587 0.48705422569614076
0.34850696300009076 0.49975574010747437 0.4909623839765511
0.3486960509999335 0.4948705422569615 0.48998534440644836
0.3488848249999137 0.4929164631167562 0.48998534440644836
0.34907337599997845 0.4929164631167562 0.49193942354665365
0.34926176099997974 0.4938935026868587 0.4929164631167562
0.34960666000006313 0.48998534440644836 0.48705422569614076
0.3498098770000979 0.4909623839765511 0.48900830483634583
0.3499994290000359 0.49193942354665365 0.48705422569614076
0.3501879979999103 0.49877870053737183 0.4851001465559355
0.35037534599996434 0.4909623839765511 0.4802149487054226
0.35056560099974376 0.49193942354665365 0.48412310698583294
0.35075478199996724 0.4929164631167562 0.4880312652662433
0.35094196199997896 0.4909623839765511 0.48412310698583294
0.35112993999973696 0.5007327796775769 0.48705422569614076
0.35131878699985464 0.49193942354665365 0.48998534440644836
0.3515061899997818 0.4880312652662433 0.48998534440644836
0.35169350099977237 0.4929164631167562 0.4909623839765511
0.3518809779998264 0.49193942354665365 0.4909623839765511
0.35206778800011307 0.4929164631167562 0.49193942354665365
0.35225430199989205 0.49193942354665365 0.4948705422569615
0.35244176100013647 0.495847581827064 0.486077186126038
0.3526286269998309 0.4880312652662433 0.48412310698583294
0.35281604900001184 0.4978016609672691 0.4851001465559355
0.353003895999791 0.49682462139716654 0.4851001465559355
0.35319098399986615 0.4929164631167562 0.48216902784562765
0.3533791649997511 0.4938935026868587 0.4851001465559355
0.3535664020000695 0.4948705422569615 0.4851001465559355
0.3537571379997644 0.4929164631167562 0.4880312652662433
0.3539437449999241 0.4938935026868587 0.4938935026868587
0.35413081499973487 0.4978016609672691 0.49975574010747437
0.3543184579998524 0.5046409379579873 0.5075720566682951
0.3545058239997161 0.4978016609672691 0.5105031753786029
0.35471326400011094 0.49975574010747437 0.5085490962383976
0.3549015190001228 0.4978016609672691 0.512457254518808
0.3550891069999125 0.49877870053737183 0.5144113336590133
0.35527649200003 0.49682462139716654 0.5114802149487054
0.3554637649999677 0.49682462139716654 0.5144113336590133
0.35565090899990537 0.49682462139716654 0.512457254518808
0.3558388860001287 0.49975574010747437 0.5056179775280898
0.35603614100000414 0.4938935026868587 0.5075720566682951
0.35623748799980604 0.4909623839765511 0.5017098192476794
0.35643587200002 0.4929164631167562 0.5017098192476794
0.35663536799984286 0.4929164631167562 0.4978016609672691
0.35683180799969705 0.48998534440644836 0.49877870053737183
0.3570204699999522 0.48998534440644836 0.5017098192476794
0.35720794700000624 0.4880312652662433 0.4929164631167562
0.3573951280000074 0.48705422569614076 0.4909623839765511
0.3575827159997971 0.4948705422569615 0.49877870053737183
0.3577708600000733 0.4802149487054226 0.4909623839765511
0.3579934479998883 0.48216902784562765 0.4909623839765511
0.3581823509998685 0.4831460674157304 0.48900830483634583
0.3583695130000706 0.486077186126038 0.486077186126038
0.358567211999798 0.4851001465559355 0.4851001465559355
0.35875652300001093 0.4763067904250122 0.48705422569614076
0.3589455179999277 0.47728382999511476 0.48900830483634583
0.35913416199991843 0.47239863214460187 0.49193942354665365
0.35932176899996193 0.4733756717147044 0.495847581827064
0.3595090049998362 0.47142159257449934 0.4978016609672691
0.35969655600001715 0.4704445530043966 0.5046409379579873
0.3598862559997542 0.4733756717147044 0.5056179775280898
0.3600742509997872 0.467513434294089 0.5026868588177822
0.3602618770000845 0.4684904738641915 0.5007327796775769
0.36048048299971924 0.4763067904250122 0.5085490962383976
0.3606681259998368 0.4782608695652173 0.5056179775280898
0.36085526999977446 0.4733756717147044 0.5007327796775769
0.3610423959999025 0.4811919882755251 0.5017098192476794
0.3612299470000835 0.4811919882755251 0.49877870053737183
0.3614174979998097 0.4831460674157304 0.4938935026868587
0.3616049379998003 0.48216902784562765 0.4948705422569615
0.3617931559997487 0.486077186126038 0.4938935026868587
0.3619809289998557 0.48705422569614076 0.5026868588177822
0.3621679069997299 0.4909623839765511 0.4978016609672691
0.3623546799999531 0.48998534440644836 0.49877870053737183
0.36254369400012365 0.48998534440644836 0.49877870053737183
0.36273172699975476 0.4909623839765511 0.49975574010747437
0.362918740999703 0.4909623839765511 0.4978016609672691
0.3631060329998945 0.48998534440644836 0.5007327796775769
0.3632941209998535 0.4938935026868587 0.4978016609672691
0.36348148699971716 0.4929164631167562 0.4929164631167562
0.36366864999990867 0.4929164631167562 0.4948705422569615
0.36385564500005785 0.4929164631167562 0.49193942354665365
0.36404295600004843 0.49682462139716654 0.4909623839765511
0.3642299519997323 0.49877870053737183 0.49877870053737183
0.3644169469998815 0.49975574010747437 0.4909623839765511
0.364604331999999 0.49877870053737183 0.4909623839765511
0.3647913830000107 0.5007327796775769 0.48998534440644836
0.3649788970001282 0.495847581827064 0.4909623839765511
0.365169134000098 0.5007327796775769 0.4802149487054226
0.36535712900013095 0.5007327796775769 0.4831460674157304
0.36554421699975137 0.5017098192476794 0.48216902784562765
0.36573615699990114 0.5007327796775769 0.48412310698583294
0.3659321159998399 0.5007327796775769 0.4831460674157304
0.3661413330000869 0.5075720566682951 0.4811919882755251
0.3663289769997391 0.5065950170981925 0.4763067904250122
0.36654108299990185 0.5007327796775769 0.4733756717147044
0.3667362830001366 0.5046409379579873 0.46946751343429405
0.36692405599978883 0.5036638983878847 0.4665363947239862
0.3671141259997057 0.5026868588177822 0.46262823644357587
0.36731525100003637 0.5007327796775769 0.47142159257449934
0.36751930099990204 0.5007327796775769 0.47435271128480694
0.3677072049999879 0.5007327796775769 0.4811919882755251
0.36789507100002083 0.5007327796775769 0.4880312652662433
0.3680829370000538 0.5026868588177822 0.4909623839765511
0.36827046899998095 0.49975574010747437 0.495847581827064
0.36845874299979187 0.5036638983878847 0.49975574010747437
0.3686464789998354 0.49877870053737183 0.49877870053737183
0.3688339929999529 0.49682462139716654 0.49975574010747437
0.369021581999732 0.4938935026868587 0.49877870053737183
0.36920900299992354 0.49682462139716654 0.49877870053737183
0.36939766499972393 0.4929164631167562 0.4929164631167562
0.3695858649998627 0.49193942354665365 0.49877870053737183
0.3697763599998325 0.49193942354665365 0.4851001465559355
0.36996315199985474 0.49877870053737183 0.4802149487054226
0.37015064799970787 0.4909623839765511 0.486077186126038
0.3703498469999431 0.4909623839765511 0.47435271128480694
0.37058310099973824 0.4938935026868587 0.4811919882755251
0.37078031900000497 0.486077186126038 0.4763067904250122
0.3709740919998694 0.4880312652662433 0.47728382999511476
0.37116599499995573 0.486077186126038 0.4831460674157304
0.3713757489999807 0.48998534440644836 0.486077186126038
0.3715742079998563 0.48216902784562765 0.48705422569614076
0.37180138799976703 0.4851001465559355 0.48900830483634583
0.3730665069997485 0.4802149487054226 0.4938935026868587
0.3734483309999632 0.4831460674157304 0.4978016609672691
0.37370656599978247 0.4811919882755251 0.49975574010747437
0.3739546709998649 0.4802149487054226 0.4929164631167562
0.37428453399979844 0.4782608695652173 0.4938935026868587
0.374701320999975 0.47923790913532005 0.49877870053737183
0.3749438709996866 0.47923790913532005 0.495847581827064
0.3751394400001118 0.48412310698583294 0.495847581827064
0.37533304699991277 0.4851001465559355 0.49877870053737183
0.3755344870000954 0.48705422569614076 0.4938935026868587
0.3757248530000652 0.48900830483634583 0.5017098192476794
0.3759160519998659 0.48998534440644836 0.5036638983878847
0.37612556499971106 0.495847581827064 0.49682462139716654
0.37631543099996634 0.4909623839765511 0.49682462139716654
0.37651848199993765 0.48998534440644836 0.49682462139716654
0.376730662999762 0.4880312652662433 0.5017098192476794
0.376973137999812 0.486077186126038 0.49975574010747437
0.3785839899996972 0.486077186126038 0.5085490962383976
0.37889661300005173 0.48216902784562765 0.5095261358085001
0.37911223699984475 0.48412310698583294 0.5075720566682951
0.3793261209998491 0.48705422569614076 0.49975574010747437
0.380292783999721 0.48900830483634583 0.495847581827064
0.3805565369998476 0.48998534440644836 0.4929164631167562
0.38234562499974345 0.4938935026868587 0.4782608695652173
0.38275591199999326 0.49682462139716654 0.4763067904250122
0.3832377339999766 0.4929164631167562 0.4763067904250122
0.383445988999938 0.49975574010747437 0.47923790913532005
0.38363668800002415 0.495847581827064 0.4811919882755251
0.383825035999962 0.4978016609672691 0.48216902784562765
0.3840150129999529 0.49877870053737183 0.4851001465559355
0.38420232299995405 0.4978016609672691 0.4929164631167562
0.3844549840000582 0.5026868588177822 0.4909623839765511
0.38464497999984815 0.49682462139716654 0.4978016609672691
0.38483282700008203 0.4978016609672691 0.495847581827064
0.38502085999971314 0.49877870053737183 0.5056179775280898
0.38520798499985176 0.495847581827064 0.5026868588177822
0.38539535099971545 0.5046409379579873 0.5046409379579873
0.3855826799999704 0.495847581827064 0.5075720566682951
0.3857696569998552 0.49682462139716654 0.5095261358085001
0.38595705999978236 0.495847581827064 0.5144113336590133
0.3861446490000162 0.5026868588177822 0.5144113336590133
0.38633205199994336 0.49877870053737183 0.5173424523693209
0.3865677499998128 0.49877870053737183 0.5153883732291158
0.38676078299977235 0.49877870053737183 0.5065950170981925
0.38695055600010164 0.5065950170981925 0.5056179775280898
0.3871726249999483 0.5007327796775769 0.49877870053737183
0.38736049099998127 0.5065950170981925 0.49975574010747437
0.38754778299971804 0.49877870053737183 0.5046409379579873
0.3877414079997834 0.5056179775280898 0.5026868588177822
0.3879314959999647 0.49877870053737183 0.49877870053737183
0.3881188989998918 0.495847581827064 0.495847581827064
0.3883062649997555 0.4938935026868587 0.495847581827064
0.3884935940000105 0.4978016609672691 0.5007327796775769
0.3886807939998107 0.49682462139716654 0.4978016609672691
0.38889345600000524 0.49682462139716654 0.49877870053737183
0.38908150699990074 0.495847581827064 0.495847581827064
0.3892689099998279 0.4938935026868587 0.4929164631167562
0.3894581829999879 0.49682462139716654 0.4909623839765511
0.38965258600001107 0.4929164631167562 0.4909623839765511
0.39031660799992096 0.4938935026868587 0.48705422569614076
0.3905473429999802 0.4938935026868587 0.486077186126038
0.39074146799976006 0.48900830483634583 0.48705422569614076
0.3909293900001103 0.4909623839765511 0.4831460674157304
0.39111699699969904 0.4909623839765511 0.4831460674157304
0.39130421499976364 0.4909623839765511 0.4880312652662433
0.3914912469999763 0.48900830483634583 0.4802149487054226
0.3916786320000938 0.49682462139716654 0.4733756717147044
0.39188525700001264 0.4909623839765511 0.47728382999511476
0.39207282600000326 0.4909623839765511 0.4655593551538837
0.3922952099997019 0.4909623839765511 0.46458231558378116
0.39248307599973487 0.4909623839765511 0.4655593551538837
0.39267264599993723 0.4929164631167562 0.47239863214460187
0.39285964200007584 0.48705422569614076 0.46458231558378116
0.393047266999929 0.48705422569614076 0.4733756717147044
0.3932339109996974 0.48900830483634583 0.47728382999511476
0.393420591999984 0.48705422569614076 0.4753297508549097
0.3936071799998899 0.4851001465559355 0.4763067904250122
0.39379378700004963 0.4802149487054226 0.48705422569614076
0.39397996799971224 0.486077186126038 0.4802149487054226
0.39416562999986127 0.4811919882755251 0.4851001465559355
0.39435271799993643 0.47923790913532005 0.4851001465559355
0.3945491949998541 0.4782608695652173 0.486077186126038
0.39473763499972847 0.4831460674157304 0.4851001465559355
0.39492455699974016 0.47923790913532005 0.48900830483634583
0.3951111819997095 0.47923790913532005 0.48705422569614076
0.39529854800002795 0.4782608695652173 0.4802149487054226
0.3955028029999994 0.4811919882755251 0.47923790913532005
0.39569500200013863 0.48705422569614076 0.4802149487054226
0.39588244200012923 0.4880312652662433 0.47728382999511476
0.3960690670000986 0.48998534440644836 0.4704445530043966
0.3962570260000575 0.4909623839765511 0.47239863214460187
0.3964437810000163 0.48705422569614076 0.47728382999511476
0.39663020299985874 0.48705422569614076 0.4763067904250122
0.39681725399987045 0.4929164631167562 0.48216902784562765
0.39700391599990326 0.48900830483634583 0.49193942354665365
0.39719144899981984 0.49193942354665365 0.4948705422569615
0.39738074099977894 0.48900830483634583 0.48998534440644836
0.39758538399973986 0.4880312652662433 0.4909623839765511
0.39777202799996303 0.48900830483634583 0.4909623839765511
0.39796065299969996 0.48705422569614076 0.48998534440644836
0.39814674199988076 0.48705422569614076 0.4909623839765511
0.3983336999999665 0.4880312652662433 0.48998534440644836
0.39853569599972616 0.48900830483634583 0.48998534440644836
0.3987237470000764 0.486077186126038 0.4909623839765511
0.3989107799998237 0.48900830483634583 0.4909623839765511
0.39909773799990944 0.486077186126038 0.4880312652662433
0.3992852149999635 0.48705422569614076 0.4880312652662433
0.3994714519999434 0.4938935026868587 0.49193942354665365
0.3996581699998387 0.486077186126038 0.4909623839765511
0.3998450359999879 0.486077186126038 0.49975574010747437
0.4000314019999678 0.4880312652662433 0.4948705422569615
0.40021934200012765 0.4880312652662433 0.49682462139716654
0.40040642999974807 0.4851001465559355 0.4978016609672691
0.40081212399991273 0.48412310698583294 0.5026868588177822
0.40103078599986475 0.48216902784562765 0.5046409379579873
0.40124507700011236 0.4851001465559355 0.5017098192476794
0.4015391819998513 0.4929164631167562 0.5075720566682951
0.4017323620000752 0.486077186126038 0.5026868588177822
0.4019275989999187 0.49877870053737183 0.5105031753786029
0.4021204279997619 0.4909623839765511 0.49975574010747437
0.40230809000013323 0.48998534440644836 0.49877870053737183
0.402495603999796 0.4909623839765511 0.4978016609672691
0.40271187700000155 0.4948705422569615 0.4978016609672691
0.4028998909998336 0.4938935026868587 0.4929164631167562
0.40308758999981364 0.4948705422569615 0.4929164631167562
0.4032749190000686 0.49682462139716654 0.4948705422569615
0.4034620630000063 0.4929164631167562 0.49877870053737183
0.40365594800005056 0.4929164631167562 0.5017098192476794
0.40384305399993536 0.4938935026868587 0.5075720566682951
0.4040314019998732 0.4929164631167562 0.5036638983878847
0.404218156999832 0.4948705422569615 0.5017098192476794
0.40442485599987776 0.49682462139716654 0.5075720566682951
0.40461320299982617 0.4948705422569615 0.5065950170981925
0.4048001989999648 0.4929164631167562 0.5085490962383976
0.4049869350001245 0.4948705422569615 0.5075720566682951
0.40517402399973435 0.4948705422569615 0.5105031753786029
0.40536126000006334 0.49682462139716654 0.5056179775280898
0.4055490519999694 0.49682462139716654 0.5056179775280898
0.40573956599973826 0.4978016609672691 0.5026868588177822
0.4059271539999827 0.5007327796775769 0.5065950170981925
0.40612711299991133 0.4978016609672691 0.49877870053737183
0.4063158859999021 0.5026868588177822 0.4938935026868587
0.4065466399997604 0.5046409379579873 0.4938935026868587
0.4067366909998782 0.5056179775280898 0.4929164631167562
0.4069239649998053 0.5065950170981925 0.49193942354665365
0.4071112010001343 0.5065950170981925 0.4929164631167562
0.40729808600008255 0.5017098192476794 0.48998534440644836
0.4074850259999039 0.5036638983878847 0.4909623839765511
0.40767220699990503 0.5036638983878847 0.4880312652662433
0.40785925799991674 0.5017098192476794 0.48412310698583294
0.4080465130000448 0.5017098192476794 0.4831460674157304
0.40823295299969686 0.5026868588177822 0.4851001465559355
0.40841957800012096 0.49975574010747437 0.4831460674157304
0.4086062219998894 0.4978016609672691 0.486077186126038
0.40879394000012326 0.49975574010747437 0.4929164631167562
0.4089815100001033 0.5017098192476794 0.5007327796775769
0.40916919099981897 0.49975574010747437 0.5114802149487054
0.40935759400008465 0.4978016609672691 0.5163654127992183
0.4095453859999907 0.49975574010747437 0.522227650219834
0.40973228899974856 0.49975574010747437 0.5300439667806547
0.4099194699997497 0.5007327796775769 0.5271128480703469
0.4101068169998143 0.4978016609672691 0.5329750854909623
0.4102939790000164 0.4948705422569615 0.5280898876404494
0.41048184500004936 0.495847581827064 0.5251587689301416
0.4106722480000826 0.49193942354665365 0.524181729360039
0.41086057699976664 0.4880312652662433 0.5192965315095261
0.4110480549998101 0.48998534440644836 0.5192965315095261
0.41123454999979003 0.4880312652662433 0.5095261358085001
0.41142152700012957 0.4851001465559355 0.49877870053737183
0.41160954199995103 0.486077186126038 0.49682462139716654
0.41179612999985693 0.4851001465559355 0.4929164631167562
0.411983292000059 0.48705422569614076 0.495847581827064
0.4121743619998597 0.48998534440644836 0.48900830483634583
0.412363097999787 0.48216902784562765 0.48998534440644836
0.4125498719999996 0.4831460674157304 0.495847581827064
0.41273640400004297 0.4831460674157304 0.4938935026868587
0.4130286380000143 0.4831460674157304 0.495847581827064
0.41337235299988606 0.4802149487054226 0.4831460674157304
0.41369099299981826 0.4831460674157304 0.4811919882755251
0.41389487800006464 0.48216902784562765 0.47923790913532005
0.4140838729999814 0.4802149487054226 0.47728382999511476
0.414273220999803 0.48216902784562765 0.48216902784562765
0.41447823399994377 0.4811919882755251 0.4733756717147044
0.414670526000009 0.48216902784562765 0.4704445530043966
0.4148593740001161 0.4909623839765511 0.47142159257449934
0.4150473139998212 0.4851001465559355 0.4557889594528579
0.4152354580000974 0.486077186126038 0.45481191988275516
0.41542291599989767 0.4851001465559355 0.45481191988275516
0.41561046800006807 0.486077186126038 0.46262823644357587
0.4157975739999529 0.4880312652662433 0.45676599902296044
0.4159845519998271 0.4880312652662433 0.46262823644357587
0.4161720659999446 0.48412310698583294 0.467513434294089
0.4163590610000938 0.4831460674157304 0.47142159257449934
0.4165457049998622 0.4811919882755251 0.4782608695652173
0.41673260800007483 0.4782608695652173 0.47435271128480694
0.41692528900011894 0.4782608695652173 0.4763067904250122
0.41711571099995126 0.4782608695652173 0.4763067904250122
0.41730353999992076 0.4782608695652173 0.4782608695652173
0.417490239000017 0.48216902784562765 0.47728382999511476
0.41767775300013454 0.48900830483634583 0.47435271128480694
0.41786556399983965 0.48412310698583294 0.47435271128480694
0.41805224400013685 0.48216902784562765 0.4753297508549097
0.41823936999981015 0.48412310698583294 0.4753297508549097
0.4184262730000228 0.4880312652662433 0.4684904738641915
0.41863082400004714 0.4880312652662433 0.4606741573033708
0.41881854199982627 0.48998534440644836 0.45676599902296044
0.41900512999973216 0.4880312652662433 0.44894968246213973
0.4191926630001035 0.4880312652662433 0.4538348803126526
0.4193791949996921 0.4909623839765511 0.45481191988275516
0.41956839499971466 0.495847581827064 0.4538348803126526
0.4197571119998429 0.4929164631167562 0.46262823644357587
0.4199467190001087 0.49193942354665365 0.467513434294089
0.42013338200013095 0.4929164631167562 0.4831460674157304
0.4203209329998572 0.4929164631167562 0.48216902784562765
0.4205156499997429 0.4909623839765511 0.4909623839765511
0.4207052570000087 0.4938935026868587 0.5007327796775769
0.42089804899978844 0.4929164631167562 0.5065950170981925
0.4210950070000763 0.48998534440644836 0.512457254518808
0.42132270599995536 0.48900830483634583 0.5202735710796287
0.4215315339997687 0.4909623839765511 0.5271128480703469
0.4217331039999408 0.49682462139716654 0.5261358085002443
0.42193067300013354 0.49193942354665365 0.5280898876404494
0.42212440999992396 0.4909623839765511 0.5271128480703469
0.4223212749998311 0.49975574010747437 0.5300439667806547
0.4225998990000335 0.4938935026868587 0.5212506106497312
0.42372435400011454 0.49682462139716654 0.5192965315095261
0.42397984799981714 0.4948705422569615 0.5192965315095261
0.4253390760000002 0.5007327796775769 0.5026868588177822
0.42576138100002936 0.4978016609672691 0.5105031753786029
0.4264298839998446 0.5036638983878847 0.5065950170981925
0.42702896299988424 0.5026868588177822 0.4811919882755251
0.42844820799973604 0.5036638983878847 0.48216902784562765
0.4287446079997608 0.49877870053737183 0.4782608695652173
0.4289425849997315 0.4978016609672691 0.4782608695652173
0.4291316549997646 0.49877870053737183 0.4763067904250122
0.4293214099998295 0.5007327796775769 0.47728382999511476
0.4295113869998204 0.495847581827064 0.4733756717147044
0.42969915999992736 0.49877870053737183 0.4753297508549097
0.42988724899987574 0.49682462139716654 0.47435271128480694
