0 0.5017098192476794 0.4948705422569615
0.0003229769999961718 0.49877870053737183 0.47923790913532005
0.0005338800001482014 0.5007327796775769 0.48216902784562765
0.0007378770001196244 0.5007327796775769 0.4851001465559355
0.0009562069999446976 0.49975574010747437 0.48900830483634583
0.0011611850000008417 0.4978016609672691 0.4909623839765511
0.001355256000351801 0.5007327796775769 0.4938935026868587
0.001545623000311025 0.49682462139716654 0.495847581827064
0.0017356390003442357 0.5007327796775769 0.5017098192476794
0.0019257839999227144 0.5065950170981925 0.49975574010747437
0.0021166880001146637 0.49877870053737183 0.5017098192476794
0.0023061659999257245 0.49877870053737183 0.5036638983878847
0.002493997000328818 0.4978016609672691 0.5036638983878847
0.00268201200015028 0.4929164631167562 0.5065950170981925
0.0028698430000986264 0.49682462139716654 0.5085490962383976
0.0030574140000680927 0.495847581827064 0.5114802149487054
0.0032445770002595964 0.5007327796775769 0.5085490962383976
0.0034357409999756783 0.4909623839765511 0.5114802149487054
0.00362370099992404 0.495847581827064 0.5163654127992183
0.0038110860000415414 0.4929164631167562 0.5153883732291158
0.003998657000011008 0.4909623839765511 0.5163654127992183
0.0041857840001284785 0.4938935026868587 0.5192965315095261
0.004373003000182507 0.4938935026868587 0.5173424523693209
0.0045743700002276455 0.4909623839765511 0.5163654127992183
0.0047618860003240115 0.486077186126038 0.5144113336590133
0.004950604999976349 0.48998534440644836 0.5173424523693209
0.005138269000326545 0.4929164631167562 0.5085490962383976
0.005324469000242971 0.4851001465559355 0.5065950170981925
0.005511206999926799 0.48705422569614076 0.5065950170981925
0.005698093000319204 0.4909623839765511 0.5085490962383976
0.005885164000119403 0.486077186126038 0.5007327796775769
0.006073013000332139 0.4851001465559355 0.4978016609672691
0.006260621000365063 0.4851001465559355 0.495847581827064
0.006451506000303198 0.48900830483634583 0.4909623839765511
0.006639133000135189 0.4880312652662433 0.4880312652662433
0.00682613000026322 0.48412310698583294 0.486077186126038
0.007020312000349804 0.486077186126038 0.48412310698583294
0.007208328000160691 0.48412310698583294 0.48412310698583294
0.007395639000151277 0.48705422569614076 0.486077186126038
0.007583414000237099 0.48412310698583294 0.48412310698583294
0.007770615000026737 0.4811919882755251 0.48705422569614076
0.007965463000346062 0.4851001465559355 0.48900830483634583
0.008153645000220422 0.4831460674157304 0.4909623839765511
0.008341104999999516 0.4880312652662433 0.48216902784562765
0.008530584000254748 0.4851001465559355 0.4909623839765511
0.008718654999938735 0.4929164631167562 0.49193942354665365
0.008906670000214945 0.486077186126038 0.48998534440644836
0.009094388999983494 0.486077186126038 0.48900830483634583
0.00928692300021794 0.48900830483634583 0.4938935026868587
0.009474531000250863 0.48998534440644836 0.48900830483634583
0.009668565000083618 0.4880312652662433 0.4880312652662433
0.009856970000328147 0.4880312652662433 0.4880312652662433
0.010044541000297613 0.4948705422569615 0.4880312652662433
0.010233000999960495 0.48998534440644836 0.48900830483634583
0.01042062700025781 0.48705422569614076 0.4880312652662433
0.010608438999952341 0.4929164631167562 0.48900830483634583
0.010794880000048579 0.4851001465559355 0.48705422569614076
0.010981970000102592 0.48900830483634583 0.4851001465559355
0.011169522000272991 0.4851001465559355 0.48705422569614076
0.011356685999999172 0.48900830483634583 0.48705422569614076
0.011543294000148308 0.49193942354665365 0.4880312652662433
0.011730364999948506 0.486077186126038 0.48705422569614076
0.011917566000192892 0.4880312652662433 0.4909623839765511
0.012104359000204568 0.4909623839765511 0.49193942354665365
0.012294152000322356 0.48900830483634583 0.49193942354665365
0.012497890000304324 0.4880312652662433 0.4948705422569615
0.012686942000073032 0.4880312652662433 0.4929164631167562
0.012873384000158694 0.49193942354665365 0.4978016609672691
0.013059788000191475 0.48998534440644836 0.4929164631167562
0.013246415000139677 0.4880312652662433 0.4929164631167562
0.01343311500022537 0.4909623839765511 0.4929164631167562
0.013619260000268696 0.4929164631167562 0.5007327796775769
0.013806812999973772 0.49193942354665365 0.4938935026868587
0.013993217000006553 0.4929164631167562 0.4929164631167562
0.0141800660003355 0.4929164631167562 0.49193942354665365
0.014366656000220246 0.49682462139716654 0.49877870053737183
0.014553689999956987 0.5007327796775769 0.4929164631167562
0.014742742000180442 0.495847581827064 0.4929164631167562
0.014931313000033697 0.495847581827064 0.4929164631167562
0.015118162000362645 0.4948705422569615 0.4948705422569615
0.015304954999919573 0.495847581827064 0.4938935026868587
0.015491674000259081 0.4978016609672691 0.4938935026868587
0.015677838000101474 0.5017098192476794 0.49877870053737183
0.015865334999944025 0.49877870053737183 0.4938935026868587
0.016052369000135513 0.4938935026868587 0.4929164631167562
0.016239625000253 0.49877870053737183 0.4938935026868587
0.016427233000285923 0.4929164631167562 0.4938935026868587
0.016615692999948806 0.5046409379579873 0.495847581827064
0.016803727000024082 0.5036638983878847 0.4909623839765511
0.016991205000067566 0.49975574010747437 0.4938935026868587
0.017178684000100475 0.49877870053737183 0.4938935026868587
0.017368014000112453 0.5007327796775769 0.4938935026868587
0.017556455999965692 0.5017098192476794 0.495847581827064
0.017745064000337152 0.5046409379579873 0.4948705422569615
0.01793344900033844 0.5075720566682951 0.4948705422569615
0.018121223999969516 0.5036638983878847 0.495847581827064
0.018308869000065897 0.5075720566682951 0.49193942354665365
0.018496866000077716 0.5017098192476794 0.49193942354665365
0.018684548000237555 0.5036638983878847 0.48900830483634583
0.018872193000333937 0.5026868588177822 0.4938935026868587
0.01906030100008138 0.5026868588177822 0.4948705422569615
0.019248854000124993 0.5075720566682951 0.48900830483634583
0.019436388000031002 0.49975574010747437 0.4938935026868587
0.01962342200022249 0.49975574010747437 0.49193942354665365
0.019810993000191957 0.5026868588177822 0.4938935026868587
0.01999847100023544 0.5017098192476794 0.4929164631167562
0.02018576499995106 0.5007327796775769 0.495847581827064
0.020373242999994545 0.5017098192476794 0.5036638983878847
0.0206005360000745 0.5007327796775769 0.4948705422569615
0.020793736000086938 0.49975574010747437 0.495847581827064
0.020985307000046305 0.5026868588177822 0.4938935026868587
0.02117686000019603 0.495847581827064 0.495847581827064
0.021368356000039057 0.4978016609672691 0.4929164631167562
0.021565020000252844 0.49877870053737183 0.4909623839765511
0.021756145999916043 0.495847581827064 0.48998534440644836
0.02194675400005508 0.4929164631167562 0.486077186126038
0.02213775100017301 0.4938935026868587 0.4880312652662433
0.02232832200024859 0.495847581827064 0.48705422569614076
0.022518764000324154 0.49877870053737183 0.4929164631167562
0.02270881599997665 0.495847581827064 0.4929164631167562
0.022899591000168584 0.49682462139716654 0.4880312652662433
0.023090643000159616 0.4929164631167562 0.48998534440644836
0.023281492000023718 0.4938935026868587 0.48998534440644836
0.02347235900015221 0.495847581827064 0.49193942354665365
0.02366243000005852 0.4929164631167562 0.48998534440644836
0.02385248300015519 0.4948705422569615 0.4909623839765511
0.0240426089999346 0.49682462139716654 0.4929164631167562
0.02423323600032745 0.4929164631167562 0.4948705422569615
0.024426270000276418 0.4909623839765511 0.4978016609672691
0.024618711000130133 0.48998534440644836 0.4978016609672691
0.024809671000184608 0.49193942354665365 0.49975574010747437
0.024999909000143816 0.48900830483634583 0.49682462139716654
0.02519042400035687 0.4880312652662433 0.5007327796775769
0.02538747600010538 0.48705422569614076 0.5017098192476794
0.025578436000159854 0.48216902784562765 0.495847581827064
0.02576871100018252 0.48412310698583294 0.49682462139716654
0.025959115000205202 0.48216902784562765 0.49682462139716654
0.02614987100014332 0.4851001465559355 0.49682462139716654
0.026340609000271797 0.48705422569614076 0.49682462139716654
0.02653069799998775 0.48216902784562765 0.5036638983878847
0.026721158000327705 0.4831460674157304 0.49877870053737183
0.026911359000223456 0.4831460674157304 0.5026868588177822
0.02710281899999245 0.48900830483634583 0.4978016609672691
0.027293371000268962 0.486077186126038 0.495847581827064
0.027483719999963796 0.48900830483634583 0.49682462139716654
0.027673643000071024 0.4831460674157304 0.495847581827064
0.027864288000273518 0.4831460674157304 0.49877870053737183
0.028054988000349113 0.4811919882755251 0.49877870053737183
0.02824544800023432 0.4909623839765511 0.49975574010747437
0.02843689000019367 0.48216902784562765 0.5017098192476794
0.028628313000353955 0.486077186126038 0.5036638983878847
0.028818958000101702 0.48412310698583294 0.5046409379579873
0.029009603000304196 0.48412310698583294 0.5095261358085001
0.029200007000326877 0.4880312652662433 0.5075720566682951
0.029390318999958254 0.4831460674157304 0.5095261358085001
0.029580890000033833 0.486077186126038 0.5114802149487054
0.029771812000035425 0.48705422569614076 0.5144113336590133
0.029962827999952424 0.48705422569614076 0.512457254518808
0.03015310299997509 0.48705422569614076 0.5095261358085001
0.030343987999913224 0.4880312652662433 0.5134342940889105
0.030534818999967683 0.48998534440644836 0.5163654127992183
0.030725314999926923 0.48900830483634583 0.512457254518808
0.030915960000129417 0.4929164631167562 0.5095261358085001
0.031106328000078065 0.4909623839765511 0.5105031753786029
0.03129751000005854 0.49682462139716654 0.5065950170981925
0.03148787700001776 0.48900830483634583 0.5075720566682951
0.03167889299993476 0.48998534440644836 0.5075720566682951
0.031869223000285274 0.4938935026868587 0.5065950170981925
0.03206008999995902 0.4909623839765511 0.5046409379579873
0.032250364999981684 0.48900830483634583 0.5017098192476794
0.032441362000099616 0.49193942354665365 0.5007327796775769
0.03263343300022825 0.4909623839765511 0.49877870053737183
0.032824984999933804 0.4938935026868587 0.5017098192476794
0.03301588900012575 0.495847581827064 0.4929164631167562
0.03320690500004275 0.49193942354665365 0.49877870053737183
0.033402642000055494 0.4948705422569615 0.49682462139716654
0.03359347300010995 0.4929164631167562 0.4851001465559355
0.03378965399997469 0.4929164631167562 0.48412310698583294
0.0339798919999339 0.495847581827064 0.4831460674157304
0.03417033300002004 0.49682462139716654 0.47923790913532005
0.03436105300033887 0.49682462139716654 0.47728382999511476
0.03455208700006551 0.49682462139716654 0.4763067904250122
0.034742805999940174 0.495847581827064 0.47923790913532005
0.03493252499993105 0.49682462139716654 0.47923790913532005
0.0351232620000701 0.49682462139716654 0.47728382999511476
0.035313721999955305 0.49682462139716654 0.4802149487054226
0.03550399699997797 0.49877870053737183 0.4831460674157304
0.03569493800023338 0.5046409379579873 0.47728382999511476
0.03588591700008692 0.49682462139716654 0.47728382999511476
0.03607646900036343 0.5017098192476794 0.47728382999511476
0.03626731800022753 0.5036638983878847 0.4782608695652173
0.03645794400017621 0.5007327796775769 0.47728382999511476
0.036658903999978065 0.49877870053737183 0.47728382999511476
0.03685069700031818 0.49975574010747437 0.4763067904250122
0.03704126799993901 0.5007327796775769 0.4763067904250122
0.037232060999940586 0.5017098192476794 0.47923790913532005
0.03742194699998436 0.5007327796775769 0.4763067904250122
0.03761229600013394 0.5046409379579873 0.4811919882755251
0.03780346000030477 0.5095261358085001 0.4831460674157304
0.0379943450002429 0.5056179775280898 0.47923790913532005
0.03818493500011755 0.5017098192476794 0.4811919882755251
0.03837561699992875 0.5007327796775769 0.48412310698583294
0.038566576999983226 0.49877870053737183 0.48998534440644836
0.03875685100001647 0.5085490962383976 0.4909623839765511
0.038947903999996925 0.49975574010747437 0.48998534440644836
0.03913804900003015 0.5007327796775769 0.4948705422569615
0.03932852700017975 0.49877870053737183 0.4938935026868587
0.03951902400012841 0.4978016609672691 0.49682462139716654
0.03970883600004527 0.49975574010747437 0.4938935026868587
0.03989879600021595 0.49877870053737183 0.4978016609672691
0.04008908900004826 0.49877870053737183 0.5007327796775769
0.04027990100030365 0.49975574010747437 0.5007327796775769
0.04047956400017938 0.4978016609672691 0.5007327796775769
0.04067209799995908 0.4978016609672691 0.5036638983878847
0.040863354000066465 0.49682462139716654 0.49975574010747437
0.04105379600014203 0.49682462139716654 0.5026868588177822
0.041244144000302185 0.4978016609672691 0.5026868588177822
0.041434567000123934 0.495847581827064 0.5007327796775769
0.04163743400022213 0.495847581827064 0.5036638983878847
0.04182846799994877 0.49682462139716654 0.5056179775280898
0.04201935400033108 0.4948705422569615 0.5075720566682951
0.042210147000332654 0.49682462139716654 0.495847581827064
0.042404163000355766 0.4948705422569615 0.49975574010747437
0.04259745600029419 0.4929164631167562 0.49975574010747437
0.04278854500034868 0.4929164631167562 0.49877870053737183
0.04297895000036078 0.49193942354665365 0.49975574010747437
0.043170372000076895 0.4929164631167562 0.5017098192476794
0.04336160999991989 0.4909623839765511 0.5017098192476794
0.04355240299992147 0.48998534440644836 0.495847581827064
0.04374286300026142 0.495847581827064 0.49682462139716654
0.043933045000358106 0.4909623839765511 0.4938935026868587
0.04412237499991534 0.48900830483634583 0.49682462139716654
0.04431215000022348 0.48998534440644836 0.49877870053737183
0.04450418400028866 0.4909623839765511 0.495847581827064
0.0446953850000682 0.4909623839765511 0.495847581827064
0.044885900000281254 0.4948705422569615 0.495847581827064
0.04507660100034627 0.4851001465559355 0.495847581827064
0.045267190000231494 0.48412310698583294 0.49682462139716654
0.04545727999993687 0.48216902784562765 0.49682462139716654
0.04564786900027684 0.49193942354665365 0.49682462139716654
0.04583847699996113 0.4880312652662433 0.49682462139716654
0.046035417999974015 0.48705422569614076 0.49682462139716654
0.0462266190002083 0.4880312652662433 0.49877870053737183
0.04641694900010407 0.4880312652662433 0.49682462139716654
0.04660779799996817 0.4880312652662433 0.49682462139716654
0.04679803599992738 0.49193942354665365 0.495847581827064
0.04698827300035191 0.48412310698583294 0.495847581827064
0.047178678000364016 0.486077186126038 0.49682462139716654
0.04736898900000597 0.486077186126038 0.49682462139716654
0.047559042000102636 0.4831460674157304 0.4938935026868587
0.047749852999913855 0.48705422569614076 0.4929164631167562
0.04794044300024325 0.48705422569614076 0.4929164631167562
0.04813112500005445 0.4851001465559355 0.4938935026868587
0.04832188099999257 0.4909623839765511 0.4929164631167562
0.04851378500006831 0.4831460674157304 0.4978016609672691
0.048707300999922154 0.4851001465559355 0.4929164631167562
0.04889777900007175 0.4831460674157304 0.48998534440644836
0.04908835000014733 0.48412310698583294 0.4938935026868587
0.04927890299995852 0.4811919882755251 0.4938935026868587
0.049469196000245574 0.4831460674157304 0.4948705422569615
0.04965952600014134 0.48216902784562765 0.4929164631167562
0.04985730099997454 0.4880312652662433 0.4938935026868587
0.0500472600001558 0.4929164631167562 0.5007327796775769
0.05023842400032663 0.48705422569614076 0.4929164631167562
0.050428588000158925 0.486077186126038 0.4929164631167562
0.05061917700004415 0.48900830483634583 0.4938935026868587
0.0508094700003312 0.48705422569614076 0.48998534440644836
0.05099983800027985 0.48900830483634583 0.4938935026868587
0.051190853000207426 0.48705422569614076 0.4938935026868587
0.0513818130002619 0.48900830483634583 0.4929164631167562
0.05157221700028458 0.48900830483634583 0.4948705422569615
0.05176180700027544 0.48998534440644836 0.49877870053737183
0.05195221100029812 0.495847581827064 0.4929164631167562
0.05214263400011987 0.4909623839765511 0.4929164631167562
0.05233263100035401 0.48900830483634583 0.4938935026868587
0.05252392400007011 0.48900830483634583 0.48998534440644836
0.05271401300024081 0.4909623839765511 0.4938935026868587
0.05290389900028458 0.48998534440644836 0.4948705422569615
0.0530939519999265 0.4929164631167562 0.5046409379579873
0.0532842630000232 0.4938935026868587 0.4929164631167562
0.05347461200017278 0.4948705422569615 0.4929164631167562
0.05366494200006855 0.4948705422569615 0.48900830483634583
0.05385560600007011 0.4929164631167562 0.4929164631167562
0.05404614000008223 0.4929164631167562 0.4938935026868587
0.0542363029999251 0.4938935026868587 0.4938935026868587
0.054427541000222845 0.49975574010747437 0.4938935026868587
0.054617464000330074 0.49682462139716654 0.4938935026868587
0.05480792400021528 0.4948705422569615 0.49193942354665365
0.05499877300007938 0.49682462139716654 0.4948705422569615
0.05518925100022898 0.5017098192476794 0.4948705422569615
0.0553798400001142 0.49877870053737183 0.4948705422569615
0.05556954100029543 0.5036638983878847 0.49877870053737183
0.055759390000275744 0.5065950170981925 0.4929164631167562
0.055949646000044595 0.5026868588177822 0.4938935026868587
0.056140495000363444 0.49877870053737183 0.4938935026868587
0.05633008400036488 0.5007327796775769 0.4948705422569615
0.05652158100019733 0.4978016609672691 0.4948705422569615
0.05671128199992381 0.49975574010747437 0.49193942354665365
0.05690235300016866 0.4978016609672691 0.49193942354665365
0.057095127000138746 0.5007327796775769 0.4929164631167562
0.05728649499997118 0.49975574010747437 0.49193942354665365
0.057476213999962056 0.4978016609672691 0.4909623839765511
0.05766608100020676 0.5026868588177822 0.49193942354665365
0.05786307800008217 0.4978016609672691 0.4909623839765511
0.05805398200027412 0.49975574010747437 0.4909623839765511
0.05824983100001191 0.5007327796775769 0.49193942354665365
0.058441420000235667 0.49975574010747437 0.4938935026868587
0.05863238000029014 0.5007327796775769 0.49193942354665365
0.0588230440002917 0.49975574010747437 0.49193942354665365
0.059013411000250926 0.4978016609672691 0.48998534440644836
0.05946601499999815 0.5017098192476794 0.4929164631167562
0.0596585490002326 0.5007327796775769 0.495847581827064
0.05985019400031888 0.5046409379579873 0.48998534440644836
0.06004113500011954 0.49682462139716654 0.4880312652662433
0.06023166900013166 0.49682462139716654 0.4880312652662433
0.06042179499991107 0.4978016609672691 0.486077186126038
0.06061412600001859 0.49682462139716654 0.48998534440644836
0.06080453000004127 0.49682462139716654 0.49193942354665365
0.06099576800033901 0.49877870053737183 0.48998534440644836
0.06118632000016078 0.49877870053737183 0.49193942354665365
0.061376891000236355 0.4978016609672691 0.49877870053737183
0.061567332000322494 0.4978016609672691 0.4929164631167562
0.06175721799991152 0.49682462139716654 0.4948705422569615
0.06194690000029368 0.4978016609672691 0.495847581827064
0.06213839700012613 0.4948705422569615 0.495847581827064
0.062328116000117006 0.495847581827064 0.49682462139716654
0.06251894700017147 0.4938935026868587 0.4948705422569615
0.06270975799998268 0.49193942354665365 0.49682462139716654
0.06290020000005825 0.49193942354665365 0.4938935026868587
0.06309047400009149 0.4948705422569615 0.5007327796775769
0.06328043400026218 0.49682462139716654 0.49877870053737183
0.06347045000029539 0.4938935026868587 0.49682462139716654
0.0636605210002017 0.49682462139716654 0.5017098192476794
0.06385049900018203 0.48998534440644836 0.49877870053737183
0.06404092200000377 0.4938935026868587 0.49877870053737183
0.06423088200017446 0.4909623839765511 0.4978016609672691
0.0644207670002288 0.4909623839765511 0.49975574010747437
0.06461113500017746 0.48900830483634583 0.49975574010747437
0.06489542600002096 0.48900830483634583 0.49877870053737183
0.0653689740001937 0.48705422569614076 0.495847581827064
0.06557004500018593 0.48998534440644836 0.4929164631167562
0.06576420900000812 0.486077186126038 0.5017098192476794
0.0659562979999464 0.4948705422569615 0.4948705422569615
0.06614853600012793 0.4880312652662433 0.4929164631167562
0.06633990299997095 0.4880312652662433 0.4909623839765511
0.06654539999999542 0.48705422569614076 0.4929164631167562
0.06673682200016628 0.48705422569614076 0.48900830483634583
0.06692844899998818 0.48705422569614076 0.48900830483634583
0.0671189830000003 0.48705422569614076 0.4938935026868587
0.0673094610001499 0.4851001465559355 0.49193942354665365
0.06750073600005635 0.48412310698583294 0.4938935026868587
0.06769158499992045 0.48900830483634583 0.48998534440644836
0.06788284100002784 0.4831460674157304 0.48998534440644836
0.06807554100032576 0.48216902784562765 0.4948705422569615
0.06826692699996784 0.48412310698583294 0.495847581827064
0.06845740600010686 0.4802149487054226 0.4978016609672691
0.06868625400011297 0.48216902784562765 0.495847581827064
0.06887841700017816 0.48412310698583294 0.495847581827064
0.06907017300000007 0.4851001465559355 0.5007327796775769
0.06926176300021325 0.4880312652662433 0.49877870053737183
0.06945366700028899 0.48705422569614076 0.49975574010747437
0.06964910800024882 0.4831460674157304 0.49975574010747437
0.06984051300014471 0.48705422569614076 0.4978016609672691
0.07003184299992427 0.48705422569614076 0.4938935026868587
0.0702230619999682 0.48900830483634583 0.4948705422569615
0.07041744800017113 0.48900830483634583 0.4938935026868587
0.07060942599991904 0.48900830483634583 0.4948705422569615
0.07080081200001587 0.4880312652662433 0.49193942354665365
0.07100236399992355 0.48998534440644836 0.49193942354665365
0.07119423099993583 0.4880312652662433 0.4909623839765511
0.07138511700031813 0.48998534440644836 0.4909623839765511
0.07157655900027748 0.48998534440644836 0.49193942354665365
0.07176755499995124 0.48998534440644836 0.49193942354665365
0.0719584040002701 0.49193942354665365 0.48900830483634583
0.07214921600007074 0.495847581827064 0.4880312652662433
0.07234015700032614 0.48998534440644836 0.4909623839765511
0.07253319100027511 0.48998534440644836 0.4851001465559355
0.07272326200018142 0.49193942354665365 0.4880312652662433
0.07291375900013009 0.4909623839765511 0.48900830483634583
0.07310471900018456 0.48998534440644836 0.4909623839765511
0.07329603100015447 0.48900830483634583 0.49193942354665365
0.07348710199994457 0.4880312652662433 0.48998534440644836
0.07367857999997796 0.4909623839765511 0.48998534440644836
0.07386915100005353 0.4929164631167562 0.49193942354665365
0.07405994400005511 0.4938935026868587 0.4909623839765511
0.07425021900007778 0.4978016609672691 0.49193942354665365
0.0744411969999419 0.4978016609672691 0.48900830483634583
0.07463236100011272 0.5007327796775769 0.4880312652662433
0.07482926500006215 0.49682462139716654 0.4880312652662433
0.07501992800007429 0.49682462139716654 0.4880312652662433
0.07521061100032966 0.4978016609672691 0.4880312652662433
0.0754011819999505 0.49682462139716654 0.48998534440644836
0.07559191900008955 0.49877870053737183 0.4948705422569615
0.0757821199999853 0.5026868588177822 0.4948705422569615
0.07597319100023014 0.5036638983878847 0.4909623839765511
0.0761641320000308 0.4978016609672691 0.495847581827064
0.07635488799996892 0.5017098192476794 0.4909623839765511
0.07654744100000244 0.5017098192476794 0.4948705422569615
0.0767388080003002 0.5065950170981925 0.4880312652662433
0.07693002700034413 0.512457254518808 0.4880312652662433
0.07712087600020823 0.5026868588177822 0.48998534440644836
0.07731252100029451 0.5075720566682951 0.49682462139716654
0.07750355500002115 0.5036638983878847 0.48900830483634583
0.07769373700011784 0.5026868588177822 0.4880312652662433
0.07788453000011941 0.5046409379579873 0.48998534440644836
0.07807547099992007 0.5046409379579873 0.48998534440644836
0.07826665300035529 0.5056179775280898 0.4938935026868587
0.0784571130002405 0.5065950170981925 0.4948705422569615
0.07864829500022097 0.5095261358085001 0.49877870053737183
0.07883899600028599 0.5036638983878847 0.49682462139716654
0.07903021500032992 0.5065950170981925 0.5007327796775769
0.07922036000036314 0.5026868588177822 0.4938935026868587
0.07941115300036472 0.49877870053737183 0.4938935026868587
0.07960185399997499 0.49975574010747437 0.495847581827064
0.07979249900017749 0.5007327796775769 0.4938935026868587
0.07998314399992523 0.49877870053737183 0.4978016609672691
0.08017388200005371 0.49877870053737183 0.4978016609672691
0.08036476699999184 0.5007327796775769 0.49682462139716654
0.08056609799996295 0.49877870053737183 0.49877870053737183
0.08075703900021836 0.4978016609672691 0.49975574010747437
0.08094829500032574 0.49682462139716654 0.49975574010747437
0.08113868100008403 0.5007327796775769 0.49975574010747437
0.0813299179999376 0.5017098192476794 0.49975574010747437
0.08152063800025644 0.5007327796775769 0.5036638983878847
0.08171144900006766 0.5017098192476794 0.49877870053737183
0.08190259399998467 0.4948705422569615 0.4978016609672691
0.08209327600025063 0.4948705422569615 0.49975574010747437
0.08228381000026275 0.4938935026868587 0.49877870053737183
0.08247471499998937 0.4938935026868587 0.49877870053737183
0.08266515600007551 0.4938935026868587 0.49877870053737183
0.08285541200029911 0.49682462139716654 0.49682462139716654
0.08305731600012223 0.4938935026868587 0.49682462139716654
0.08325342400030422 0.4948705422569615 0.4948705422569615
0.0834442170003058 0.4948705422569615 0.49682462139716654
0.08363473300005353 0.4948705422569615 0.4978016609672691
0.08382511900026657 0.49682462139716654 0.49975574010747437
0.08401619000005667 0.4948705422569615 0.5007327796775769
0.08420659400007935 0.4880312652662433 0.495847581827064
0.08440396100013459 0.4880312652662433 0.49877870053737183
0.08461655000019164 0.4880312652662433 0.49975574010747437
0.08481880599993019 0.48216902784562765 0.49975574010747437
0.08503078400008235 0.48900830483634583 0.495847581827064
0.08523942900001202 0.48900830483634583 0.49682462139716654
0.08543974000031085 0.4851001465559355 0.4929164631167562
0.0856397930001549 0.486077186126038 0.4909623839765511
0.08584543799997846 0.4831460674157304 0.49877870053737183
0.08604562000027727 0.48412310698583294 0.4929164631167562
0.0862459130003117 0.4880312652662433 0.4929164631167562
0.0864414279999437 0.486077186126038 0.4909623839765511
0.0866449250002006 0.4831460674157304 0.5007327796775769
0.08684860600033062 0.486077186126038 0.49193942354665365
0.08708301000024221 0.4831460674157304 0.495847581827064
0.08731732100022782 0.4811919882755251 0.4929164631167562
0.087513410000156 0.4880312652662433 0.495847581827064
0.08770690700021078 0.4831460674157304 0.4929164631167562
0.08789838600023359 0.48412310698583294 0.495847581827064
0.08809092000001328 0.48412310698583294 0.4978016609672691
0.08829208299994207 0.48216902784562765 0.5036638983878847
0.08852085700027601 0.486077186126038 0.4938935026868587
0.08871805800026777 0.4851001465559355 0.4929164631167562
0.08891172099993128 0.48412310698583294 0.4929164631167562
0.08911047700030394 0.4880312652662433 0.495847581827064
0.08930862200031697 0.4802149487054226 0.49193942354665365
0.08951782200028902 0.4831460674157304 0.49193942354665365
0.08974843000032706 0.4811919882755251 0.4938935026868587
0.08998946300016541 0.4831460674157304 0.4948705422569615
0.09022320000030959 0.4880312652662433 0.48900830483634583
0.0904284739999639 0.4880312652662433 0.495847581827064
0.09063184100023136 0.486077186126038 0.4978016609672691
0.09083744899999147 0.486077186126038 0.495847581827064
0.09103966800012131 0.4880312652662433 0.4909623839765511
0.09123299800012319 0.486077186126038 0.4929164631167562
0.09142971700021008 0.486077186126038 0.49877870053737183
0.09165013900019403 0.49193942354665365 0.4938935026868587
0.09184891399991102 0.48705422569614076 0.48998534440644836
0.09204713300005096 0.486077186126038 0.495847581827064
0.09225477800009685 0.48216902784562765 0.4909623839765511
0.09246271900019565 0.47923790913532005 0.4948705422569615
0.0927237700002479 0.48900830483634583 0.4929164631167562
0.09293073000026197 0.4851001465559355 0.4938935026868587
0.09314442999993844 0.48705422569614076 0.48998534440644836
0.09334751899996263 0.4929164631167562 0.49682462139716654
0.09354922000011356 0.4880312652662433 0.48998534440644836
0.09376630900032978 0.48900830483634583 0.49193942354665365
0.09399662000032549 0.48998534440644836 0.4909623839765511
0.09422774600034245 0.5017098192476794 0.4948705422569615
0.09443620499996541 0.4948705422569615 0.4948705422569615
0.09466544199995042 0.49682462139716654 0.49682462139716654
0.09485727300034341 0.5017098192476794 0.4938935026868587
0.09504799200021807 0.4978016609672691 0.495847581827064
0.09523922900007165 0.5017098192476794 0.4938935026868587
0.09543004100032704 0.5017098192476794 0.49682462139716654
0.09562429700008579 0.49975574010747437 0.4948705422569615
0.0958152749999499 0.5007327796775769 0.49877870053737183
0.09600606899994091 0.5007327796775769 0.49682462139716654
0.09619701000019631 0.49975574010747437 0.49877870053737183
0.09639908100007233 0.5017098192476794 0.4938935026868587
0.09659831800036045 0.4978016609672691 0.5065950170981925
0.09678696300034062 0.4978016609672691 0.49682462139716654
0.09697455300010915 0.49975574010747437 0.49682462139716654
0.09716240200032189 0.49975574010747437 0.49975574010747437
0.09735041700014335 0.49975574010747437 0.49877870053737183
0.09753767300026084 0.4978016609672691 0.4938935026868587
0.09772504100010337 0.49975574010747437 0.49682462139716654
0.09791196400010449 0.4978016609672691 0.4938935026868587
0.09809927500009508 0.5085490962383976 0.5046409379579873
0.09828775400001177 0.49877870053737183 0.49682462139716654
0.09847525100030907 0.5017098192476794 0.4948705422569615
0.09868097000025955 0.49682462139716654 0.4909623839765511
0.09887855900024078 0.4978016609672691 0.4948705422569615
0.09908690700012812 0.49975574010747437 0.49193942354665365
0.09929060800004663 0.49975574010747437 0.495847581827064
0.09950323400016714 0.4978016609672691 0.4929164631167562
0.09969793500022206 0.495847581827064 0.4909623839765511
0.09989148700014994 0.49682462139716654 0.49877870053737183
0.10010909500033449 0.49682462139716654 0.49975574010747437
0.10031255400008376 0.4938935026868587 0.49193942354665365
0.10057393900024181 0.49877870053737183 0.495847581827064
0.1008744150003622 0.4978016609672691 0.4978016609672691
0.10114293000015095 0.4978016609672691 0.48998534440644836
0.10140368500015029 0.5007327796775769 0.4938935026868587
0.101672217000214 0.4978016609672691 0.4938935026868587
0.10192565800025477 0.5026868588177822 0.4938935026868587
0.10220626399996036 0.49193942354665365 0.4948705422569615
0.10247129700019286 0.4938935026868587 0.5017098192476794
0.10272836700005428 0.4909623839765511 0.49877870053737183
0.10294347400031256 0.4929164631167562 0.495847581827064
0.10314341599996624 0.49193942354665365 0.49682462139716654
0.10334155999998984 0.49193942354665365 0.4938935026868587
0.10353072399993835 0.5046409379579873 0.4948705422569615
0.10372142500000336 0.48900830483634583 0.4938935026868587
0.10391481000033309 0.49877870053737183 0.4938935026868587
0.10410665900008098 0.4929164631167562 0.4929164631167562
0.10430341500023133 0.4978016609672691 0.49877870053737183
0.10461476199998287 0.4929164631167562 0.49682462139716654
0.10483666600021024 0.4880312652662433 0.4948705422569615
0.10503107000022283 0.4880312652662433 0.4938935026868587
0.10523153000031016 0.4880312652662433 0.5036638983878847
0.10542704499994215 0.486077186126038 0.49877870053737183
0.10562789400000838 0.49193942354665365 0.49877870053737183
0.10581918700017923 0.48900830483634583 0.4948705422569615
0.10601505400018141 0.486077186126038 0.495847581827064
0.10620955100011997 0.486077186126038 0.4938935026868587
0.10640210300016406 0.48705422569614076 0.495847581827064
0.10660760000018854 0.48705422569614076 0.4948705422569615
0.10680256000023292 0.48705422569614076 0.4948705422569615
0.10699413100019228 0.4851001465559355 0.49877870053737183
0.10720303500011141 0.48705422569614076 0.4938935026868587
0.1074696790001326 0.4880312652662433 0.49682462139716654
0.10769297100023323 0.4909623839765511 0.4948705422569615
0.10789667200015174 0.4880312652662433 0.4938935026868587
0.1081360749999476 0.48705422569614076 0.495847581827064
0.10832720200005497 0.4831460674157304 0.4929164631167562
0.10852845800036448 0.4831460674157304 0.495847581827064
0.10871928799997477 0.4831460674157304 0.495847581827064
0.10890841400032514 0.4909623839765511 0.4938935026868587
0.10910117100002026 0.48998534440644836 0.495847581827064
0.10930379699993864 0.4880312652662433 0.49193942354665365
0.10953681199998755 0.4851001465559355 0.5007327796775769
0.10973117899993667 0.48705422569614076 0.4978016609672691
0.10995532300012201 0.48705422569614076 0.4938935026868587
0.11015489400006118 0.49193942354665365 0.4978016609672691
0.11035420600001089 0.486077186126038 0.4929164631167562
0.11055159100033052 0.4851001465559355 0.4929164631167562
0.1107789950001461 0.4880312652662433 0.48900830483634583
0.11099114000035115 0.48998534440644836 0.49193942354665365
0.11119158100018467 0.4851001465559355 0.48998534440644836
0.11139198499995473 0.4909623839765511 0.4929164631167562
0.11158344500017847 0.49193942354665365 0.4938935026868587
0.11177683100004288 0.48900830483634583 0.48998534440644836
0.11197197599994979 0.48705422569614076 0.48998534440644836
0.11216658400007873 0.4929164631167562 0.4929164631167562
0.11236252500020782 0.48998534440644836 0.4948705422569615
0.11261665000029097 0.4948705422569615 0.49193942354665365
0.11282359100005124 0.49193942354665365 0.49193942354665365
0.11302406999993764 0.4978016609672691 0.48998534440644836
0.11322825200022635 0.4909623839765511 0.48998534440644836
0.1134358220001559 0.4938935026868587 0.4851001465559355
0.11363468900026419 0.49193942354665365 0.4948705422569615
0.11385231500025839 0.49193942354665365 0.49193942354665365
0.11406771900010426 0.4948705422569615 0.48900830483634583
0.11427745700029845 0.49877870053737183 0.48998534440644836
0.11449299000014435 0.4938935026868587 0.48998534440644836
0.11471533800022371 0.49682462139716654 0.4851001465559355
0.11495702000001984 0.49682462139716654 0.4909623839765511
0.11520514500034551 0.49975574010747437 0.4929164631167562
0.11544862300024761 0.5075720566682951 0.4909623839765511
0.11566445300013584 0.4978016609672691 0.49682462139716654
0.1158660979999695 0.5056179775280898 0.48900830483634583
0.11606096500008789 0.5026868588177822 0.48900830483634583
0.11626873900013379 0.5036638983878847 0.486077186126038
0.1165447530001984 0.4978016609672691 0.48705422569614076
0.11681669300014619 0.4978016609672691 0.48705422569614076
0.11703913400015153 0.49975574010747437 0.48998534440644836
0.117261093000252 0.495847581827064 0.48998534440644836
0.11748260800004573 0.49877870053737183 0.49682462139716654
0.117738030000055 0.49975574010747437 0.4938935026868587
0.11794939700030227 0.49877870053737183 0.49877870053737183
0.1181677640001908 0.4978016609672691 0.4929164631167562
0.11839076000023852 0.5065950170981925 0.4909623839765511
0.11861712700010685 0.49975574010747437 0.4929164631167562
0.1189051040000777 0.49877870053737183 0.49975574010747437
0.1191356369999994 0.5056179775280898 0.4948705422569615
0.11935061500025768 0.5046409379579873 0.49682462139716654
0.11957794499994634 0.4978016609672691 0.4938935026868587
0.11980021900035354 0.5017098192476794 0.495847581827064
0.12007725100011157 0.5085490962383976 0.4929164631167562
0.12036693200025184 0.49975574010747437 0.4978016609672691
0.12076490700019349 0.49682462139716654 0.49193942354665365
0.12103971700025795 0.5007327796775769 0.495847581827064
0.1213275270001759 0.5017098192476794 0.495847581827064
0.12162161500009461 0.49877870053737183 0.49975574010747437
0.12188666600013676 0.5007327796775769 0.5046409379579873
0.12213158800022939 0.49682462139716654 0.49682462139716654
0.1223878060000061 0.495847581827064 0.4938935026868587
0.12263741300012043 0.4948705422569615 0.49877870053737183
0.12284985399992365 0.49682462139716654 0.4948705422569615
0.12305087000004278 0.4948705422569615 0.495847581827064
0.12329725400013558 0.4909623839765511 0.4948705422569615
0.1235123440001189 0.4929164631167562 0.49877870053737183
0.12371748800023852 0.48900830483634583 0.5065950170981925
0.12391650400013532 0.4938935026868587 0.5017098192476794
0.12411176000023261 0.4909623839765511 0.49877870053737183
0.12433562600017467 0.48705422569614076 0.49682462139716654
0.124539919000199 0.4909623839765511 0.49975574010747437
0.12473971200006417 0.4851001465559355 0.5007327796775769
0.1250066530001277 0.486077186126038 0.495847581827064
0.12521807500024806 0.4880312652662433 0.4938935026868587
0.12541588700014472 0.48412310698583294 0.4929164631167562
0.12560879100010425 0.486077186126038 0.4929164631167562
0.1257963620000737 0.48412310698583294 0.49682462139716654
0.12598522899997988 0.48412310698583294 0.495847581827064
0.12617748499997106 0.486077186126038 0.4948705422569615
0.1263655750003636 0.4938935026868587 0.495847581827064
0.12655397900016396 0.4909623839765511 0.495847581827064
0.126741198000218 0.4880312652662433 0.49682462139716654
0.12692960300000777 0.4929164631167562 0.49682462139716654
0.12711754400015707 0.4851001465559355 0.48998534440644836
0.1273045410002851 0.48412310698583294 0.48998534440644836
0.12749181600020165 0.486077186126038 0.4909623839765511
0.1276793310003086 0.48705422569614076 0.49193942354665365
0.12786671699996077 0.4880312652662433 0.4938935026868587
0.1280560290001631 0.4929164631167562 0.49975574010747437
0.12827667300007306 0.4929164631167562 0.4929164631167562
0.12846439300028578 0.4880312652662433 0.49193942354665365
0.128677056000015 0.486077186126038 0.48998534440644836
0.12886575600032302 0.486077186126038 0.4938935026868587
0.12905297599991172 0.486077186126038 0.4929164631167562
0.12924052800008212 0.48998534440644836 0.4938935026868587
0.1294276550001996 0.48998534440644836 0.49682462139716654
0.12961555900028543 0.4929164631167562 0.4978016609672691
0.12980279700013853 0.4880312652662433 0.4938935026868587
0.1299902200003089 0.4851001465559355 0.49877870053737183
0.13017799399995056 0.4851001465559355 0.4929164631167562
0.13036541700012094 0.48900830483634583 0.4929164631167562
0.13055306200021732 0.48998534440644836 0.4929164631167562
0.13074028200026078 0.4929164631167562 0.49682462139716654
0.13093714900014675 0.48900830483634583 0.48900830483634583
0.13113575700026558 0.48705422569614076 0.4880312652662433
0.13133816100025797 0.486077186126038 0.49193942354665365
0.1315288240002701 0.486077186126038 0.4909623839765511
0.13171595099993283 0.48705422569614076 0.4929164631167562
0.13190352200035704 0.48705422569614076 0.49193942354665365
0.13209116699999868 0.48900830483634583 0.495847581827064
0.1322791820002749 0.4948705422569615 0.4978016609672691
0.1324664940002549 0.49193942354665365 0.4929164631167562
0.13275121200013018 0.4880312652662433 0.4978016609672691
0.13294654200035438 0.49682462139716654 0.49682462139716654
0.1331353720001971 0.4978016609672691 0.48998534440644836
0.13332394300005035 0.4948705422569615 0.495847581827064
0.1335116990003371 0.49975574010747437 0.49193942354665365
0.1336987700001373 0.4909623839765511 0.49193942354665365
0.13388613799997984 0.4948705422569615 0.4948705422569615
0.134076264000214 0.4929164631167562 0.5026868588177822
0.13426548400002503 0.4938935026868587 0.4929164631167562
0.1344537400000263 0.4929164631167562 0.49975574010747437
0.13464177400010158 0.4929164631167562 0.4948705422569615
0.13482897400035654 0.49193942354665365 0.4948705422569615
0.13501591600015672 0.495847581827064 0.4948705422569615
0.13520289400003094 0.49682462139716654 0.49682462139716654
0.13539511299995866 0.49975574010747437 0.49193942354665365
0.13558416600017154 0.4978016609672691 0.49193942354665365
0.13577229200018337 0.4978016609672691 0.49877870053737183
0.13596001199994134 0.5036638983878847 0.48998534440644836
0.13615304500035563 0.49877870053737183 0.495847581827064
0.13637517100005425 0.49877870053737183 0.4880312652662433
0.1366258339999149 0.49682462139716654 0.48900830483634583
0.13690647800012812 0.49682462139716654 0.4948705422569615
0.13713573299992277 0.5017098192476794 0.4909623839765511
0.13737237700024707 0.49877870053737183 0.48900830483634583
0.13759398499996678 0.49682462139716654 0.4909623839765511
0.13781511100023636 0.49877870053737183 0.48900830483634583
0.13801808900007018 0.49975574010747437 0.4880312652662433
0.13821777100019972 0.5007327796775769 0.4938935026868587
0.13842204599995966 0.5017098192476794 0.4938935026868587
0.13862780099998417 0.5036638983878847 0.49682462139716654
0.1389051300002393 0.5026868588177822 0.4909623839765511
0.13913947800028836 0.49877870053737183 0.495847581827064
0.13937860400028512 0.5007327796775769 0.4929164631167562
0.1396357850003369 0.5007327796775769 0.49193942354665365
0.13986781800031167 0.5065950170981925 0.4909623839765511
0.14007966700000907 0.49682462139716654 0.49193942354665365
0.14030392199993003 0.5007327796775769 0.48900830483634583
0.14060225100001844 0.4978016609672691 0.48900830483634583
0.14088754200020048 0.4978016609672691 0.4938935026868587
0.14115185300033772 0.49877870053737183 0.4978016609672691
0.14144584800033044 0.4929164631167562 0.4909623839765511
0.14172121399997195 0.4909623839765511 0.48900830483634583
0.1419918950000465 0.4929164631167562 0.48998534440644836
0.14223874300023454 0.5007327796775769 0.4909623839765511
0.142489998000201 0.4929164631167562 0.4938935026868587
0.1427425490001042 0.4909623839765511 0.4929164631167562
0.14303819299993847 0.48900830483634583 0.49877870053737183
0.14328976300021168 0.4938935026868587 0.49682462139716654
0.14351116600028035 0.49193942354665365 0.49975574010747437
0.1437455330001285 0.4909623839765511 0.49682462139716654
0.14398097399998733 0.48900830483634583 0.49877870053737183
0.1441922290000548 0.49975574010747437 0.5036638983878847
0.1443956339999204 0.4929164631167562 0.5075720566682951
0.1446697960000165 0.49193942354665365 0.49682462139716654
0.1448755890000939 0.48900830483634583 0.49877870053737183
0.14507490000005419 0.48900830483634583 0.5017098192476794
0.1452710640000987 0.48705422569614076 0.495847581827064
0.1454674490000798 0.4938935026868587 0.49877870053737183
0.14566192800020872 0.48216902784562765 0.49877870053737183
0.14585992499996792 0.486077186126038 0.5007327796775769
0.1460562550000759 0.486077186126038 0.4978016609672691
0.1462458810001408 0.4831460674157304 0.49877870053737183
0.14650235900035113 0.48412310698583294 0.495847581827064
0.1466929110001729 0.4831460674157304 0.49877870053737183
0.14688333399999465 0.48216902784562765 0.49975574010747437
0.14707081200003813 0.4929164631167562 0.4929164631167562
0.1472583830000076 0.48216902784562765 0.4938935026868587
0.14744615800009342 0.48216902784562765 0.4929164631167562
0.1476334140002109 0.4851001465559355 0.4938935026868587
0.14782098500018037 0.4831460674157304 0.495847581827064
0.14800868600013928 0.486077186126038 0.5007327796775769
0.148196757000278 0.48412310698583294 0.48900830483634583
0.1483850690001418 0.48705422569614076 0.4929164631167562
0.14861054700031673 0.486077186126038 0.4938935026868587
0.1487981180002862 0.4851001465559355 0.4938935026868587
0.1489856520001922 0.4880312652662433 0.4938935026868587
0.14917285199999242 0.4880312652662433 0.4929164631167562
0.14936042299996188 0.4880312652662433 0.495847581827064
0.1495498829999633 0.48998534440644836 0.5007327796775769
0.14973752800005968 0.48705422569614076 0.4938935026868587
0.1499246920002406 0.4880312652662433 0.4948705422569615
0.1501119480003581 0.48705422569614076 0.4929164631167562
0.15029907500002082 0.4880312652662433 0.4929164631167562
0.1504911639999591 0.48705422569614076 0.48900830483634583
0.1506893650002894 0.4880312652662433 0.48998534440644836
0.15096323000034317 0.486077186126038 0.48998534440644836
0.15117133800004012 0.4880312652662433 0.49682462139716654
0.15135865000002013 0.4909623839765511 0.4929164631167562
0.1515464620001694 0.48998534440644836 0.48998534440644836
0.15173386600008598 0.486077186126038 0.48705422569614076
0.15192090000027747 0.48900830483634583 0.49193942354665365
0.1521085080003104 0.4909623839765511 0.48998534440644836
0.15229832000022725 0.48998534440644836 0.48998534440644836
0.1525079650000407 0.4929164631167562 0.49193942354665365
0.1527010730001166 0.4938935026868587 0.48998534440644836
0.15289568100024553 0.49682462139716654 0.4880312652662433
0.15308349199995064 0.4938935026868587 0.48998534440644836
0.15327041499995175 0.4929164631167562 0.48900830483634583
0.1534572450000269 0.4909623839765511 0.49193942354665365
0.15364429800001744 0.495847581827064 0.49877870053737183
0.15383377600028325 0.4929164631167562 0.49193942354665365
0.15403094000021156 0.4948705422569615 0.4929164631167562
0.15423115900011908 0.4929164631167562 0.4938935026868587
0.15443141500009006 0.4938935026868587 0.495847581827064
0.15463781900007234 0.4948705422569615 0.49682462139716654
0.1548920180002824 0.49682462139716654 0.49193942354665365
0.15509558900021148 0.49975574010747437 0.5007327796775769
0.15529125300008673 0.49682462139716654 0.5017098192476794
0.15549430500004746 0.49877870053737183 0.49193942354665365
0.1556916720001027 0.49682462139716654 0.495847581827064
0.1558916870003486 0.4938935026868587 0.4978016609672691
0.1560973880000347 0.49877870053737183 0.49682462139716654
0.15630351400022846 0.4978016609672691 0.4938935026868587
0.15653469500011852 0.49877870053737183 0.4978016609672691
0.1567391180001323 0.49682462139716654 0.5007327796775769
0.15695163300006243 0.49975574010747437 0.4938935026868587
0.1571541299999808 0.4978016609672691 0.4938935026868587
0.15737001500019687 0.5046409379579873 0.49682462139716654
0.1576245670003118 0.49682462139716654 0.49193942354665365
0.15788517300006788 0.5105031753786029 0.49193942354665365
0.1580910220000078 0.5036638983878847 0.49193942354665365
0.15829444500013778 0.5046409379579873 0.48998534440644836
0.15849747800029945 0.5017098192476794 0.4938935026868587
0.15868714199996248 0.5056179775280898 0.49193942354665365
0.15887636100023883 0.5105031753786029 0.48998534440644836
0.15906419100019775 0.5017098192476794 0.48998534440644836
0.15925178099996629 0.5046409379579873 0.49682462139716654
0.15943946300012612 0.5007327796775769 0.4909623839765511
0.15962762700019084 0.5007327796775769 0.4909623839765511
0.15981493800018143 0.5007327796775769 0.4929164631167562
0.16000256500001342 0.5017098192476794 0.495847581827064
0.1601889690000462 0.5085490962383976 0.4938935026868587
0.16037587400023767 0.5017098192476794 0.5007327796775769
0.16059511100002055 0.5007327796775769 0.5007327796775769
0.160784163000244 0.5007327796775769 0.49877870053737183
0.16097299400007614 0.5075720566682951 0.5065950170981925
0.1611669530002473 0.49975574010747437 0.49975574010747437
0.16135426500022731 0.49877870053737183 0.49682462139716654
0.1615407439999217 0.495847581827064 0.49682462139716654
0.16172850000020844 0.5017098192476794 0.5075720566682951
0.1619156629999452 0.5036638983878847 0.5017098192476794
0.16210290100025304 0.495847581827064 0.4929164631167562
0.16228982400025416 0.49682462139716654 0.4948705422569615
0.1624770250000438 0.49682462139716654 0.4938935026868587
0.16266409600029874 0.4938935026868587 0.4938935026868587
0.1628510370001095 0.495847581827064 0.495847581827064
0.16303831200002605 0.49193942354665365 0.4929164631167562
0.16324997500032623 0.4929164631167562 0.4938935026868587
0.16343747200016878 0.4909623839765511 0.4929164631167562
0.1636341540001922 0.49193942354665365 0.4909623839765511
0.16382366900006673 0.48900830483634583 0.4929164631167562
0.164011352000216 0.48900830483634583 0.4938935026868587
0.1641984970001431 0.48998534440644836 0.49975574010747437
0.16443647400001282 0.48412310698583294 0.495847581827064
0.16463630399994145 0.4880312652662433 0.4938935026868587
0.16482511599997451 0.48705422569614076 0.4948705422569615
0.16501333499991233 0.48216902784562765 0.4948705422569615
0.16521583200028545 0.48705422569614076 0.495847581827064
0.16541647700023532 0.4811919882755251 0.495847581827064
0.16561082599992005 0.4851001465559355 0.495847581827064
0.16580998900008126 0.48216902784562765 0.495847581827064
0.16600485600019965 0.4851001465559355 0.4938935026868587
0.1662030570000752 0.47923790913532005 0.4978016609672691
0.16640110900016225 0.4802149487054226 0.49193942354665365
0.1665985869999531 0.47923790913532005 0.495847581827064
0.16679454700033602 0.4880312652662433 0.49877870053737183
0.16698798800007353 0.48216902784562765 0.4929164631167562
0.16718507800032967 0.48412310698583294 0.495847581827064
0.16739744500000597 0.4811919882755251 0.4938935026868587
0.1676109230002112 0.48705422569614076 0.4948705422569615
0.16783143800012112 0.47923790913532005 0.4938935026868587
0.16805899000019053 0.4880312652662433 0.48900830483634583
0.16830313400032537 0.4811919882755251 0.4909623839765511
0.16857185200024105 0.48412310698583294 0.4929164631167562
0.16882064400033414 0.4753297508549097 0.4948705422569615
0.1690458990001389 0.4831460674157304 0.4909623839765511
0.1692595810000057 0.48900830483634583 0.495847581827064
0.16945618900035697 0.4831460674157304 0.48900830483634583
0.16965805600011663 0.48216902784562765 0.49682462139716654
0.16985481200026697 0.48900830483634583 0.4929164631167562
0.17004467900005693 0.4880312652662433 0.4909623839765511
0.17023239900026965 0.48412310698583294 0.4909623839765511
0.17042241400031344 0.48705422569614076 0.48998534440644836
0.1706218180001997 0.4851001465559355 0.49193942354665365
0.17082140799993795 0.48705422569614076 0.49193942354665365
0.1710235890000149 0.4929164631167562 0.4909623839765511
0.1712376039999981 0.486077186126038 0.4929164631167562
0.17144950800002334 0.48705422569614076 0.486077186126038
0.1716499870003645 0.4851001465559355 0.4880312652662433
0.17188116800025455 0.48705422569614076 0.49193942354665365
0.17209586800026955 0.48900830483634583 0.4880312652662433
0.17231923500003177 0.49193942354665365 0.4909623839765511
0.17263258200000564 0.48412310698583294 0.48900830483634583
0.17287539300014032 0.486077186126038 0.48705422569614076
0.17312842599994838 0.4831460674157304 0.486077186126038
0.1733761990003586 0.48998534440644836 0.4929164631167562
0.17359952900005737 0.4909623839765511 0.49193942354665365
0.17382058100020004 0.49193942354665365 0.48900830483634583
0.17404357700024775 0.495847581827064 0.4938935026868587
0.17425020400014546 0.4938935026868587 0.495847581827064
0.17445690400018066 0.4948705422569615 0.4938935026868587
0.17465345600021465 0.4938935026868587 0.4938935026868587
0.17484206400013136 0.49682462139716654 0.5007327796775769
0.17503007999994225 0.5007327796775769 0.49193942354665365
0.17522187300028236 0.49877870053737183 0.49193942354665365
0.175409517999924 0.5007327796775769 0.4929164631167562
0.17559734800033766 0.5036638983878847 0.4948705422569615
0.17578586400031782 0.5056179775280898 0.4938935026868587
0.17597430500018163 0.5007327796775769 0.4929164631167562
0.1761702650001098 0.5026868588177822 0.4929164631167562
0.17635959500012177 0.5007327796775769 0.49193942354665365
0.17658546200027558 0.5007327796775769 0.4948705422569615
0.17680606900012208 0.5095261358085001 0.4929164631167562
0.17699365900034536 0.5036638983878847 0.4948705422569615
0.17718128600017735 0.5026868588177822 0.49975574010747437
0.17736980100016808 0.5046409379579873 0.4929164631167562
0.1775571680000212 0.5017098192476794 0.4938935026868587
0.17774423900027614 0.5046409379579873 0.4929164631167562
0.17793401400012954 0.5046409379579873 0.4948705422569615
0.17812210400006734 0.5026868588177822 0.49682462139716654
0.1783099150002272 0.5046409379579873 0.49682462139716654
0.17849785699991116 0.5085490962383976 0.4909623839765511
0.1786854649999441 0.5017098192476794 0.4929164631167562
0.17887340600009338 0.5017098192476794 0.4929164631167562
0.1790609399999994 0.5017098192476794 0.5017098192476794
0.17924869600028615 0.5017098192476794 0.4938935026868587
0.17945482300001458 0.5026868588177822 0.49877870053737183
0.17964285700008986 0.5075720566682951 0.49975574010747437
0.1798303170003237 0.5026868588177822 0.49877870053737183
0.18001751700012392 0.5065950170981925 0.49682462139716654
0.18020460700017793 0.5007327796775769 0.49877870053737183
0.180393548000211 0.49877870053737183 0.495847581827064
0.18062847000010152 0.49975574010747437 0.4929164631167562
0.18081680100021913 0.49682462139716654 0.4948705422569615
0.18100502000015695 0.49877870053737183 0.495847581827064
0.18119260899993606 0.49682462139716654 0.4948705422569615
0.18138019900015934 0.4978016609672691 0.4938935026868587
0.18157158500025616 0.495847581827064 0.48998534440644836
0.18176326699995116 0.5026868588177822 0.495847581827064
0.18195063400025902 0.5007327796775769 0.49877870053737183
0.1821382790003554 0.495847581827064 0.4938935026868587
0.18232588699993357 0.4929164631167562 0.4929164631167562
0.18251323599997704 0.49193942354665365 0.4929164631167562
0.18270117700012634 0.4929164631167562 0.495847581827064
0.18288898900027561 0.4938935026868587 0.4929164631167562
0.1830764490000547 0.49975574010747437 0.4978016609672691
0.1832652420002887 0.495847581827064 0.49193942354665365
0.1834529239999938 0.495847581827064 0.4938935026868587
0.18364086600013252 0.4929164631167562 0.4948705422569615
0.183828566000102 0.4948705422569615 0.495847581827064
0.18401561900009256 0.4938935026868587 0.49193942354665365
0.184203504999914 0.4909623839765511 0.4948705422569615
0.18439103900027476 0.4909623839765511 0.49682462139716654
0.18458868400011852 0.49682462139716654 0.5017098192476794
0.18477692100032073 0.4938935026868587 0.49877870053737183
0.18496495499994126 0.49193942354665365 0.49682462139716654
0.18515269299996362 0.4948705422569615 0.5056179775280898
0.18534032000025036 0.4909623839765511 0.5017098192476794
0.1855277049999131 0.48900830483634583 0.5007327796775769
0.18572225800016895 0.4909623839765511 0.49877870053737183
0.18591255100000126 0.486077186126038 0.49877870053737183
0.18609956599993893 0.4880312652662433 0.5017098192476794
0.18628773000000365 0.4851001465559355 0.49877870053737183
0.18648044900010063 0.48412310698583294 0.49682462139716654
0.18668477900018843 0.4909623839765511 0.49682462139716654
0.18689057200026582 0.48900830483634583 0.5036638983878847
0.18709553200005757 0.4811919882755251 0.49682462139716654
0.1872962320003353 0.4851001465559355 0.49877870053737183
0.18749498800025322 0.48412310698583294 0.4938935026868587
0.18769435500007603 0.486077186126038 0.48998534440644836
0.18789524100020571 0.4880312652662433 0.495847581827064
0.1881142560000626 0.4851001465559355 0.5017098192476794
0.18833653000001505 0.4851001465559355 0.495847581827064
0.18855958199992529 0.4831460674157304 0.495847581827064
0.188785523000206 0.486077186126038 0.49682462139716654
0.18900509300010526 0.4880312652662433 0.4948705422569615
0.18920083100010743 0.4880312652662433 0.4978016609672691
0.18938918000003468 0.4880312652662433 0.4978016609672691
0.1895765660001416 0.486077186126038 0.5026868588177822
0.189764211000238 0.4880312652662433 0.4938935026868587
0.18995230000018637 0.486077186126038 0.4938935026868587
0.19013927900005 0.4880312652662433 0.4948705422569615
0.19036764500015124 0.48900830483634583 0.49193942354665365
0.19056190100036474 0.486077186126038 0.4909623839765511
0.19074893500010148 0.48705422569614076 0.4909623839765511
0.1909364140001344 0.48900830483634583 0.49193942354665365
0.19112359600012496 0.4880312652662433 0.48998534440644836
0.19131033400026354 0.48998534440644836 0.48998534440644836
0.19149949700022262 0.486077186126038 0.48900830483634583
0.1916866609999488 0.4909623839765511 0.4909623839765511
0.1918739360003201 0.4880312652662433 0.49193942354665365
0.19206104400018376 0.48900830483634583 0.4948705422569615
0.19224863299996287 0.4880312652662433 0.48998534440644836
0.19243574100028127 0.486077186126038 0.4948705422569615
0.19262981200017748 0.4929164631167562 0.4909623839765511
0.19281766099993547 0.4938935026868587 0.49193942354665365
0.19300525000016933 0.48998534440644836 0.48998534440644836
0.19319137699994826 0.4948705422569615 0.49193942354665365
0.19337802200016085 0.48998534440644836 0.4929164631167562
0.19356501900028888 0.4929164631167562 0.48900830483634583
0.19375227499995162 0.49193942354665365 0.4909623839765511
0.1939391800001431 0.4929164631167562 0.48900830483634583
0.19412645400007023 0.4948705422569615 0.49193942354665365
0.1943134140001348 0.495847581827064 0.486077186126038
0.19450041100026283 0.4929164631167562 0.4880312652662433
0.19468705600002068 0.4938935026868587 0.48705422569614076
0.19487435000019104 0.4929164631167562 0.48900830483634583
0.19506356900001265 0.4929164631167562 0.4909623839765511
0.19525091800005612 0.4948705422569615 0.48900830483634583
0.19543784100005723 0.4948705422569615 0.49193942354665365
0.19562481899993145 0.49682462139716654 0.4929164631167562
0.19581170500032385 0.49682462139716654 0.4929164631167562
0.19600373899993428 0.49877870053737183 0.4948705422569615
0.19619306899994626 0.5026868588177822 0.49682462139716654
0.19638056600024356 0.5026868588177822 0.4938935026868587
0.19658909999998286 0.49975574010747437 0.49682462139716654
0.19677705999993123 0.4978016609672691 0.4948705422569615
0.19698268599995572 0.49877870053737183 0.495847581827064
0.19716975700021067 0.5017098192476794 0.495847581827064
0.19735740200030705 0.5026868588177822 0.4978016609672691
0.19754530599993814 0.5056179775280898 0.49682462139716654
0.19773291399997106 0.4978016609672691 0.4929164631167562
0.1979197630003 0.5007327796775769 0.49877870053737183
0.19810766799992052 0.49877870053737183 0.5017098192476794
0.1982959980000487 0.4978016609672691 0.4938935026868587
0.19848947600030442 0.5017098192476794 0.4938935026868587
0.19868460299994695 0.5075720566682951 0.4948705422569615
0.19887965499992788 0.49975574010747437 0.4929164631167562
0.19907750400034274 0.5017098192476794 0.4948705422569615
0.19926877800025977 0.5007327796775769 0.495847581827064
0.19947008999997706 0.49877870053737183 0.5007327796775769
0.19966912400013825 0.5007327796775769 0.49682462139716654
0.19987304599999334 0.4978016609672691 0.495847581827064
0.20010022800033767 0.49682462139716654 0.5036638983878847
0.2003655010003058 0.49682462139716654 0.5065950170981925
0.20070295899995472 0.5026868588177822 0.49877870053737183
0.20095015800006877 0.5017098192476794 0.5085490962383976
0.20118661700007578 0.49877870053737183 0.49975574010747437
0.20139254000014262 0.4978016609672691 0.5017098192476794
0.20159159200011345 0.4978016609672691 0.5026868588177822
0.20185730999992302 0.4938935026868587 0.4978016609672691
0.20221413800027221 0.4938935026868587 0.49877870053737183
0.20247350399995412 0.4938935026868587 0.49682462139716654
0.20271396299995104 0.4929164631167562 0.495847581827064
0.20294529300008435 0.4938935026868587 0.4938935026868587
0.20321082500004195 0.4909623839765511 0.5017098192476794
0.20351761700021598 0.5007327796775769 0.49193942354665365
0.20381777800002965 0.49193942354665365 0.4909623839765511
0.2043401589999121 0.48900830483634583 0.4938935026868587
0.2047034310003255 0.48900830483634583 0.48998534440644836
0.20493601900034264 0.4909623839765511 0.4929164631167562
0.205153146000157 0.48900830483634583 0.4929164631167562
0.20535775300004389 0.486077186126038 0.48998534440644836
0.20556473100032235 0.48998534440644836 0.48900830483634583
0.20577883900023153 0.48998534440644836 0.4948705422569615
0.20599405800021486 0.48705422569614076 0.4938935026868587
0.20622292400003062 0.48705422569614076 0.4978016609672691
0.20644482800025798 0.4851001465559355 0.495847581827064
0.20667382400006318 0.4880312652662433 0.495847581827064
0.20692793100033668 0.48998534440644836 0.4948705422569615
0.20712563200004297 0.4909623839765511 0.4929164631167562
0.20732414700023583 0.49877870053737183 0.4978016609672691
0.2075313290001759 0.4880312652662433 0.5007327796775769
0.20775399200010725 0.486077186126038 0.5017098192476794
0.2080260430002454 0.4831460674157304 0.4929164631167562
0.20823318800012203 0.48412310698583294 0.49682462139716654
0.208430276999934 0.4851001465559355 0.4978016609672691
0.20863925499998004 0.48412310698583294 0.4938935026868587
0.2088378820003527 0.48705422569614076 0.49877870053737183
0.20903104500030167 0.4851001465559355 0.49975574010747437
0.20921830199995384 0.4851001465559355 0.4909623839765511
0.2094055020002088 0.48412310698583294 0.4929164631167562
0.20959514700007276 0.48705422569614076 0.49193942354665365
0.20978275500010568 0.48900830483634583 0.49193942354665365
0.20997004900027605 0.48705422569614076 0.49682462139716654
0.21015771200018207 0.48900830483634583 0.4909623839765511
0.21034513500035246 0.48900830483634583 0.4909623839765511
0.21053242800007865 0.48705422569614076 0.48998534440644836
0.21072024000022793 0.4909623839765511 0.4909623839765511
0.21090834799997538 0.4880312652662433 0.4938935026868587
0.21109586400007174 0.48705422569614076 0.4938935026868587
0.21128471200017884 0.48998534440644836 0.49193942354665365
0.21147204299995792 0.48998534440644836 0.4938935026868587
0.21165889200028687 0.49193942354665365 0.5007327796775769
0.21184638900012942 0.4978016609672691 0.48998534440644836
0.21203381100031038 0.4880312652662433 0.495847581827064
0.21222214199997325 0.49193942354665365 0.49193942354665365
0.2124101019999216 0.4909623839765511 0.495847581827064
0.21262787600016964 0.4948705422569615 0.49682462139716654
0.21281546499994874 0.48900830483634583 0.48900830483634583
0.2130029810000451 0.48998534440644836 0.48998534440644836
0.2131906260001415 0.4938935026868587 0.495847581827064
0.21337797500018496 0.5007327796775769 0.48998534440644836
0.2135661750003237 0.5007327796775769 0.48900830483634583
0.21375369099996533 0.4938935026868587 0.48998534440644836
0.2139408729999559 0.4948705422569615 0.49193942354665365
0.21412753699996756 0.49682462139716654 0.486077186126038
0.2143144219999158 0.4978016609672691 0.4880312652662433
0.21450117900030818 0.4948705422569615 0.48998534440644836
0.2146881020003093 0.49877870053737183 0.49193942354665365
0.2148863209999945 0.4948705422569615 0.486077186126038
0.21507598400012284 0.49877870053737183 0.495847581827064
0.21528733300010572 0.5026868588177822 0.49193942354665365
0.21547499600001174 0.5036638983878847 0.48998534440644836
0.21567225200033135 0.5017098192476794 0.4978016609672691
0.21588023000003886 0.5026868588177822 0.4938935026868587
0.21606839400010358 0.4978016609672691 0.4909623839765511
0.21625703900008375 0.5017098192476794 0.49193942354665365
0.21644440599993686 0.49682462139716654 0.48998534440644836
0.21663445900003353 0.5065950170981925 0.4948705422569615
0.21682201100020393 0.5056179775280898 0.49682462139716654
0.217009341999983 0.49975574010747437 0.4929164631167562
0.2171998200001326 0.49682462139716654 0.4909623839765511
0.2173950760002299 0.49975574010747437 0.48900830483634583
0.21760511000002225 0.49877870053737183 0.49193942354665365
0.2178057180003634 0.4978016609672691 0.49193942354665365
0.21800284400023884 0.5036638983878847 0.4938935026868587
0.21820184100033657 0.5036638983878847 0.49682462139716654
0.21839661500007423 0.5026868588177822 0.4938935026868587
0.21858346399994844 0.5007327796775769 0.4948705422569615
0.21877133099997081 0.5007327796775769 0.495847581827064
0.21895923600004608 0.49975574010747437 0.4938935026868587
0.219146622000153 0.49877870053737183 0.495847581827064
0.2193347850002283 0.5017098192476794 0.4948705422569615
0.21952261600017664 0.5046409379579873 0.4948705422569615
0.2197098530000403 0.5007327796775769 0.5036638983878847
0.21989731300027415 0.5056179775280898 0.49682462139716654
0.22008479200030706 0.5007327796775769 0.49682462139716654
0.22027521400013939 0.49975574010747437 0.495847581827064
0.2204972849999649 0.49682462139716654 0.4938935026868587
0.22069072600015716 0.49877870053737183 0.4978016609672691
0.22087918600027479 0.49975574010747437 0.49682462139716654
0.2210671830002866 0.49682462139716654 0.49682462139716654
0.22125468000012916 0.49682462139716654 0.5026868588177822
0.22144241800015152 0.49975574010747437 0.5017098192476794
0.22163352600000508 0.5017098192476794 0.5065950170981925
0.2218217449999429 0.49975574010747437 0.5036638983878847
0.22200889000032475 0.4938935026868587 0.5056179775280898
0.22220384999991438 0.4978016609672691 0.5017098192476794
0.22239156900013768 0.4938935026868587 0.49975574010747437
0.22257899200030806 0.49682462139716654 0.5017098192476794
0.2227664330002881 0.49975574010747437 0.5046409379579873
0.22295463399996152 0.5007327796775769 0.5036638983878847
0.22314263099997333 0.4938935026868587 0.5046409379579873
0.2233305909999217 0.4929164631167562 0.4948705422569615
0.22354505000021163 0.495847581827064 0.4938935026868587
0.22373338000033982 0.48998534440644836 0.5026868588177822
0.2239207110001189 0.49193942354665365 0.5017098192476794
0.22410883700013073 0.49193942354665365 0.4978016609672691
0.22429727899998397 0.4909623839765511 0.5026868588177822
0.2244964980000077 0.48900830483634583 0.49975574010747437
0.22468495800012533 0.4948705422569615 0.5036638983878847
0.22487243600016882 0.495847581827064 0.5036638983878847
0.2250599140002123 0.4880312652662433 0.5046409379579873
0.22524711500000194 0.4851001465559355 0.49877870053737183
0.22543479700016178 0.4948705422569615 0.4978016609672691
0.2256234790002054 0.486077186126038 0.49682462139716654
0.22581045800006905 0.4831460674157304 0.49682462139716654
0.22599762100026055 0.4831460674157304 0.49877870053737183
0.22618515500016656 0.48412310698583294 0.5046409379579873
0.2263724300000831 0.4880312652662433 0.495847581827064
0.22655977900012658 0.4831460674157304 0.5026868588177822
0.22675103500023397 0.49193942354665365 0.5026868588177822
0.22693916200023523 0.4831460674157304 0.495847581827064
0.22712660300021525 0.48412310698583294 0.4938935026868587
0.22731367400001545 0.4811919882755251 0.495847581827064
0.22750168900029166 0.48216902784562765 0.4909623839765511
0.22770329700006187 0.4831460674157304 0.49682462139716654
0.2278915350002535 0.4851001465559355 0.4938935026868587
0.22808201299994835 0.4811919882755251 0.48900830483634583
0.22827886200002467 0.48705422569614076 0.49193942354665365
0.22850198800006183 0.4831460674157304 0.4929164631167562
0.2287078920003296 0.4851001465559355 0.4938935026868587
0.22889577800015104 0.48216902784562765 0.4929164631167562
0.22908410800027923 0.48412310698583294 0.4938935026868587
0.2292712900002698 0.4831460674157304 0.49682462139716654
0.2294586950001758 0.4880312652662433 0.495847581827064
0.22964741400028288 0.48900830483634583 0.49193942354665365
0.22983453999995618 0.4851001465559355 0.49193942354665365
0.23002133399995728 0.48998534440644836 0.5007327796775769
0.23020844200027568 0.48900830483634583 0.5007327796775769
0.2303954940002768 0.4938935026868587 0.49682462139716654
0.230582879999929 0.4929164631167562 0.49877870053737183
0.23077017300010993 0.4909623839765511 0.4948705422569615
0.2309571330001745 0.4909623839765511 0.49193942354665365
0.23114466700008052 0.4880312652662433 0.4938935026868587
0.23133351600017704 0.4880312652662433 0.49193942354665365
0.23153547600031743 0.48705422569614076 0.48998534440644836
0.23172639900030845 0.49193942354665365 0.48998534440644836
0.23192198800006736 0.48705422569614076 0.49877870053737183
0.23211361400035457 0.48998534440644836 0.4929164631167562
0.23232331500003056 0.48900830483634583 0.48900830483634583
0.2325320710001506 0.49682462139716654 0.4938935026868587
0.23272751200011044 0.48998534440644836 0.48998534440644836
0.23292645300034565 0.4948705422569615 0.48998534440644836
0.23312376500007304 0.48900830483634583 0.48998534440644836
0.2333210390002023 0.4948705422569615 0.49193942354665365
0.2335311280003225 0.49193942354665365 0.495847581827064
0.23377230999994936 0.495847581827064 0.495847581827064
0.234010360999946 0.4909623839765511 0.49975574010747437
0.2342343760001313 0.48998534440644836 0.4909623839765511
0.23445450200006235 0.49682462139716654 0.48998534440644836
0.23467583199999353 0.495847581827064 0.5026868588177822
0.23488469900030395 0.49682462139716654 0.4938935026868587
0.23508701100035978 0.49877870053737183 0.5017098192476794
0.2352822110001398 0.4978016609672691 0.4929164631167562
0.2354796150002585 0.49877870053737183 0.4938935026868587
0.23569850100011536 0.49877870053737183 0.4909623839765511
0.2359266450002906 0.49682462139716654 0.495847581827064
0.23614336400032698 0.5017098192476794 0.4929164631167562
0.23636884200004715 0.5046409379579873 0.495847581827064
0.23664687400014373 0.5017098192476794 0.48900830483634583
0.23692857300011383 0.5056179775280898 0.4929164631167562
0.23716364300025816 0.49975574010747437 0.48900830483634583
0.23744606500031296 0.5007327796775769 0.4938935026868587
0.2377171719999751 0.5046409379579873 0.4929164631167562
0.2379308160002438 0.49975574010747437 0.4938935026868587
0.23812120200000209 0.5056179775280898 0.495847581827064
0.23830914300015138 0.5046409379579873 0.49682462139716654
0.23849678800024776 0.5095261358085001 0.4929164631167562
0.23868489699998463 0.5056179775280898 0.4948705422569615
0.23887241200009157 0.5046409379579873 0.49682462139716654
0.23905996400026197 0.5017098192476794 0.4929164631167562
0.23924734999991415 0.5036638983878847 0.49682462139716654
0.23943455100015854 0.5026868588177822 0.4929164631167562
0.23962197400032892 0.5007327796775769 0.49682462139716654
0.23981093400016107 0.5065950170981925 0.49682462139716654
0.23999857900025745 0.5095261358085001 0.495847581827064
0.2401857419999942 0.5017098192476794 0.4978016609672691
0.24053395900000396 0.49877870053737183 0.49877870053737183
0.240731567000239 0.49975574010747437 0.495847581827064
0.24092965599993477 0.49877870053737183 0.49682462139716654
0.24111791299992547 0.5017098192476794 0.4978016609672691
0.2413055209999584 0.49975574010747437 0.495847581827064
0.2414929060000759 0.49975574010747437 0.4948705422569615
0.24167997700033084 0.5007327796775769 0.4948705422569615
0.24186827099993025 0.49682462139716654 0.49682462139716654
0.2420555640001112 0.49682462139716654 0.495847581827064
0.24224346800019703 0.5036638983878847 0.4929164631167562
0.24243118699996558 0.49682462139716654 0.495847581827064
0.24262024000017846 0.495847581827064 0.495847581827064
0.242807958999947 0.4978016609672691 0.4978016609672691
0.24299536300031832 0.49877870053737183 0.49682462139716654
0.2431823599999916 0.49682462139716654 0.4929164631167562
0.2433700609999505 0.49682462139716654 0.4948705422569615
0.24355759500031127 0.495847581827064 0.4938935026868587
0.24376416600034645 0.4938935026868587 0.49682462139716654
0.24395325500017861 0.5026868588177822 0.5007327796775769
0.24414201100034916 0.5026868588177822 0.4929164631167562
0.24432913800001188 0.5036638983878847 0.49682462139716654
0.24451902400005565 0.49682462139716654 0.4948705422569615
0.2447094100002687 0.4948705422569615 0.4938935026868587
0.2448972400002276 0.4929164631167562 0.4948705422569615
0.24508458900027108 0.49193942354665365 0.4938935026868587
0.24527273400008198 0.48998534440644836 0.4929164631167562
0.245460175000062 0.4909623839765511 0.4929164631167562
0.2456486720002431 0.48900830483634583 0.4948705422569615
0.2458361320000222 0.4909623839765511 0.48998534440644836
0.24602420300016092 0.48900830483634583 0.4929164631167562
0.24621149600034187 0.4909623839765511 0.495847581827064
0.24639919700030077 0.48998534440644836 0.49193942354665365
0.24658695300013278 0.4909623839765511 0.495847581827064
0.2467744320001657 0.48900830483634583 0.4938935026868587
0.2469613550001668 0.49877870053737183 0.49877870053737183
0.24714872200001992 0.4948705422569615 0.5017098192476794
0.2473366630001692 0.48998534440644836 0.4938935026868587
0.24752384500015978 0.48900830483634583 0.4948705422569615
0.24771219400008704 0.4880312652662433 0.4948705422569615
0.24790132099997209 0.48705422569614076 0.4948705422569615
0.24808852100022705 0.48998534440644836 0.5017098192476794
0.2483010920000197 0.48998534440644836 0.5017098192476794
0.2485001260001809 0.4880312652662433 0.4938935026868587
0.24870049300034225 0.48412310698583294 0.4948705422569615
0.24888839699997334 0.4929164631167562 0.495847581827064
0.24907628300024953 0.48705422569614076 0.495847581827064
0.2492643170003248 0.48998534440644836 0.495847581827064
0.24945185100023082 0.4880312652662433 0.4978016609672691
0.24963912600014737 0.48998534440644836 0.5036638983878847
0.24982660400019086 0.4880312652662433 0.495847581827064
0.2500165830001606 0.4851001465559355 0.495847581827064
0.2502105789999405 0.48900830483634583 0.4948705422569615
0.25041665000026114 0.48216902784562765 0.4929164631167562
0.2506242760000532 0.48412310698583294 0.495847581827064
0.25083460600035323 0.4978016609672691 0.4948705422569615
0.2510275479999109 0.4880312652662433 0.4938935026868587
0.2512158409999756 0.48216902784562765 0.4938935026868587
0.25140335600008257 0.49193942354665365 0.4929164631167562
0.2516234270001405 0.4851001465559355 0.4938935026868587
0.2518127570001525 0.4831460674157304 0.5007327796775769
0.25200112400034413 0.486077186126038 0.4948705422569615
0.2521892510003454 0.48705422569614076 0.5026868588177822
0.25237611800002924 0.48998534440644836 0.49975574010747437
0.2526070779999827 0.4929164631167562 0.4948705422569615
0.2527948340002695 0.48998534440644836 0.4929164631167562
0.2529824420003024 0.4938935026868587 0.4929164631167562
0.2532051230000434 0.4909623839765511 0.4938935026868587
0.25339586100017186 0.4880312652662433 0.49682462139716654
0.2535838580001837 0.4978016609672691 0.49682462139716654
0.25377303999994183 0.4938935026868587 0.4938935026868587
0.25396081500002765 0.49193942354665365 0.4948705422569615
0.2541483859999971 0.4938935026868587 0.4929164631167562
0.2543359380001675 0.4948705422569615 0.4938935026868587
0.2545230460000312 0.5026868588177822 0.4938935026868587
0.25471039500007464 0.4938935026868587 0.49877870053737183
0.25489778100018157 0.49975574010747437 0.5007327796775769
0.25508485199998177 0.5007327796775769 0.4929164631167562
0.25527236800007813 0.49682462139716654 0.4938935026868587
0.2554597900002591 0.5007327796775769 0.49193942354665365
0.2556476390000171 0.49975574010747437 0.49193942354665365
0.2558348770003249 0.495847581827064 0.4929164631167562
0.25602268900001945 0.49877870053737183 0.4938935026868587
0.25620987100001 0.5007327796775769 0.5007327796775769
0.2563972200000535 0.49682462139716654 0.49877870053737183
0.25659956800018335 0.4978016609672691 0.4948705422569615
0.25678765800012116 0.5017098192476794 0.495847581827064
0.25698730300018724 0.49877870053737183 0.4929164631167562
0.2571748180002942 0.5007327796775769 0.5007327796775769
0.2573623339999358 0.5065950170981925 0.4948705422569615
0.2575495710002542 0.5065950170981925 0.495847581827064
0.2577370310000333 0.5036638983878847 0.48998534440644836
0.25795795300018654 0.5007327796775769 0.4938935026868587
0.25814935800008243 0.5017098192476794 0.4938935026868587
0.25833972500004165 0.5036638983878847 0.4909623839765511
0.25853018499992686 0.5065950170981925 0.5007327796775769
0.2587198860001081 0.5085490962383976 0.4978016609672691
0.25890869700015173 0.5046409379579873 0.495847581827064
0.2590973979999944 0.5036638983878847 0.4948705422569615
0.2592865609999535 0.5056179775280898 0.4948705422569615
0.2594757810002193 0.5017098192476794 0.4929164631167562
0.2596642410003369 0.49877870053737183 0.4938935026868587
0.25985236700034875 0.49877870053737183 0.495847581827064
0.2600423080002656 0.49682462139716654 0.495847581827064
0.2602307130000554 0.49975574010747437 0.4929164631167562
0.2604185800000778 0.4978016609672691 0.49682462139716654
0.2606087990002379 0.49682462139716654 0.495847581827064
0.26079690699998537 0.4978016609672691 0.4948705422569615
0.26098481200006063 0.49877870053737183 0.495847581827064
0.261172586000157 0.5017098192476794 0.49682462139716654
0.2613654540000425 0.49975574010747437 0.49877870053737183
0.26155552499994883 0.49682462139716654 0.4948705422569615
0.2617504840000038 0.5026868588177822 0.49877870053737183
0.26194699999996374 0.4948705422569615 0.49877870053737183
0.2621353480003563 0.5036638983878847 0.495847581827064
0.2623231970001143 0.49682462139716654 0.4929164631167562
0.2625619899999947 0.495847581827064 0.495847581827064
0.26275004200033436 0.4929164631167562 0.5026868588177822
0.2629373909999231 0.5007327796775769 0.5007327796775769
0.2631252770001993 0.5007327796775769 0.5026868588177822
0.2633131810002851 0.49682462139716654 0.49682462139716654
0.26350062300025456 0.4929164631167562 0.4978016609672691
0.26368802700017113 0.4909623839765511 0.49877870053737183
0.26387570900033097 0.49193942354665365 0.49877870053737183
0.26406496500021603 0.4909623839765511 0.4938935026868587
0.2642521470002066 0.48900830483634583 0.4948705422569615
0.26444012599995403 0.486077186126038 0.5017098192476794
0.26463428900024155 0.48998534440644836 0.49682462139716654
0.26482491600017966 0.4880312652662433 0.495847581827064
0.2650687640002616 0.4929164631167562 0.495847581827064
0.26526692700008425 0.48900830483634583 0.4978016609672691
0.2654825160002474 0.4948705422569615 0.49877870053737183
0.2656799020001017 0.4909623839765511 0.495847581827064
0.2658758620000299 0.4880312652662433 0.4978016609672691
0.2660765620003076 0.4880312652662433 0.4948705422569615
0.26627542899996115 0.48900830483634583 0.4938935026868587
0.26647692599999573 0.48705422569614076 0.4948705422569615
0.26667516399993474 0.48900830483634583 0.49682462139716654
0.2668764939999164 0.4880312652662433 0.4948705422569615
0.2670790090000992 0.48412310698583294 0.495847581827064
0.2672893940002723 0.486077186126038 0.4938935026868587
0.2675047060001816 0.48412310698583294 0.4978016609672691
0.26771914700020716 0.4811919882755251 0.4929164631167562
0.2679520690003301 0.4811919882755251 0.4929164631167562
0.2681929170003059 0.4880312652662433 0.5007327796775769
0.2684364680003455 0.4753297508549097 0.49193942354665365
0.26866655699996045 0.4811919882755251 0.4929164631167562
0.2689492560002691 0.4880312652662433 0.495847581827064
0.26915329000030397 0.486077186126038 0.4938935026868587
0.2693561200003387 0.4851001465559355 0.4929164631167562
0.2695565430003626 0.48705422569614076 0.4929164631167562
0.26975892800010115 0.486077186126038 0.4948705422569615
0.26997164700014764 0.48900830483634583 0.4938935026868587
0.27019040300001507 0.48998534440644836 0.4909623839765511
0.2704064920003475 0.48412310698583294 0.49193942354665365
0.270637932000227 0.4831460674157304 0.4929164631167562
0.2708585029999995 0.48900830483634583 0.4909623839765511
0.2710894440001539 0.4851001465559355 0.4929164631167562
0.27132862500002375 0.49682462139716654 0.4929164631167562
0.27155995400016764 0.48998534440644836 0.4978016609672691
0.27179206200025874 0.48900830483634583 0.4929164631167562
0.27201835400001073 0.4929164631167562 0.49193942354665365
0.2722199620002357 0.49877870053737183 0.4938935026868587
0.2724156439999206 0.49193942354665365 0.49682462139716654
0.2726140300001134 0.49193942354665365 0.49682462139716654
0.2728023790000407 0.4938935026868587 0.49193942354665365
0.27299231999995754 0.4948705422569615 0.4948705422569615
0.27317979899999045 0.49682462139716654 0.49975574010747437
0.2733674070000234 0.4978016609672691 0.4938935026868587
0.2735551440000563 0.495847581827064 0.495847581827064
0.27374319699993066 0.5026868588177822 0.4948705422569615
0.2739634340000521 0.4929164631167562 0.4929164631167562
0.27415137500020137 0.4938935026868587 0.4938935026868587
0.27433952000001227 0.5007327796775769 0.48998534440644836
0.27452716500010865 0.495847581827064 0.495847581827064
0.274714459000279 0.49682462139716654 0.4929164631167562
0.2749015300000792 0.49877870053737183 0.4948705422569615
0.2750888790001227 0.5007327796775769 0.5017098192476794
0.27527620899991234 0.49682462139716654 0.4929164631167562
0.27546348400028364 0.49877870053737183 0.4948705422569615
0.2756516100002955 0.5017098192476794 0.4938935026868587
0.2758397740003602 0.5056179775280898 0.4929164631167562
0.27602740000020276 0.5017098192476794 0.4938935026868587
0.2762149710001722 0.5017098192476794 0.4929164631167562
0.27640306100011003 0.5007327796775769 0.48998534440644836
0.2766432420003184 0.49975574010747437 0.4929164631167562
0.2768312580001293 0.49975574010747437 0.4929164631167562
0.27701962500032096 0.5036638983878847 0.48998534440644836
0.27720693700030097 0.5017098192476794 0.4880312652662433
0.27739424800029155 0.5007327796775769 0.4938935026868587
0.27758157900007063 0.49975574010747437 0.49682462139716654
0.2777689829999872 0.5046409379579873 0.5007327796775769
0.27795672100000957 0.5036638983878847 0.4929164631167562
0.27814551400024357 0.49975574010747437 0.49975574010747437
0.2783462520001194 0.5046409379579873 0.5007327796775769
0.27853447100005724 0.5007327796775769 0.495847581827064
0.27872291199992105 0.5007327796775769 0.4948705422569615
0.2789108160000069 0.49682462139716654 0.5007327796775769
0.2790979240003253 0.5075720566682951 0.5036638983878847
0.2792853290002313 0.49975574010747437 0.49975574010747437
0.27947245500035933 0.5017098192476794 0.49682462139716654
0.2796600820001913 0.49877870053737183 0.49877870053737183
0.27984767199995986 0.4978016609672691 0.49877870053737183
0.28003914999999324 0.4978016609672691 0.49682462139716654
0.28022653600010017 0.4948705422569615 0.49975574010747437
0.2804139029999533 0.4948705422569615 0.495847581827064
0.2806043810001029 0.49975574010747437 0.49682462139716654
0.2807919150000089 0.4978016609672691 0.49682462139716654
0.28097948599997835 0.4948705422569615 0.495847581827064
0.281167280000318 0.4948705422569615 0.4948705422569615
0.28135446200030856 0.4929164631167562 0.4948705422569615
0.2815558659999624 0.49682462139716654 0.4948705422569615
0.2817439740001646 0.4929164631167562 0.495847581827064
0.28193208199991204 0.4929164631167562 0.49877870053737183
0.2821280790003584 0.4978016609672691 0.4948705422569615
0.28231596500017986 0.4929164631167562 0.4948705422569615
0.2825041840001177 0.4978016609672691 0.49682462139716654
0.2826921070000026 0.49682462139716654 0.4978016609672691
0.28287936300012007 0.4978016609672691 0.5007327796775769
0.28306708200034336 0.49975574010747437 0.5007327796775769
0.28325509800015425 0.4948705422569615 0.4948705422569615
0.28345250200027294 0.48705422569614076 0.5056179775280898
0.2836557210002866 0.48998534440644836 0.4909623839765511
0.2838576250001097 0.49193942354665365 0.4948705422569615
0.2840665660000923 0.48998534440644836 0.495847581827064
0.2842599330001576 0.4929164631167562 0.495847581827064
0.2844972070001859 0.49877870053737183 0.4929164631167562
0.28469070400024066 0.4938935026868587 0.49877870053737183
0.2848783120002736 0.48900830483634583 0.4948705422569615
0.28506558700019013 0.4909623839765511 0.4938935026868587
0.28525410200018086 0.4851001465559355 0.495847581827064
0.2854428949999601 0.48900830483634583 0.4948705422569615
0.28563089199997194 0.4909623839765511 0.5017098192476794
0.2858186299999943 0.48998534440644836 0.4948705422569615
0.28600562700012233 0.4929164631167562 0.4929164631167562
0.28619267900012346 0.48216902784562765 0.4948705422569615
0.28638239900010376 0.4831460674157304 0.4948705422569615
0.2865715249999994 0.4851001465559355 0.4948705422569615
0.28675928100028614 0.48412310698583294 0.4978016609672691
0.28694727800029796 0.48705422569614076 0.4929164631167562
0.28713490500012995 0.4880312652662433 0.5007327796775769
0.28732323500025814 0.4909623839765511 0.49682462139716654
0.28751145400019595 0.48998534440644836 0.4929164631167562
0.2877012849999119 0.48412310698583294 0.4978016609672691
0.2878913930003364 0.4851001465559355 0.495847581827064
0.28807900099991457 0.48412310698583294 0.4909623839765511
0.28826625700003206 0.4802149487054226 0.49193942354665365
0.28845388300032937 0.4811919882755251 0.49193942354665365
0.2886664170000586 0.48998534440644836 0.49193942354665365
0.2888535070001126 0.48412310698583294 0.49193942354665365
0.2890416700001879 0.48412310698583294 0.4909623839765511
0.2892291490002208 0.4851001465559355 0.48998534440644836
0.289416127000095 0.4851001465559355 0.48998534440644836
0.2896047350000117 0.4851001465559355 0.495847581827064
0.2897913250003512 0.48998534440644836 0.4929164631167562
0.28998017300000356 0.48900830483634583 0.4909623839765511
0.2901677260001634 0.4851001465559355 0.495847581827064
0.290400462999969 0.48705422569614076 0.4909623839765511
0.2905962930003625 0.48998534440644836 0.4909623839765511
0.29078371600007813 0.4851001465559355 0.49682462139716654
0.29097002800017435 0.4880312652662433 0.49682462139716654
0.2911569689999851 0.4880312652662433 0.4948705422569615
0.291344669999944 0.48900830483634583 0.4929164631167562
0.2915311480001037 0.4880312652662433 0.4909623839765511
0.29171860800033755 0.4880312652662433 0.48900830483634583
0.2919064200000321 0.48705422569614076 0.4978016609672691
0.29209313899991685 0.48900830483634583 0.49193942354665365
0.29228091400000267 0.4978016609672691 0.4909623839765511
0.2924683740002365 0.49193942354665365 0.48998534440644836
0.29267035200018654 0.48998534440644836 0.48900830483634583
0.29285703400000784 0.48900830483634583 0.4880312652662433
0.29304419800018877 0.4978016609672691 0.48900830483634583
0.29323138000017934 0.49193942354665365 0.48705422569614076
0.2934180430002016 0.49193942354665365 0.48998534440644836
0.29360500300026615 0.4929164631167562 0.48900830483634583
0.2937918890002038 0.4909623839765511 0.4948705422569615
0.29400614499991207 0.49193942354665365 0.48900830483634583
0.294193752999945 0.4929164631167562 0.48900830483634583
0.294381064999925 0.4929164631167562 0.48998534440644836
0.29456784000012703 0.4909623839765511 0.48705422569614076
0.2947564850001072 0.4909623839765511 0.4880312652662433
0.29494359299997086 0.4938935026868587 0.486077186126038
0.29513029300005655 0.49682462139716654 0.48705422569614076
0.2953172530001211 0.5036638983878847 0.4831460674157304
0.29551302800018675 0.5026868588177822 0.486077186126038
0.2957169320002322 0.5065950170981925 0.48900830483634583
0.2959102439999697 0.4948705422569615 0.4880312652662433
0.2960993149999922 0.5017098192476794 0.486077186126038
0.2962860340003317 0.5017098192476794 0.48705422569614076
0.29649438200021905 0.5085490962383976 0.495847581827064
0.2966855640001995 0.5056179775280898 0.4909623839765511
0.29687530199998946 0.5017098192476794 0.48900830483634583
0.2970635209999273 0.5026868588177822 0.48998534440644836
0.2972508140001082 0.5017098192476794 0.48705422569614076
0.29743812600008823 0.5007327796775769 0.4851001465559355
0.29762658600020586 0.5007327796775769 0.4909623839765511
0.29781393500024933 0.5017098192476794 0.48998534440644836
0.2980013390001659 0.5007327796775769 0.48998534440644836
0.29818922499998735 0.5007327796775769 0.4851001465559355
0.2983987220000017 0.5036638983878847 0.48998534440644836
0.298628995999934 0.49975574010747437 0.48705422569614076
0.2988255850000314 0.5007327796775769 0.4938935026868587
0.2990205630003402 0.49877870053737183 0.4978016609672691
0.29921554200018363 0.5007327796775769 0.4929164631167562
0.2994110570002704 0.5065950170981925 0.4938935026868587
0.29960679500027254 0.5007327796775769 0.49682462139716654
0.29980756900022243 0.5007327796775769 0.49193942354665365
0.3000037700003304 0.5105031753786029 0.4978016609672691
0.30019802600008916 0.5017098192476794 0.4929164631167562
0.300391670999943 0.5007327796775769 0.4948705422569615
0.30063598200013075 0.5007327796775769 0.4948705422569615
0.30085258899998735 0.49975574010747437 0.4938935026868587
0.30109782599993196 0.49682462139716654 0.49682462139716654
0.3013419890003206 0.5046409379579873 0.49682462139716654
0.30156711500012534 0.5007327796775769 0.5036638983878847
0.3017886850002469 0.49682462139716654 0.495847581827064
0.30200903300010395 0.49877870053737183 0.4948705422569615
0.3022351039999194 0.4929164631167562 0.49682462139716654
0.302457952000168 0.49682462139716654 0.4938935026868587
0.30267129999992903 0.4978016609672691 0.49877870053737183
0.3028806120000809 0.4938935026868587 0.49877870053737183
0.3030752750000829 0.49682462139716654 0.495847581827064
0.3033260860001974 0.495847581827064 0.49682462139716654
0.30351545300027283 0.495847581827064 0.4948705422569615
0.303704098000253 0.49193942354665365 0.4978016609672691
0.30389192900020134 0.495847581827064 0.4948705422569615
0.30407940700024483 0.4948705422569615 0.495847581827064
0.3042672930000663 0.4978016609672691 0.5017098192476794
0.3044542340003318 0.49193942354665365 0.49682462139716654
0.3046773599999142 0.4909623839765511 0.4929164631167562
0.30486450500029605 0.4880312652662433 0.4978016609672691
0.30505198400032896 0.4909623839765511 0.5017098192476794
0.3052506839999296 0.48998534440644836 0.4948705422569615
0.30545751399995424 0.49193942354665365 0.4909623839765511
0.30568771400021433 0.4880312652662433 0.4929164631167562
0.30592224800011536 0.48900830483634583 0.4929164631167562
0.30614867000031154 0.4851001465559355 0.4948705422569615
0.3063719619999574 0.4880312652662433 0.4948705422569615
0.30665047599995887 0.4831460674157304 0.4929164631167562
0.3069368790002045 0.48705422569614076 0.4948705422569615
0.3071796900003392 0.486077186126038 0.4938935026868587
0.30741446399997585 0.48705422569614076 0.4909623839765511
0.3076566820000153 0.4938935026868587 0.4938935026868587
0.30789541900003314 0.48998534440644836 0.4929164631167562
0.30809304600006726 0.48998534440644836 0.4938935026868587
0.3082817090003118 0.4929164631167562 0.48998534440644836
0.308500186999936 0.4880312652662433 0.49682462139716654
0.30869370200025514 0.4880312652662433 0.49682462139716654
0.30888440300032016 0.495847581827064 0.5007327796775769
0.3090726039999936 0.48900830483634583 0.49193942354665365
0.3092603230002169 0.4851001465559355 0.4938935026868587
0.30944880100014416 0.48998534440644836 0.49193942354665365
0.30963694599995506 0.48998534440644836 0.4929164631167562
0.30982499900028415 0.4851001465559355 0.4948705422569615
0.31001229200001035 0.4831460674157304 0.4948705422569615
0.31020028900002217 0.49193942354665365 0.4929164631167562
0.3103882310001609 0.4851001465559355 0.49193942354665365
0.3105762830000458 0.4831460674157304 0.4909623839765511
0.3107628540001315 0.48900830483634583 0.4929164631167562
0.31095011000024897 0.48705422569614076 0.49193942354665365
0.3111367000001337 0.4909623839765511 0.4909623839765511
0.3113236600001983 0.48412310698583294 0.48900830483634583
0.3115148790002422 0.4880312652662433 0.486077186126038
0.3117024680000213 0.4880312652662433 0.48900830483634583
0.3118898360003186 0.48998534440644836 0.48900830483634583
0.3120769619999919 0.4909623839765511 0.4880312652662433
0.31226373700019394 0.4909623839765511 0.4948705422569615
0.31245088200012106 0.49975574010747437 0.4948705422569615
0.31264067500023884 0.4909623839765511 0.49193942354665365
0.3128279500001554 0.48998534440644836 0.4938935026868587
0.3130226510002103 0.486077186126038 0.4880312652662433
0.3132115729999896 0.4929164631167562 0.4880312652662433
0.3133989040002234 0.4938935026868587 0.48998534440644836
0.3135864930000025 0.49682462139716654 0.49193942354665365
0.3137746940001307 0.49682462139716654 0.4938935026868587
0.3139621720001742 0.4948705422569615 0.48412310698583294
0.31414961400014363 0.4938935026868587 0.486077186126038
0.31433692600012364 0.4938935026868587 0.4851001465559355
0.31452431100024114 0.4948705422569615 0.48705422569614076
0.3147113640002317 0.49877870053737183 0.4909623839765511
0.3149019350003073 0.49975574010747437 0.49193942354665365
0.31509193200008667 0.5017098192476794 0.4831460674157304
0.3152789840000878 0.4978016609672691 0.48412310698583294
0.3154667030003111 0.49877870053737183 0.486077186126038
0.3156879220000519 0.49682462139716654 0.48705422569614076
0.315883419000329 0.495847581827064 0.4880312652662433
0.316095267000037 0.49877870053737183 0.48900830483634583
0.3162905980002506 0.49877870053737183 0.4880312652662433
0.31650002000014865 0.4978016609672691 0.4909623839765511
0.31668918400009716 0.5046409379579873 0.4938935026868587
0.3168787730000986 0.5065950170981925 0.49975574010747437
0.3170706590003647 0.5007327796775769 0.4929164631167562
0.3172704150001664 0.5017098192476794 0.4880312652662433
0.31747009700029594 0.5036638983878847 0.4948705422569615
0.31766990799997075 0.5007327796775769 0.4909623839765511
0.317864813000142 0.5036638983878847 0.4909623839765511
0.3180633840001974 0.5134342940889105 0.5026868588177822
0.3182552140001462 0.5075720566682951 0.49193942354665365
0.3184432289999677 0.5075720566682951 0.4948705422569615
0.3186307080000006 0.5046409379579873 0.49193942354665365
0.3188180930001181 0.5056179775280898 0.48705422569614076
0.3190060720003203 0.5026868588177822 0.4938935026868587
0.3191937910000888 0.5046409379579873 0.4909623839765511
0.31938095500026975 0.5056179775280898 0.4948705422569615
0.31957039600001735 0.49975574010747437 0.4948705422569615
0.31975848599995516 0.5036638983878847 0.495847581827064
0.3199474640000517 0.5036638983878847 0.49193942354665365
0.3201362570002857 0.5026868588177822 0.4929164631167562
0.32032443900016006 0.49682462139716654 0.49193942354665365
0.3205278430000362 0.5007327796775769 0.49682462139716654
0.3207192849999956 0.49877870053737183 0.4948705422569615
0.32094631800009665 0.5036638983878847 0.4938935026868587
0.3211370930002886 0.5007327796775769 0.4929164631167562
0.32132481200005714 0.49877870053737183 0.495847581827064
0.32151214200030154 0.49975574010747437 0.4938935026868587
0.32170004699992205 0.5007327796775769 0.4948705422569615
0.3218878770003357 0.49877870053737183 0.49975574010747437
0.32207524400018883 0.5017098192476794 0.5007327796775769
0.32226324100020065 0.5056179775280898 0.4929164631167562
0.32245077500010666 0.495847581827064 0.49975574010747437
0.32263808700008667 0.4978016609672691 0.49975574010747437
0.3228254539999398 0.49975574010747437 0.49877870053737183
0.32301326600008906 0.4938935026868587 0.5046409379579873
0.323200874000122 0.5007327796775769 0.49877870053737183
0.32338814900003854 0.49877870053737183 0.49975574010747437
0.32357603500031473 0.4978016609672691 0.4948705422569615
0.3237641059999987 0.495847581827064 0.49975574010747437
0.3239826210001411 0.49682462139716654 0.49877870053737183
0.324192524999944 0.495847581827064 0.49877870053737183
0.3243811510001251 0.4929164631167562 0.49877870053737183
0.32458707400019193 0.4938935026868587 0.4948705422569615
0.32477505199994994 0.49975574010747437 0.5007327796775769
0.3249634190001416 0.495847581827064 0.4948705422569615
0.32515084200031197 0.4909623839765511 0.49682462139716654
0.3253383579999536 0.4909623839765511 0.4978016609672691
0.3255259659999865 0.4909623839765511 0.4938935026868587
0.325713000000178 0.48998534440644836 0.49877870053737183
0.32590020099996764 0.495847581827064 0.4948705422569615
0.32608742000002167 0.4851001465559355 0.4929164631167562
0.3262740280001708 0.48900830483634583 0.4938935026868587
0.32646124700022483 0.4851001465559355 0.49877870053737183
0.32664831800002503 0.4880312652662433 0.49193942354665365
0.3268356850003329 0.48705422569614076 0.4929164631167562
0.3270228119999956 0.48900830483634583 0.4978016609672691
0.3272097530002611 0.48900830483634583 0.4938935026868587
0.327397232000294 0.48900830483634583 0.4948705422569615
0.3275848030002635 0.48705422569614076 0.4929164631167562
0.3277715409999473 0.4909623839765511 0.4929164631167562
0.32795944500003316 0.4929164631167562 0.49975574010747437
0.32815416400035247 0.49193942354665365 0.495847581827064
0.3283416050003325 0.4880312652662433 0.4938935026868587
0.3285300649999954 0.486077186126038 0.4948705422569615
0.32871911800020825 0.48216902784562765 0.4978016609672691
0.3289193370001158 0.4831460674157304 0.4938935026868587
0.3291201480001291 0.4880312652662433 0.4909623839765511
0.32930858999998236 0.48705422569614076 0.48900830483634583
0.3294969379999202 0.4831460674157304 0.49193942354665365
0.3296848800000589 0.4851001465559355 0.49193942354665365
0.32987234000029275 0.486077186126038 0.48998534440644836
0.33005963300001895 0.4831460674157304 0.49193942354665365
0.33024824099993566 0.486077186126038 0.4909623839765511
0.3304356270000426 0.4851001465559355 0.4929164631167562
0.3306302900000446 0.4929164631167562 0.4929164631167562
0.330817806000141 0.486077186126038 0.4909623839765511
0.3310048580001421 0.4880312652662433 0.48998534440644836
0.33119270700035486 0.48705422569614076 0.4851001465559355
0.33138026000005993 0.4880312652662433 0.48900830483634583
0.33156979400018827 0.4880312652662433 0.4929164631167562
0.3317587720002848 0.48900830483634583 0.48998534440644836
0.33196143500026665 0.4909623839765511 0.49193942354665365
0.33214921000035247 0.4938935026868587 0.4909623839765511
0.3323365589999412 0.4938935026868587 0.4851001465559355
0.332526352000059 0.49193942354665365 0.48998534440644836
0.33271560799994404 0.49877870053737183 0.4851001465559355
0.3329053830002522 0.4978016609672691 0.49193942354665365
0.33309326900007363 0.5007327796775769 0.4880312652662433
0.3332808580003075 0.49682462139716654 0.4880312652662433
0.33346818900008657 0.495847581827064 0.49193942354665365
0.33365629700028876 0.5007327796775769 0.4938935026868587
0.33384368299994094 0.5017098192476794 0.49193942354665365
0.33403129099997386 0.4978016609672691 0.4880312652662433
0.334223213000314 0.49682462139716654 0.48900830483634583
0.33441278400005103 0.495847581827064 0.48900830483634583
0.33460104100004173 0.495847581827064 0.48998534440644836
0.3347883340002227 0.4938935026868587 0.48705422569614076
0.3350093490003019 0.4978016609672691 0.4880312652662433
0.33520219699994414 0.49682462139716654 0.4880312652662433
0.3353898240002309 0.49682462139716654 0.4929164631167562
0.3355779140001687 0.49975574010747437 0.49193942354665365
0.3357651330002227 0.4978016609672691 0.49193942354665365
0.33595268499993836 0.5056179775280898 0.4948705422569615
0.33614057100021455 0.5017098192476794 0.4909623839765511
0.3363279010000042 0.4978016609672691 0.4948705422569615
0.33651710200001617 0.49877870053737183 0.4929164631167562
0.33670535800001744 0.4978016609672691 0.4938935026868587
0.3368942810002409 0.49975574010747437 0.4909623839765511
0.3370810370001891 0.495847581827064 0.4938935026868587
0.33726786800025366 0.49877870053737183 0.4938935026868587
0.33745486499992694 0.49975574010747437 0.48900830483634583
0.33764158400026645 0.49975574010747437 0.4909623839765511
0.33782895100011956 0.5046409379579873 0.49193942354665365
0.3380161700001736 0.5026868588177822 0.5017098192476794
0.3382046300002912 0.49877870053737183 0.4938935026868587
0.3383921090003241 0.5036638983878847 0.4909623839765511
0.3385791059999974 0.5007327796775769 0.4938935026868587
0.3394704060001459 0.5026868588177822 0.4880312652662433
0.3396664770002644 0.4978016609672691 0.4938935026868587
0.3398570849999487 0.49975574010747437 0.4909623839765511
0.34004600800017215 0.5017098192476794 0.4909623839765511
0.3402348190002158 0.5017098192476794 0.495847581827064
0.3405244630002926 0.5007327796775769 0.49193942354665365
0.34074566300023434 0.5046409379579873 0.4938935026868587
0.34093658600022536 0.49682462139716654 0.4929164631167562
0.34112963799998397 0.4948705422569615 0.4938935026868587
0.3413180239999747 0.4978016609672691 0.49193942354665365
0.341505743000198 0.49877870053737183 0.49682462139716654
0.3416949070001465 0.49682462139716654 0.49682462139716654
0.34188225600018995 0.4948705422569615 0.495847581827064
0.34207029000026523 0.5046409379579873 0.4909623839765511
0.3422578419999809 0.4929164631167562 0.4929164631167562
0.3424448390001089 0.495847581827064 0.49877870053737183
0.3426329290000467 0.4948705422569615 0.5017098192476794
0.3428202960003546 0.49193942354665365 0.4929164631167562
0.34300770000027114 0.4948705422569615 0.4909623839765511
0.3431952529999762 0.4938935026868587 0.4978016609672691
0.3433826200002841 0.48998534440644836 0.4929164631167562
0.3435697100003381 0.4929164631167562 0.49975574010747437
0.3437569289999374 0.4938935026868587 0.49877870053737183
0.34394351800028744 0.4938935026868587 0.49682462139716654
0.34413044100028856 0.4909623839765511 0.4978016609672691
0.3443183829999725 0.4938935026868587 0.4938935026868587
0.3445073980001325 0.4938935026868587 0.4948705422569615
0.3446957280002607 0.48705422569614076 0.495847581827064
0.3448829849999129 0.4929164631167562 0.49682462139716654
0.34507057400014673 0.48705422569614076 0.495847581827064
0.345258608000222 0.49193942354665365 0.4938935026868587
0.34544695700014927 0.48998534440644836 0.49682462139716654
0.34563450900031967 0.48900830483634583 0.4948705422569615
0.34582206200002474 0.4880312652662433 0.49682462139716654
0.3460093000003326 0.4938935026868587 0.4948705422569615
0.34619685200004824 0.4851001465559355 0.4948705422569615
0.34638401600022917 0.4880312652662433 0.4929164631167562
0.34657110500029376 0.4938935026868587 0.4909623839765511
0.3467587130003267 0.4880312652662433 0.49877870053737183
0.34694672900013757 0.4948705422569615 0.49682462139716654
0.3471340589999272 0.4929164631167562 0.48998534440644836
0.3473220000000765 0.4880312652662433 0.48900830483634583
0.3475088489999507 0.48900830483634583 0.48705422569614076
0.34769584600007875 0.4880312652662433 0.4938935026868587
0.34788332500011165 0.48998534440644836 0.4909623839765511
0.3480703220002397 0.4909623839765511 0.4909623839765511
0.3482836140001382 0.4831460674157304 0.4929164631167562
0.3485051480001857 0.486077186126038 0.49975574010747437
0.34870553400014614 0.4929164631167562 0.49193942354665365
0.348924770999929 0.486077186126038 0.49193942354665365
0.3491221009999208 0.4851001465559355 0.4938935026868587
0.3493170609999652 0.4831460674157304 0.4929164631167562
0.3495106130003478 0.486077186126038 0.49193942354665365
0.3497104620000755 0.486077186126038 0.49193942354665365
0.3499124580002899 0.48900830483634583 0.4880312652662433
0.35010843700001715 0.4851001465559355 0.4909623839765511
0.3503022670001883 0.4929164631167562 0.4880312652662433
0.3505148190001819 0.49193942354665365 0.48998534440644836
0.3507144270001845 0.48216902784562765 0.48705422569614076
0.3509132940002928 0.47923790913532005 0.4909623839765511
0.35112197600028594 0.4909623839765511 0.48705422569614076
0.3513536020000174 0.4851001465559355 0.4938935026868587
0.3515997090003111 0.486077186126038 0.4948705422569615
0.35186085300028935 0.48705422569614076 0.4880312652662433
0.35217708800018954 0.48900830483634583 0.4851001465559355
0.3526340620001065 0.48998534440644836 0.48705422569614076
0.3529257800000778 0.4909623839765511 0.49682462139716654
0.3531532390002212 0.4909623839765511 0.4851001465559355
0.35336134699991817 0.48998534440644836 0.486077186126038
0.3535711770000489 0.495847581827064 0.4880312652662433
0.3537725070000306 0.4938935026868587 0.4938935026868587
0.35398933700025736 0.4909623839765511 0.48900830483634583
0.3542719990000478 0.4909623839765511 0.4948705422569615
0.35452453200014133 0.49193942354665365 0.486077186126038
0.3547820270000557 0.4929164631167562 0.4880312652662433
0.3550192830002743 0.49193942354665365 0.4909623839765511
0.3552639080003246 0.495847581827064 0.4880312652662433
0.3554902200003198 0.4880312652662433 0.4938935026868587
0.35574441900007514 0.4938935026868587 0.48998534440644836
0.3559619160000693 0.4978016609672691 0.4909623839765511
0.3561713200001577 0.5007327796775769 0.4880312652662433
0.35640253800011124 0.49975574010747437 0.4880312652662433
0.35670655200010515 0.4978016609672691 0.49193942354665365
0.35693421500036493 0.49682462139716654 0.48705422569614076
0.3571303779999653 0.5007327796775769 0.48998534440644836
0.3573191160003262 0.5017098192476794 0.5007327796775769
0.3575450190000993 0.5026868588177822 0.4909623839765511
0.3577337940000689 0.5036638983878847 0.4929164631167562
0.3579217360002076 0.5036638983878847 0.4938935026868587
0.3581098990002829 0.5017098192476794 0.49193942354665365
0.3583027479999146 0.5114802149487054 0.49193942354665365
0.35849124500009566 0.5085490962383976 0.49682462139716654
0.35871038899995256 0.5026868588177822 0.4929164631167562
0.35889788600024985 0.49877870053737183 0.4948705422569615
0.3590852540000924 0.5007327796775769 0.4929164631167562
0.35927654700026324 0.49975574010747437 0.4938935026868587
0.3594637290002538 0.5036638983878847 0.4938935026868587
0.3596508190003078 0.49975574010747437 0.4938935026868587
0.35983746400006567 0.5017098192476794 0.48998534440644836
0.3600241829999504 0.5007327796775769 0.4929164631167562
0.3602113090000785 0.5017098192476794 0.4938935026868587
0.36039841799993155 0.495847581827064 0.4938935026868587
0.36061611800005267 0.4978016609672691 0.4938935026868587
0.36082683600034215 0.49877870053737183 0.4978016609672691
0.3610150370000156 0.4948705422569615 0.4938935026868587
0.3612029410001014 0.4929164631167562 0.4948705422569615
0.36139162400013447 0.4929164631167562 0.4978016609672691
0.3615785090000827 0.4938935026868587 0.4909623839765511
0.3617657100003271 0.4978016609672691 0.49877870053737183
0.36195457700023326 0.4929164631167562 0.4929164631167562
0.3621418709999489 0.48705422569614076 0.4978016609672691
0.3623288860003413 0.4929164631167562 0.4948705422569615
0.36251636499991946 0.4978016609672691 0.49877870053737183
0.3627046760002486 0.4978016609672691 0.49877870053737183
0.3628928210000595 0.4978016609672691 0.49877870053737183
0.3630798369999866 0.4880312652662433 0.49975574010747437
0.36326740799995605 0.4929164631167562 0.4978016609672691
0.3634554420000313 0.4938935026868587 0.49193942354665365
0.363642327999969 0.4909623839765511 0.49682462139716654
0.3638294360002874 0.4909623839765511 0.49975574010747437
0.36401643299996067 0.4909623839765511 0.5007327796775769
0.3642040220001945 0.48705422569614076 0.49975574010747437
0.3643913160003649 0.49193942354665365 0.49975574010747437
0.36459210900011385 0.48900830483634583 0.49877870053737183
0.36477980900008333 0.4880312652662433 0.49682462139716654
0.3649787690001176 0.4880312652662433 0.4948705422569615
0.3651664700000765 0.4880312652662433 0.49682462139716654
0.3653532810003526 0.48998534440644836 0.4948705422569615
0.36554085200032205 0.48998534440644836 0.49682462139716654
0.3657280530001117 0.4851001465559355 0.4938935026868587
0.36591554999995424 0.48998534440644836 0.49193942354665365
0.36610351000035735 0.4909623839765511 0.49682462139716654
0.36629050700003063 0.48705422569614076 0.4929164631167562
0.3664777450003385 0.48998534440644836 0.49193942354665365
0.3666751490000024 0.4880312652662433 0.48998534440644836
0.3668669610001416 0.48998534440644836 0.49682462139716654
0.3670681240000704 0.48900830483634583 0.4938935026868587
0.36727113899996766 0.486077186126038 0.49975574010747437
0.36747793199992884 0.48216902784562765 0.4938935026868587
0.36767624399999477 0.4880312652662433 0.49682462139716654
0.3678741110002193 0.4948705422569615 0.49877870053737183
0.36806505200001993 0.486077186126038 0.4909623839765511
0.368253327000275 0.4851001465559355 0.4938935026868587
0.36844025000027614 0.4831460674157304 0.4938935026868587
0.36863217300015094 0.4851001465559355 0.4938935026868587
0.3688196510001944 0.4831460674157304 0.49682462139716654
0.36900922199993147 0.486077186126038 0.48900830483634583
0.3691967750000913 0.4851001465559355 0.4909623839765511
0.36938604900024075 0.48705422569614076 0.4938935026868587
0.3695731570001044 0.48412310698583294 0.4909623839765511
0.3697620990001269 0.48705422569614076 0.48998534440644836
0.3699511140002869 0.48900830483634583 0.4929164631167562
0.3701382960002775 0.4880312652662433 0.4909623839765511
0.3703263860002153 0.4851001465559355 0.4929164631167562
0.3705158460002167 0.48900830483634583 0.4909623839765511
0.37070769399997516 0.4948705422569615 0.4938935026868587
0.3708974690002833 0.48900830483634583 0.4929164631167562
0.3710847620000095 0.486077186126038 0.49193942354665365
0.3712725370000953 0.4851001465559355 0.48998534440644836
0.3714796630001729 0.4909623839765511 0.4978016609672691
0.3716730680002911 0.49193942354665365 0.49877870053737183
0.37186047200020766 0.4938935026868587 0.4929164631167562
0.37204832099996565 0.48998534440644836 0.4909623839765511
0.37223594700026297 0.48998534440644836 0.4929164631167562
0.37242329600030644 0.4851001465559355 0.4929164631167562
0.37261397800011764 0.48900830483634583 0.49682462139716654
0.37280067900019276 0.49193942354665365 0.495847581827064
0.3729878799999824 0.49193942354665365 0.4938935026868587
0.3731754320001528 0.4909623839765511 0.49193942354665365
0.3733632440003021 0.4909623839765511 0.49193942354665365
0.3735517410000284 0.48900830483634583 0.4880312652662433
0.3737396820001777 0.48998534440644836 0.4851001465559355
0.3739266980001048 0.4880312652662433 0.4938935026868587
0.37411369500023284 0.48705422569614076 0.4929164631167562
0.37430135800013886 0.4938935026868587 0.4948705422569615
0.3744892439999603 0.4978016609672691 0.4909623839765511
0.37469838900005925 0.4909623839765511 0.4929164631167562
0.3748861260000922 0.4978016609672691 0.49877870053737183
0.37507323499994527 0.4948705422569615 0.49193942354665365
0.375261435000084 0.5026868588177822 0.4978016609672691
0.375449190999916 0.5007327796775769 0.5017098192476794
0.37563665100014987 0.4978016609672691 0.4948705422569615
0.37582411099992896 0.49975574010747437 0.4929164631167562
0.3760116820003532 0.49877870053737183 0.4948705422569615
0.37619845700010046 0.4978016609672691 0.49682462139716654
0.37638547200003813 0.49877870053737183 0.48998534440644836
0.37659009900016827 0.5065950170981925 0.48998534440644836
0.37677700299991557 0.5017098192476794 0.49682462139716654
0.3769642219999696 0.49682462139716654 0.4909623839765511
0.37717934800002695 0.49975574010747437 0.4948705422569615
0.3773674750000282 0.5046409379579873 0.4880312652662433
0.37755471300033605 0.49877870053737183 0.4909623839765511
0.37774115399997754 0.5017098192476794 0.4909623839765511
0.3779302070001904 0.5007327796775769 0.48998534440644836
0.37811788900035026 0.5056179775280898 0.4909623839765511
0.3783068490001824 0.5026868588177822 0.4938935026868587
0.37849360500013063 0.49975574010747437 0.49193942354665365
0.3786811019999732 0.5026868588177822 0.4948705422569615
0.3788687280002705 0.5046409379579873 0.4929164631167562
0.37908737299994755 0.5036638983878847 0.495847581827064
0.3792882030002147 0.5026868588177822 0.4938935026868587
0.37947623700029 0.5036638983878847 0.4938935026868587
0.37966378999999506 0.5046409379579873 0.49193942354665365
0.379851305000102 0.5026868588177822 0.4938935026868587
0.3800381720002406 0.49975574010747437 0.4948705422569615
0.3802255580003475 0.5046409379579873 0.4929164631167562
0.38041292600019005 0.5017098192476794 0.49682462139716654
0.3806059040002765 0.5017098192476794 0.4909623839765511
0.3807935859999816 0.5026868588177822 0.4978016609672691
0.3809809720000885 0.5046409379579873 0.5036638983878847
0.38116843200032235 0.5026868588177822 0.5017098192476794
0.381355762000112 0.5065950170981925 0.49877870053737183
0.38154461100020853 0.5026868588177822 0.4948705422569615
0.38173351500017816 0.4978016609672691 0.5026868588177822
0.38192853000009563 0.4938935026868587 0.4978016609672691
0.38212123099992823 0.5017098192476794 0.4929164631167562
0.38231387600035305 0.4929164631167562 0.4978016609672691
0.3825076140001329 0.4978016609672691 0.5065950170981925
0.3827090180002415 0.49682462139716654 0.5007327796775769
0.3829297920001409 0.49682462139716654 0.49682462139716654
0.38312921500028096 0.4938935026868587 0.495847581827064
0.3833441189999576 0.4948705422569615 0.5026868588177822
0.38356631900023785 0.4929164631167562 0.5007327796775769
0.3838076669999282 0.4948705422569615 0.49975574010747437
0.3840400890003366 0.48705422569614076 0.5007327796775769
0.38425401099993906 0.4938935026868587 0.4948705422569615
0.3845574690003559 0.49877870053737183 0.4948705422569615
0.3847784839999804 0.49193942354665365 0.4948705422569615
0.3850421280003502 0.4880312652662433 0.5036638983878847
0.38524432800022623 0.48998534440644836 0.4929164631167562
0.3854595100001461 0.49682462139716654 0.49682462139716654
0.38568285800010926 0.48705422569614076 0.49975574010747437
0.3859213920000002 0.4831460674157304 0.49877870053737183
0.38615540599994347 0.48900830483634583 0.4978016609672691
0.3863598100001582 0.48705422569614076 0.49975574010747437
0.38657375100001445 0.4811919882755251 0.5056179775280898
0.3867906180003047 0.4831460674157304 0.5036638983878847
0.3870793539999795 0.4831460674157304 0.512457254518808
0.3873560350002663 0.47923790913532005 0.4978016609672691
0.38760249400002067 0.48705422569614076 0.49975574010747437
0.3878293420002592 0.47923790913532005 0.5095261358085001
0.38803802400025234 0.48412310698583294 0.4948705422569615
0.38824246500007575 0.48216902784562765 0.5026868588177822
0.3884367400000883 0.4831460674157304 0.49975574010747437
0.38868319800030804 0.4782608695652173 0.4929164631167562
0.38900126699991233 0.47923790913532005 0.4978016609672691
0.38924776300018493 0.486077186126038 0.49877870053737183
0.38945029700016676 0.4831460674157304 0.495847581827064
0.3896424610002214 0.48216902784562765 0.49682462139716654
0.3898342719999164 0.4851001465559355 0.495847581827064
0.3900223430000551 0.48998534440644836 0.5007327796775769
0.39021119200015164 0.4909623839765511 0.4938935026868587
0.3903986340001211 0.48998534440644836 0.4909623839765511
0.3905853159999424 0.48900830483634583 0.4948705422569615
0.39077246100032426 0.4880312652662433 0.4978016609672691
0.39095884700009265 0.4978016609672691 0.5017098192476794
0.3911460660001467 0.4938935026868587 0.5007327796775769
0.3913333780001267 0.48705422569614076 0.4938935026868587
0.3915210600002865 0.48998534440644836 0.4948705422569615
0.39170850100026655 0.4851001465559355 0.4978016609672691
0.39189579399999275 0.48900830483634583 0.4948705422569615
0.39208384700032184 0.4938935026868587 0.49877870053737183
0.39230075100022077 0.48998534440644836 0.49877870053737183
0.39251059900016116 0.48998534440644836 0.4929164631167562
0.3926984290001201 0.48900830483634583 0.495847581827064
0.3928855750000366 0.4909623839765511 0.4938935026868587
0.3930725350001012 0.4929164631167562 0.49682462139716654
0.39325936500017633 0.4929164631167562 0.4978016609672691
0.3934480650000296 0.4948705422569615 0.49975574010747437
0.3936364880000838 0.495847581827064 0.4929164631167562
0.39382389299998977 0.4938935026868587 0.49193942354665365
0.39401107499998034 0.4909623839765511 0.4938935026868587
0.3941983310000978 0.4948705422569615 0.495847581827064
0.39438540200035277 0.49682462139716654 0.495847581827064
0.39457206600036443 0.5007327796775769 0.4929164631167562
0.39475846999994246 0.495847581827064 0.495847581827064
0.3949454670000705 0.49975574010747437 0.4978016609672691
0.3951331860002938 0.5017098192476794 0.4948705422569615
0.395319813000242 0.5056179775280898 0.4948705422569615
0.3955072910002855 0.5026868588177822 0.4948705422569615
0.39569376999997985 0.5007327796775769 0.4938935026868587
0.3958807670001079 0.5056179775280898 0.4929164631167562
0.3960683190002783 0.5026868588177822 0.5017098192476794
0.39625729800036424 0.5046409379579873 0.4929164631167562
0.3964450170001328 0.49975574010747437 0.48900830483634583
0.3966359400001238 0.49877870053737183 0.49193942354665365
0.3968453990000853 0.5007327796775769 0.4929164631167562
0.3970341740000549 0.4978016609672691 0.4909623839765511
0.3972204300002886 0.49682462139716654 0.4938935026868587
0.3974071120001099 0.49975574010747437 0.4909623839765511
0.3975946830000794 0.5007327796775769 0.49975574010747437
0.397783143000197 0.5046409379579873 0.495847581827064
0.3979698250000183 0.49975574010747437 0.495847581827064
0.3981573959999878 0.4978016609672691 0.495847581827064
0.3983514120000109 0.49877870053737183 0.49975574010747437
0.3985389640001813 0.5046409379579873 0.49877870053737183
0.39872792400001345 0.49975574010747437 0.49877870053737183
0.3989191059999939 0.5007327796775769 0.5026868588177822
0.399109399000281 0.5007327796775769 0.495847581827064
0.3992990070000815 0.5017098192476794 0.495847581827064
0.3994862270001249 0.49975574010747437 0.49193942354665365
0.3996732979999251 0.495847581827064 0.5036638983878847
0.3998598870002752 0.5007327796775769 0.4978016609672691
0.4000482540000121 0.4948705422569615 0.49682462139716654
0.40026141800035475 0.5026868588177822 0.5017098192476794
0.40045093300022927 0.5026868588177822 0.4929164631167562
0.4006616700003178 0.49975574010747437 0.495847581827064
0.40086498200025744 0.4948705422569615 0.49975574010747437
0.4010699969999223 0.4909623839765511 0.5007327796775769
0.40126514200028396 0.49877870053737183 0.49877870053737183
0.4014621200003603 0.49682462139716654 0.49975574010747437
0.4016599880001195 0.495847581827064 0.5007327796775769
0.4018505770000047 0.4978016609672691 0.5007327796775769
0.4020384069999636 0.49877870053737183 0.5017098192476794
0.402225701000134 0.495847581827064 0.49975574010747437
0.4024127719999342 0.4929164631167562 0.5007327796775769
0.40259967600013624 0.4978016609672691 0.495847581827064
0.4027909510000427 0.5046409379579873 0.5046409379579873
0.4029835589999493 0.4929164631167562 0.49877870053737183
0.4031801109999833 0.4978016609672691 0.4938935026868587
0.40337029300008 0.4978016609672691 0.495847581827064
0.4035584010002822 0.4978016609672691 0.49193942354665365
0.4037458239999978 0.495847581827064 0.4978016609672691
0.40393382100000963 0.4978016609672691 0.495847581827064
0.40412152199996854 0.4929164631167562 0.4948705422569615
0.4043087039999591 0.4948705422569615 0.49682462139716654
0.4045200340001429 0.4929164631167562 0.49877870053737183
0.40472915999998804 0.48998534440644836 0.5026868588177822
0.40491649000023244 0.48998534440644836 0.4978016609672691
0.40510358000028646 0.48900830483634583 0.495847581827064
0.4052908170001501 0.486077186126038 0.4929164631167562
0.40547812900013014 0.48705422569614076 0.49682462139716654
0.40566575599996213 0.4851001465559355 0.4938935026868587
0.40585336399999505 0.486077186126038 0.4948705422569615
0.4060412870003347 0.48412310698583294 0.49682462139716654
0.4062288760001138 0.4831460674157304 0.4938935026868587
0.40641715099991416 0.4802149487054226 0.495847581827064
0.406604611000148 0.4811919882755251 0.4929164631167562
0.4067922190001809 0.48216902784562765 0.4938935026868587
0.4069792899999811 0.4831460674157304 0.4938935026868587
0.4071666390000246 0.486077186126038 0.49193942354665365
0.407353747000343 0.4831460674157304 0.4929164631167562
0.40754124400018554 0.48412310698583294 0.4909623839765511
0.40773255500016603 0.48216902784562765 0.4938935026868587
0.40792640400013624 0.486077186126038 0.4938935026868587
0.4081153270003597 0.4831460674157304 0.4929164631167562
0.40833263800004715 0.48900830483634583 0.495847581827064
0.40853581999999733 0.4851001465559355 0.49682462139716654
0.40872476200001984 0.48216902784562765 0.4909623839765511
0.4089127400002326 0.48216902784562765 0.4909623839765511
0.40910007000002224 0.4802149487054226 0.48998534440644836
0.40928710400021373 0.4811919882755251 0.4929164631167562
0.4094742860002043 0.48216902784562765 0.49877870053737183
0.40966156100012086 0.48900830483634583 0.4909623839765511
0.4098488540003018 0.4831460674157304 0.4909623839765511
0.4100368510003136 0.48412310698583294 0.4880312652662433
0.41022484800032544 0.486077186126038 0.4909623839765511
0.41041219699991416 0.47923790913532005 0.48998534440644836
0.4105991940000422 0.4851001465559355 0.4880312652662433
0.4107863020003606 0.486077186126038 0.48900830483634583
