0 0.4733756717147044 0.4880312652662433
0.00043465799990372034 0.4802149487054226 0.48216902784562765
0.0007087459998729173 0.4811919882755251 0.4851001465559355
0.0009765739996510092 0.4802149487054226 0.4880312652662433
0.0013346969999474823 0.48998534440644836 0.5017098192476794
0.001680078999925172 0.4782608695652173 0.5017098192476794
0.001992814000004728 0.4851001465559355 0.49975574010747437
0.00232675199958976 0.47923790913532005 0.5026868588177822
0.002590042999599973 0.47923790913532005 0.49877870053737183
0.0028632789999392116 0.4665363947239862 0.48900830483634583
0.0031193849999908707 0.46458231558378116 0.48412310698583294
0.003400268999939726 0.467513434294089 0.4909623839765511
0.0036731529999087797 0.4636052760136786 0.4938935026868587
0.0038907409998500952 0.4684904738641915 0.5017098192476794
0.00410201499971663 0.4733756717147044 0.495847581827064
0.004318862999753037 0.48412310698583294 0.4978016609672691
0.00452535899967188 0.4929164631167562 0.5046409379579873
0.004726724999727594 0.5007327796775769 0.49877870053737183
0.0049179439997715235 0.5085490962383976 0.49877870053737183
0.005107402999783517 0.5075720566682951 0.495847581827064
0.005359175999728905 0.5202735710796287 0.495847581827064
0.00554885799965632 0.512457254518808 0.4929164631167562
0.005737909999879776 0.5085490962383976 0.49193942354665365
0.005925665999711782 0.5017098192476794 0.4880312652662433
0.006113513999935094 0.49682462139716654 0.486077186126038
0.0063044549997357535 0.4851001465559355 0.48412310698583294
0.006495246999747906 0.4811919882755251 0.48216902784562765
0.006682502999865392 0.4733756717147044 0.47923790913532005
0.006922312999904534 0.4782608695652173 0.4811919882755251
0.007113716999811004 0.47728382999511476 0.4811919882755251
0.007307398999728321 0.47923790913532005 0.4811919882755251
0.0074956539997401705 0.48216902784562765 0.4802149487054226
0.0076822989999527636 0.4909623839765511 0.48705422569614076
0.007882183999754488 0.4938935026868587 0.48705422569614076
0.008087290999810648 0.5017098192476794 0.48998534440644836
0.008292509999591857 0.5056179775280898 0.48900830483634583
0.008485394999752316 0.5075720566682951 0.48900830483634583
0.008674446999975771 0.5114802149487054 0.4880312652662433
0.008865757999956259 0.512457254518808 0.48412310698583294
0.009054254999682598 0.5095261358085001 0.4851001465559355
0.009246102999895811 0.512457254518808 0.48900830483634583
0.009650668999711343 0.5026868588177822 0.486077186126038
0.00991010899997491 0.5007327796775769 0.49193942354665365
0.010117030999936105 0.49877870053737183 0.48705422569614076
0.010460468999553996 0.4948705422569615 0.4831460674157304
0.010958125999877666 0.49975574010747437 0.48705422569614076
0.011399302999961947 0.4978016609672691 0.48412310698583294
0.011879515999680734 0.486077186126038 0.49193942354665365
0.012431875999936892 0.47923790913532005 0.4929164631167562
0.01290703399990889 0.47728382999511476 0.49682462139716654
0.013367135999942548 0.48216902784562765 0.5007327796775769
0.013840830999924947 0.4938935026868587 0.5007327796775769
0.01456463199974678 0.5007327796775769 0.49877870053737183
0.015065529999901628 0.49682462139716654 0.495847581827064
0.015487836999909632 0.4948705422569615 0.4938935026868587
0.015900050999789528 0.4978016609672691 0.4880312652662433
0.016316616999574762 0.49975574010747437 0.47728382999511476
0.016723275999993348 0.5026868588177822 0.4704445530043966
0.017133823999756714 0.5153883732291158 0.46458231558378116
0.017543815999943035 0.5114802149487054 0.4636052760136786
0.017947660999652726 0.5163654127992183 0.4733756717147044
0.01836872699959713 0.5144113336590133 0.4782608695652173
0.018776440999772603 0.49975574010747437 0.4831460674157304
0.01925659899961829 0.4880312652662433 0.47728382999511476
0.019709756999873207 0.48216902784562765 0.4753297508549097
0.0201385819996176 0.48216902784562765 0.47728382999511476
0.02057235199981733 0.4753297508549097 0.4753297508549097
0.020976121999865427 0.4704445530043966 0.48216902784562765
0.02137565099974381 0.467513434294089 0.49193942354665365
0.02178693999985626 0.4606741573033708 0.5075720566682951
0.022194431999650988 0.4587200781631655 0.5075720566682951
0.022597905999646173 0.4636052760136786 0.512457254518808
0.023055989999647863 0.46458231558378116 0.5085490962383976
0.023498240999742848 0.48412310698583294 0.5056179775280898
0.024114321999604726 0.4880312652662433 0.5007327796775769
0.02452064799990694 0.495847581827064 0.5065950170981925
0.024933231999966665 0.5017098192476794 0.5026868588177822
0.02534924299970953 0.5056179775280898 0.5065950170981925
0.02575797599956786 0.5056179775280898 0.5026868588177822
0.026216670999929192 0.5056179775280898 0.5036638983878847
0.026627607999671454 0.512457254518808 0.49975574010747437
0.02708030299982056 0.5036638983878847 0.49877870053737183
0.02750516499963851 0.4909623839765511 0.49975574010747437
0.027910657999655086 0.4782608695652173 0.5056179775280898
0.028324038999926415 0.4655593551538837 0.5046409379579873
0.028769029999693885 0.46458231558378116 0.495847581827064
0.029246372999750747 0.46946751343429405 0.49682462139716654
0.02972003099966969 0.48412310698583294 0.49682462139716654
0.030195280999578245 0.48900830483634583 0.49975574010747437
0.03061479199959649 0.49193942354665365 0.4978016609672691
0.03111635599998408 0.4938935026868587 0.5017098192476794
0.03154627399999299 0.4948705422569615 0.4948705422569615
0.031985339999664575 0.5095261358085001 0.48998534440644836
0.032504088999758096 0.5075720566682951 0.48412310698583294
0.0329234699997869 0.5046409379579873 0.47923790913532005
0.0333314069998778 0.5056179775280898 0.47435271128480694
0.033737769999788725 0.5153883732291158 0.48412310698583294
0.034208315999876504 0.5261358085002443 0.48900830483634583
0.03463191899982121 0.5368832437713726 0.49682462139716654
0.03509022599973832 0.5212506106497312 0.4880312652662433
0.03551056999958746 0.512457254518808 0.4851001465559355
0.03592111699981615 0.5065950170981925 0.4851001465559355
0.0363482389998353 0.5046409379579873 0.48998534440644836
0.03675700899975709 0.5026868588177822 0.48900830483634583
0.03716188999987935 0.49877870053737183 0.4929164631167562
0.03751295799975196 0.4938935026868587 0.4978016609672691
0.03781174799996734 0.4782608695652173 0.5036638983878847
0.03812376099995163 0.4684904738641915 0.5056179775280898
0.03842453299967019 0.46262823644357587 0.4938935026868587
0.03872441599969534 0.4587200781631655 0.48900830483634583
0.03906055799961905 0.45481191988275516 0.48412310698583294
0.039360237999972014 0.45969711773326827 0.48412310698583294
0.0396552319998591 0.44992672203224227 0.4802149487054226
0.039957170999969094 0.44992672203224227 0.48705422569614076
0.04028242399999726 0.45188080117244755 0.4880312652662433
0.04057993699962026 0.4557889594528579 0.49682462139716654
0.04087902399987797 0.46262823644357587 0.4909623839765511
0.04126783099991371 0.4753297508549097 0.4880312652662433
0.041583083999739756 0.4763067904250122 0.4909623839765511
0.04188057899955311 0.48216902784562765 0.48900830483634583
0.04217703599988454 0.4909623839765511 0.48998534440644836
0.04247738199956075 0.48900830483634583 0.495847581827064
0.042787005999798566 0.4851001465559355 0.4938935026868587
0.04326853399970787 0.48216902784562765 0.49975574010747437
0.043598990999726084 0.486077186126038 0.5007327796775769
0.04391222599997491 0.47923790913532005 0.49877870053737183
0.04422499699967375 0.4782608695652173 0.5026868588177822
0.04456073199980892 0.4753297508549097 0.5007327796775769
0.044919817999925726 0.47923790913532005 0.512457254518808
0.04543552999984968 0.4851001465559355 0.49877870053737183
0.04591752099986479 0.4929164631167562 0.4880312652662433
0.046551415999601886 0.4909623839765511 0.4802149487054226
0.04717908999964493 0.49682462139716654 0.48998534440644836
0.04788381699972888 0.4978016609672691 0.5065950170981925
0.04850919399996201 0.49877870053737183 0.5202735710796287
0.04908357199974489 0.48998534440644836 0.5114802149487054
0.04980707699996856 0.5046409379579873 0.49975574010747437
0.050316178999764816 0.512457254518808 0.4831460674157304
0.05089235299965367 0.5036638983878847 0.45969711773326827
0.05149356399988392 0.49877870053737183 0.4606741573033708
0.05208153399962612 0.4880312652662433 0.4665363947239862
0.05266420799989646 0.48216902784562765 0.47239863214460187
0.0533061779997297 0.4782608695652173 0.4802149487054226
0.05395622099968023 0.4909623839765511 0.4880312652662433
0.054479266999805986 0.5056179775280898 0.48412310698583294
0.05500390499992136 0.5212506106497312 0.4811919882755251
0.05550008099999104 0.5290669272105519 0.4831460674157304
0.055985645999953704 0.5290669272105519 0.4851001465559355
0.056494635999570164 0.5085490962383976 0.4880312652662433
0.0569691639998382 0.495847581827064 0.48900830483634583
0.05742958099972384 0.4831460674157304 0.48900830483634583
0.05794120099972133 0.48705422569614076 0.47923790913532005
0.058474635999573366 0.48705422569614076 0.47923790913532005
0.058965570999589545 0.48900830483634583 0.4929164631167562
0.05976683299968499 0.4802149487054226 0.49193942354665365
0.06029445299964209 0.4753297508549097 0.49193942354665365
0.060764462999941316 0.4587200781631655 0.4938935026868587
0.06123230599996532 0.457743038593063 0.48900830483634583
0.06170446299984178 0.45969711773326827 0.5056179775280898
0.06228704499972082 0.4782608695652173 0.5095261358085001
0.0629819209998459 0.4929164631167562 0.5007327796775769
0.0636219089997212 0.5163654127992183 0.4938935026868587
0.06427302599968243 0.5134342940889105 0.5007327796775769
0.06483671899968613 0.49193942354665365 0.5056179775280898
0.06530220999957237 0.4763067904250122 0.5085490962383976
0.06580762699968545 0.4655593551538837 0.512457254518808
0.06628400699992198 0.4704445530043966 0.5095261358085001
0.06670635000000402 0.467513434294089 0.5056179775280898
0.06716817500000616 0.4811919882755251 0.5036638983878847
0.06758638899964353 0.48900830483634583 0.5056179775280898
0.06800415899988366 0.4938935026868587 0.5017098192476794
0.06841409599974213 0.5036638983878847 0.4929164631167562
0.06882371799974862 0.5056179775280898 0.48412310698583294
0.0692372659996181 0.5075720566682951 0.486077186126038
0.06968870199989396 0.5036638983878847 0.4880312652662433
0.07026937599994199 0.5007327796775769 0.4753297508549097
0.07070542299970839 0.5065950170981925 0.4733756717147044
0.0711581179998575 0.49975574010747437 0.4763067904250122
0.0716627939996215 0.5036638983878847 0.4753297508549097
0.07219893199999206 0.49877870053737183 0.4782608695652173
0.07261862799987284 0.5017098192476794 0.48412310698583294
0.0730293609999535 0.49975574010747437 0.48900830483634583
0.07343800099988584 0.5026868588177822 0.495847581827064
0.07387430799963113 0.4929164631167562 0.4938935026868587
0.07433027999968544 0.4909623839765511 0.4909623839765511
0.07474023599979773 0.4978016609672691 0.48900830483634583
0.07515082099962456 0.49877870053737183 0.48705422569614076
0.07556031299964161 0.5036638983878847 0.48216902784562765
0.07598063799969168 0.5065950170981925 0.47142159257449934
0.07641581499956374 0.5056179775280898 0.4606741573033708
0.0768322519998037 0.49975574010747437 0.46262823644357587
0.07724813299955713 0.4909623839765511 0.47142159257449934
0.0776543289998699 0.4880312652662433 0.4851001465559355
0.0780637839998235 0.4909623839765511 0.4909623839765511
0.07847207299982983 0.4938935026868587 0.4880312652662433
0.07888176899996324 0.49877870053737183 0.4929164631167562
0.07949790499969822 0.49877870053737183 0.4929164631167562
0.07993945199996233 0.5075720566682951 0.49975574010747437
0.080363684999611 0.5007327796775769 0.5036638983878847
0.0807701589997123 0.4851001465559355 0.5075720566682951
0.08117472499998257 0.46946751343429405 0.5192965315095261
0.08164371599968945 0.44894968246213973 0.5202735710796287
0.0820699309997508 0.4430874450415241 0.5085490962383976
0.08248657099966294 0.45481191988275516 0.5056179775280898
0.08290030399984971 0.48412310698583294 0.5095261358085001
0.08331366599986723 0.4938935026868587 0.5026868588177822
0.08371795499988366 0.495847581827064 0.5026868588177822
0.08412696599998526 0.4880312652662433 0.4831460674157304
0.08456891999958316 0.4831460674157304 0.48216902784562765
0.0850115969997205 0.4831460674157304 0.486077186126038
0.08542308899995987 0.4909623839765511 0.4909623839765511
0.08582997099983913 0.4880312652662433 0.49877870053737183
0.0862361479998981 0.5046409379579873 0.5075720566682951
0.08663969599956545 0.5026868588177822 0.5007327796775769
0.08707285499986028 0.49877870053737183 0.495847581827064
0.08748156899991955 0.4938935026868587 0.48900830483634583
0.08783565499970791 0.48998534440644836 0.4851001465559355
0.08820948099992165 0.4811919882755251 0.4851001465559355
0.08854421599971829 0.4811919882755251 0.4851001465559355
0.08883887699994375 0.4763067904250122 0.48705422569614076
0.08913644499989459 0.4782608695652173 0.4880312652662433
0.08943284699989817 0.48216902784562765 0.49193942354665365
0.08974567399991429 0.486077186126038 0.48900830483634583
0.09004744599997139 0.4938935026868587 0.4929164631167562
0.09034284799963643 0.4938935026868587 0.486077186126038
0.09067232399956993 0.49975574010747437 0.486077186126038
0.0910355940000045 0.5007327796775769 0.48998534440644836
0.09133414399957474 0.5017098192476794 0.48900830483634583
0.09163471299962112 0.5007327796775769 0.48412310698583294
0.09192765199986752 0.5046409379579873 0.48900830483634583
0.0922211279998919 0.5026868588177822 0.4851001465559355
0.0925163629999588 0.5085490962383976 0.4880312652662433
0.09288252299984379 0.5114802149487054 0.48900830483634583
0.09321612699977777 0.5075720566682951 0.48900830483634583
0.09352862099967751 0.5085490962383976 0.48705422569614076
0.0938351159998092 0.5075720566682951 0.4851001465559355
0.09414834999961386 0.5007327796775769 0.49975574010747437
0.09446156699959829 0.5036638983878847 0.4851001465559355
0.0949165769998217 0.5007327796775769 0.49193942354665365
0.09525492199963992 0.5085490962383976 0.4880312652662433
0.09566167399998449 0.5026868588177822 0.49682462139716654
0.09605216599993582 0.5075720566682951 0.48412310698583294
0.09659697099959885 0.5017098192476794 0.48998534440644836
0.09722592199977953 0.495847581827064 0.4938935026868587
0.09785944699979154 0.47142159257449934 0.4978016609672691
0.09855650800000149 0.4587200781631655 0.4831460674157304
0.09995162999985041 0.47923790913532005 0.48216902784562765
0.10052163699992889 0.47435271128480694 0.48216902784562765
0.10102412799960803 0.4636052760136786 0.48998534440644836
0.1015129149996028 0.4636052760136786 0.49193942354665365
0.10205001599979369 0.49193942354665365 0.5017098192476794
0.10263461599970469 0.5144113336590133 0.4978016609672691
0.10325525199959884 0.49877870053737183 0.5056179775280898
0.10381859399967652 0.47728382999511476 0.5007327796775769
0.10448619199996756 0.46946751343429405 0.4978016609672691
0.10508308799990118 0.47728382999511476 0.5017098192476794
0.10556767199977912 0.4753297508549097 0.512457254518808
0.10605869899973186 0.4802149487054226 0.5046409379579873
0.10658017099967765 0.48900830483634583 0.5056179775280898
0.10727843599988773 0.5085490962383976 0.5036638983878847
0.10806953199971758 0.5046409379579873 0.5046409379579873
0.10861850299988873 0.49682462139716654 0.49975574010747437
0.10906882799963569 0.4948705422569615 0.495847581827064
0.1095936509996136 0.4978016609672691 0.48998534440644836
0.11001756899986503 0.5017098192476794 0.486077186126038
0.11041763599996557 0.5075720566682951 0.4763067904250122
0.11088095999957659 0.5036638983878847 0.4704445530043966
0.11112093699966863 0.5036638983878847 0.47239863214460187
0.11132771099983074 0.5017098192476794 0.47728382999511476
0.11152583699958996 0.49682462139716654 0.4753297508549097
0.11172103699982472 0.49682462139716654 0.4811919882755251
0.11193079199983913 0.4880312652662433 0.48216902784562765
0.11212232599973504 0.4880312652662433 0.4811919882755251
0.11231339599999046 0.48705422569614076 0.4782608695652173
0.11250226299989663 0.4909623839765511 0.4811919882755251
0.11269362999973964 0.48705422569614076 0.4782608695652173
0.11290018099998633 0.48998534440644836 0.47923790913532005
0.11312691799957975 0.4948705422569615 0.4831460674157304
0.11334359899956326 0.495847581827064 0.48412310698583294
0.11355440999977873 0.5007327796775769 0.4831460674157304
0.11375820199964437 0.4978016609672691 0.486077186126038
0.11395056899982592 0.5017098192476794 0.4929164631167562
0.11414280599956328 0.5007327796775769 0.48216902784562765
0.11433565399966028 0.49975574010747437 0.4811919882755251
0.11452552099990498 0.49877870053737183 0.4851001465559355
0.11471433199994863 0.48900830483634583 0.4753297508549097
0.11494790199958516 0.48998534440644836 0.47728382999511476
0.11514093499999944 0.4802149487054226 0.47435271128480694
0.11533098699965194 0.48216902784562765 0.47728382999511476
0.11552109499962171 0.48705422569614076 0.4763067904250122
0.11571151699990878 0.4880312652662433 0.48900830483634583
0.11590073599973039 0.48900830483634583 0.4811919882755251
0.11617358199964656 0.49193942354665365 0.4880312652662433
0.11636170899964782 0.495847581827064 0.48412310698583294
0.11657435299957797 0.5007327796775769 0.4880312652662433
0.11676840499967511 0.48900830483634583 0.48998534440644836
0.11696160499968755 0.4880312652662433 0.495847581827064
0.11714789699999528 0.4851001465559355 0.4929164631167562
0.11733546799996475 0.4851001465559355 0.49193942354665365
0.11753475999967122 0.4880312652662433 0.49975574010747437
0.11772405299961974 0.4851001465559355 0.4938935026868587
0.11791282699959993 0.48412310698583294 0.49682462139716654
0.11812376799980484 0.48412310698583294 0.4938935026868587
0.11833333799995671 0.48705422569614076 0.48998534440644836
0.1185250379999161 0.495847581827064 0.4929164631167562
0.11871401599955789 0.49193942354665365 0.4880312652662433
0.11894762299971262 0.4978016609672691 0.4851001465559355
0.11913769299962951 0.5036638983878847 0.486077186126038
0.11932530099966243 0.5026868588177822 0.486077186126038
0.11951731599992854 0.5065950170981925 0.4831460674157304
0.12045650199979718 0.49877870053737183 0.4851001465559355
0.12072179299957497 0.4909623839765511 0.48412310698583294
0.1209842509997543 0.4938935026868587 0.4909623839765511
0.12119104299972605 0.48705422569614076 0.4909623839765511
0.12138709499959077 0.48412310698583294 0.4948705422569615
0.12160888699963834 0.48216902784562765 0.4948705422569615
0.1218247159999919 0.4763067904250122 0.5026868588177822
0.12203384199983702 0.4733756717147044 0.5017098192476794
0.12225111599991578 0.47142159257449934 0.5056179775280898
0.12245550099987668 0.47239863214460187 0.5036638983878847
0.12267045999988113 0.47923790913532005 0.5095261358085001
0.1229498429997875 0.4811919882755251 0.5075720566682951
0.12319843099976424 0.48216902784562765 0.5134342940889105
0.12342805599973872 0.486077186126038 0.5202735710796287
0.12362581199977285 0.48216902784562765 0.5134342940889105
0.12381560499989064 0.4802149487054226 0.5173424523693209
0.12400693399968077 0.4831460674157304 0.512457254518808
0.12419874599981995 0.4811919882755251 0.5144113336590133
0.1243949459999385 0.4811919882755251 0.5163654127992183
0.12459053499969741 0.4929164631167562 0.5202735710796287
0.12492015799989531 0.49193942354665365 0.5251587689301416
0.12511219099997106 0.4880312652662433 0.5212506106497312
0.1253065399996558 0.4909623839765511 0.5202735710796287
0.12549872099998538 0.48705422569614076 0.5183194919394236
0.12568742099983865 0.48705422569614076 0.524181729360039
0.12587797299966041 0.49193942354665365 0.5105031753786029
0.12608454299970617 0.49193942354665365 0.5075720566682951
0.12627555799963375 0.4978016609672691 0.5017098192476794
0.12646735099997386 0.49877870053737183 0.495847581827064
0.12666910599955372 0.49877870053737183 0.5017098192476794
0.1268783989999065 0.512457254518808 0.4929164631167562
0.12707896899974003 0.5173424523693209 0.4948705422569615
0.1272691319995829 0.5163654127992183 0.48998534440644836
0.12745773999995436 0.522227650219834 0.4880312652662433
0.12765195799966023 0.5251587689301416 0.48900830483634583
0.12786743599963302 0.5319980459208598 0.4909623839765511
0.1280595989996982 0.5271128480703469 0.48998534440644836
0.12824679899995317 0.5349291646311676 0.4909623839765511
0.12843838799972218 0.5251587689301416 0.49682462139716654
0.12862701399990328 0.5212506106497312 0.49682462139716654
0.12881541799970364 0.5075720566682951 0.49877870053737183
0.1290120619996742 0.49682462139716654 0.49975574010747437
0.12920350299964412 0.4831460674157304 0.49877870053737183
0.1294060919999538 0.47435271128480694 0.5017098192476794
0.1295995879995644 0.4636052760136786 0.49682462139716654
0.12988880499960942 0.45969711773326827 0.49193942354665365
0.13007785699983287 0.45969711773326827 0.4938935026868587
0.13027689000000464 0.46165119687347334 0.4880312652662433
0.13047501599976385 0.4606741573033708 0.4929164631167562
0.13066501199955383 0.4665363947239862 0.4851001465559355
0.13087617499968474 0.46946751343429405 0.4880312652662433
0.13107418999970832 0.4704445530043966 0.4938935026868587
0.13127335299986953 0.47142159257449934 0.48705422569614076
0.1314689969999563 0.46946751343429405 0.48705422569614076
0.13167165999993813 0.46458231558378116 0.48216902784562765
0.13189161899981627 0.4636052760136786 0.48412310698583294
0.1320903369996813 0.4655593551538837 0.47728382999511476
0.13228109299961943 0.467513434294089 0.47142159257449934
0.1324829969998973 0.4684904738641915 0.46946751343429405
0.13267721499960317 0.47435271128480694 0.4665363947239862
0.1328698039997107 0.486077186126038 0.47142159257449934
0.13306261499974426 0.486077186126038 0.4733756717147044
0.13325931499957733 0.48998534440644836 0.47239863214460187
0.1335860309995951 0.4948705422569615 0.4655593551538837
0.13378261999969254 0.49877870053737183 0.4763067904250122
0.13398222699970574 0.5065950170981925 0.47142159257449934
0.13417744599973958 0.5075720566682951 0.4704445530043966
0.13437692399975276 0.5114802149487054 0.47435271128480694
0.13458177199981947 0.5105031753786029 0.47435271128480694
0.13477965699985361 0.5095261358085001 0.4831460674157304
0.13504289299999073 0.512457254518808 0.4763067904250122
0.13524224099955973 0.512457254518808 0.47923790913532005
0.13544018099992172 0.5065950170981925 0.47923790913532005
0.13563562199988155 0.5153883732291158 0.4851001465559355
0.13583437799979947 0.5026868588177822 0.4851001465559355
0.13602878099982263 0.5036638983878847 0.4880312652662433
0.13622259299972939 0.5017098192476794 0.4929164631167562
0.1364187179997316 0.49877870053737183 0.495847581827064
0.13664893599980132 0.5017098192476794 0.4948705422569615
0.13684459899968715 0.5046409379579873 0.4978016609672691
0.1370374289999745 0.49877870053737183 0.49682462139716654
0.13722851799957425 0.5085490962383976 0.5007327796775769
0.13742055099965 0.5056179775280898 0.495847581827064
0.13765871399982643 0.5075720566682951 0.5105031753786029
0.13785861699989255 0.5105031753786029 0.49682462139716654
0.13805274299966186 0.5085490962383976 0.4929164631167562
0.13824451699974816 0.5036638983878847 0.48900830483634583
0.1384480319998147 0.5046409379579873 0.48412310698583294
0.13864823199992315 0.4948705422569615 0.4733756717147044
0.13884889499968267 0.48998534440644836 0.47239863214460187
0.13904626099974848 0.4929164631167562 0.4665363947239862
0.1392407209996236 0.48998534440644836 0.4733756717147044
0.13943810599994322 0.49193942354665365 0.467513434294089
0.13962852799977554 0.4909623839765511 0.4684904738641915
0.13981957999976657 0.4831460674157304 0.4763067904250122
0.14001290999976845 0.4811919882755251 0.4753297508549097
0.14020501699997112 0.4763067904250122 0.47923790913532005
0.1403963660000045 0.4733756717147044 0.486077186126038
0.14059210299956248 0.46165119687347334 0.48900830483634583
0.14078482099967005 0.45481191988275516 0.4938935026868587
0.14098068799967223 0.45676599902296044 0.4948705422569615
0.14117612899963206 0.46165119687347334 0.5026868588177822
0.14136906899966561 0.457743038593063 0.49682462139716654
0.1415624179999213 0.4636052760136786 0.49877870053737183
0.14179476499975863 0.47435271128480694 0.5046409379579873
0.14199314999996204 0.4802149487054226 0.49877870053737183
0.1421872579999217 0.48705422569614076 0.5017098192476794
0.14238208699998722 0.4929164631167562 0.5017098192476794
0.14257374999988315 0.4938935026868587 0.5036638983878847
0.14276611699960995 0.5036638983878847 0.5026868588177822
0.1429903169996578 0.4948705422569615 0.512457254518808
0.1432024979999369 0.49975574010747437 0.5065950170981925
0.14341180899964456 0.49682462139716654 0.512457254518808
0.14365508199989563 0.48412310698583294 0.512457254518808
0.14386328099999446 0.4811919882755251 0.5202735710796287
0.14407262899976558 0.4831460674157304 0.522227650219834
0.14428851399998166 0.4802149487054226 0.5212506106497312
0.14449891799995385 0.4782608695652173 0.524181729360039
0.14472448699962115 0.4851001465559355 0.5192965315095261
0.14505538899993553 0.47923790913532005 0.5183194919394236
0.1455558419997942 0.48412310698583294 0.5173424523693209
0.1459648529998958 0.48412310698583294 0.5114802149487054
0.14630671699978848 0.486077186126038 0.5105031753786029
0.14660698899979252 0.4909623839765511 0.5114802149487054
0.14687966899964522 0.4929164631167562 0.5105031753786029
0.14710125699957644 0.4948705422569615 0.5095261358085001
0.14732149399969785 0.4929164631167562 0.5065950170981925
0.14754424899956575 0.5007327796775769 0.4978016609672691
0.14776604099961332 0.4938935026868587 0.495847581827064
0.14798586999995678 0.4948705422569615 0.4929164631167562
0.1482185509998999 0.49877870053737183 0.4938935026868587
0.14864906099955988 0.4763067904250122 0.4948705422569615
0.14900307299967608 0.47435271128480694 0.4929164631167562
0.14926993899962326 0.4782608695652173 0.4880312652662433
0.14953221099995062 0.47923790913532005 0.48900830483634583
0.14980655799990927 0.49193942354665365 0.4802149487054226
0.15010199699963778 0.495847581827064 0.4763067904250122
0.1503836769998088 0.5085490962383976 0.48412310698583294
0.1506631339998421 0.522227650219834 0.47923790913532005
0.15099972099960723 0.5359062042012701 0.4811919882755251
0.1512920119998853 0.5466536394723986 0.4811919882755251
0.15151987799981725 0.5495847581827065 0.4909623839765511
0.15173753999988548 0.5476306790425012 0.4880312652662433
0.15195679499993275 0.5446995603321934 0.4851001465559355
0.1521737729999586 0.5388373229115779 0.4802149487054226
0.15240410199976395 0.533952125061065 0.4831460674157304
0.15265524500000538 0.5173424523693209 0.48412310698583294
0.15287907399988399 0.5046409379579873 0.4851001465559355
0.15310269999963566 0.5007327796775769 0.4733756717147044
0.15332293599976765 0.4929164631167562 0.4753297508549097
0.15355139499979487 0.49193942354665365 0.4753297508549097
0.15378101999976934 0.486077186126038 0.4811919882755251
0.1539980529996683 0.486077186126038 0.47923790913532005
0.15421908599955714 0.4909623839765511 0.4802149487054226
0.15444709999974293 0.486077186126038 0.4880312652662433
0.15490023999973346 0.49193942354665365 0.48998534440644836
0.15519473399990602 0.48412310698583294 0.4831460674157304
0.15546559899985368 0.47728382999511476 0.4811919882755251
0.15570977999959723 0.467513434294089 0.4802149487054226
0.15597568199973466 0.4557889594528579 0.4704445530043966
0.15622625199966933 0.4450415241817294 0.4684904738641915
0.15647983899998508 0.43624816805080613 0.4684904738641915
0.15673022399960246 0.43624816805080613 0.47728382999511476
0.1569784969997272 0.43624816805080613 0.4704445530043966
0.15727676899996368 0.4450415241817294 0.4733756717147044
0.15757846699989386 0.45481191988275516 0.47923790913532005
0.15786236899975847 0.46946751343429405 0.4733756717147044
0.15809306799974365 0.4763067904250122 0.47728382999511476
0.158312026999738 0.48216902784562765 0.4782608695652173
0.15852305999987948 0.4909623839765511 0.47923790913532005
0.15874427799963087 0.49682462139716654 0.48705422569614076
0.1589604959999633 0.49975574010747437 0.4909623839765511
0.15917154799990385 0.5026868588177822 0.4938935026868587
0.15942596899958517 0.5026868588177822 0.49975574010747437
0.15977296199980628 0.4978016609672691 0.5075720566682951
0.16000455099992905 0.49682462139716654 0.5075720566682951
0.16044707899982313 0.48998534440644836 0.5075720566682951
0.16075351799963755 0.4909623839765511 0.5046409379579873
0.16101669799991214 0.4929164631167562 0.5036638983878847
0.16124582299971735 0.495847581827064 0.49682462139716654
0.16146041199999672 0.4978016609672691 0.495847581827064
0.16168453699992824 0.4938935026868587 0.4978016609672691
0.1619106439998177 0.4929164631167562 0.5007327796775769
0.16221780499972738 0.4880312652662433 0.5046409379579873
0.1624434119999023 0.47923790913532005 0.5105031753786029
0.1626947219997419 0.4733756717147044 0.5036638983878847
0.1630570299998908 0.47239863214460187 0.49975574010747437
0.16334326499963936 0.47728382999511476 0.4978016609672691
0.16362344499975734 0.48998534440644836 0.4948705422569615
0.1638936989998001 0.4938935026868587 0.4978016609672691
0.16417910099971778 0.49193942354665365 0.4978016609672691
0.16440330099976563 0.4948705422569615 0.49682462139716654
0.1646191669997279 0.49877870053737183 0.4938935026868587
0.1648462179996386 0.4880312652662433 0.4948705422569615
0.165335708999919 0.48412310698583294 0.5017098192476794
0.16570007299969802 0.48216902784562765 0.5095261358085001
0.16595717899963347 0.48705422569614076 0.5085490962383976
0.16618602599965016 0.4831460674157304 0.5144113336590133
0.1664245399997526 0.48412310698583294 0.5046409379579873
0.1666626839996752 0.48216902784562765 0.5036638983878847
0.16699486299967248 0.4880312652662433 0.5007327796775769
0.16736137499992765 0.4763067904250122 0.5046409379579873
0.16759742599970195 0.4811919882755251 0.49193942354665365
0.16779451499996867 0.48216902784562765 0.48705422569614076
0.16802626899971074 0.48705422569614076 0.4851001465559355
0.1682492469999488 0.4929164631167562 0.4802149487054226
0.16844574299966553 0.4929164631167562 0.4782608695652173
0.16863957299983667 0.495847581827064 0.47923790913532005
0.16883245799999713 0.4978016609672691 0.4802149487054226
0.16902563899975576 0.5007327796775769 0.48412310698583294
0.1692236169997159 0.49975574010747437 0.4802149487054226
0.16942479899989848 0.49877870053737183 0.4782608695652173
0.16962057299997468 0.5065950170981925 0.48412310698583294
0.16981380999959583 0.49877870053737183 0.48412310698583294
0.17000897299976714 0.495847581827064 0.4851001465559355
0.17020250599989595 0.49682462139716654 0.48998534440644836
0.1703967619996547 0.4929164631167562 0.48900830483634583
0.17059088799987876 0.49193942354665365 0.4929164631167562
0.17087040099977457 0.49682462139716654 0.48900830483634583
0.17110328499984462 0.49975574010747437 0.48412310698583294
0.1716229979997479 0.5017098192476794 0.486077186126038
0.1718396789997314 0.5065950170981925 0.48900830483634583
0.17204202699986126 0.5163654127992183 0.4909623839765511
0.1722361339998315 0.5144113336590133 0.48412310698583294
0.172434093999982 0.5095261358085001 0.48998534440644836
0.17278617899955862 0.5075720566682951 0.49877870053737183
0.1729839719996562 0.5095261358085001 0.48998534440644836
0.17318011599991223 0.5056179775280898 0.48998534440644836
0.17337555699987206 0.5075720566682951 0.486077186126038
0.17361820099995384 0.5017098192476794 0.48412310698583294
0.1738515849997384 0.4978016609672691 0.4909623839765511
0.17406759999994392 0.495847581827064 0.48900830483634583
0.17428546599967376 0.49877870053737183 0.48705422569614076
0.17452890599997772 0.495847581827064 0.48998534440644836
0.17473606899966398 0.4938935026868587 0.48705422569614076
0.17494987899999614 0.4978016609672691 0.4880312652662433
0.17514733899997736 0.49682462139716654 0.48705422569614076
0.17534133499975724 0.495847581827064 0.48998534440644836
0.17554594199964413 0.5056179775280898 0.4929164631167562
0.17574540099985825 0.5065950170981925 0.49193942354665365
0.17594758299992463 0.5056179775280898 0.4929164631167562
0.17619018899995353 0.5095261358085001 0.48900830483634583
0.1764091479999479 0.5075720566682951 0.495847581827064
0.1766465689997858 0.5036638983878847 0.49193942354665365
0.1768620469997586 0.5075720566682951 0.48900830483634583
0.17710517199975584 0.49682462139716654 0.4948705422569615
0.1773346679997303 0.4909623839765511 0.4909623839765511
0.17758131099981256 0.48998534440644836 0.4909623839765511
0.17782578799960902 0.486077186126038 0.48705422569614076
0.17805511699998533 0.4782608695652173 0.47728382999511476
0.17920122499981517 0.47435271128480694 0.4880312652662433
0.17975062199957392 0.4763067904250122 0.49193942354665365
0.1800904299998365 0.4811919882755251 0.5017098192476794
0.18032970399963233 0.4880312652662433 0.49975574010747437
0.1805651809995652 0.4938935026868587 0.495847581827064
0.18080174999977316 0.49877870053737183 0.49877870053737183
0.1810480229996756 0.5075720566682951 0.49193942354665365
0.1813190369998665 0.5114802149487054 0.4978016609672691
0.18158992099961324 0.5095261358085001 0.49877870053737183
0.18186460099968826 0.5056179775280898 0.5026868588177822
0.18214922499964814 0.5026868588177822 0.5065950170981925
0.18241631199998665 0.4948705422569615 0.5105031753786029
0.18268634399964867 0.4929164631167562 0.5163654127992183
0.1830078749999302 0.4880312652662433 0.5163654127992183
0.1832286299995758 0.486077186126038 0.5153883732291158
0.18344590399965455 0.47923790913532005 0.5144113336590133
0.18366423299994494 0.47923790913532005 0.5212506106497312
0.18388037699969573 0.4753297508549097 0.5134342940889105
0.1841080949998286 0.47728382999511476 0.512457254518808
0.18434336799964512 0.47239863214460187 0.5095261358085001
0.1846503999995548 0.4811919882755251 0.5075720566682951
0.18486698799961232 0.4782608695652173 0.4978016609672691
0.1850628180000058 0.47923790913532005 0.5046409379579873
0.18527381399962906 0.47728382999511476 0.4929164631167562
0.18547958799990738 0.4782608695652173 0.48900830483634583
0.18567708399996263 0.4763067904250122 0.4938935026868587
0.18587522799998624 0.47923790913532005 0.486077186126038
0.1860720399999991 0.4802149487054226 0.48705422569614076
0.18626810999967347 0.48216902784562765 0.48412310698583294
0.18646688399985578 0.48412310698583294 0.48998534440644836
0.18666428799997448 0.4831460674157304 0.48998534440644836
0.18687757999987298 0.48705422569614076 0.4831460674157304
0.18708664999985558 0.4938935026868587 0.4938935026868587
0.1872859239997524 0.4880312652662433 0.4880312652662433
0.1874789199996485 0.4880312652662433 0.486077186126038
0.18767076899985113 0.4851001465559355 0.48998534440644836
0.18795776299975842 0.4851001465559355 0.49682462139716654
0.18815274099961243 0.48216902784562765 0.4880312652662433
0.18834486699961417 0.47923790913532005 0.48900830483634583
0.18855767799959722 0.4802149487054226 0.4929164631167562
0.18875011899990568 0.486077186126038 0.48998534440644836
0.18899633599994559 0.48412310698583294 0.486077186126038
0.18918964699969365 0.4851001465559355 0.4938935026868587
0.18938225499960026 0.4909623839765511 0.48998534440644836
0.1895759359999829 0.49193942354665365 0.48998534440644836
0.18976828499990006 0.49975574010747437 0.49193942354665365
0.1899592249997113 0.5075720566682951 0.4929164631167562
0.19018610999955854 0.5026868588177822 0.4909623839765511
0.19123479399968346 0.5046409379579873 0.49193942354665365
0.19152356599988707 0.5036638983878847 0.4909623839765511
0.1917193029998998 0.495847581827064 0.4851001465559355
0.19191242899978533 0.4938935026868587 0.48705422569614076
0.19210594399964975 0.5036638983878847 0.4811919882755251
0.19229993999988437 0.49682462139716654 0.4763067904250122
0.19249651099971743 0.49682462139716654 0.47728382999511476
0.192696099999921 0.49975574010747437 0.4733756717147044
0.19292955799983247 0.5017098192476794 0.4802149487054226
0.19312273999958052 0.5026868588177822 0.47435271128480694
0.19331751399977293 0.5075720566682951 0.47923790913532005
0.1935111209995739 0.5046409379579873 0.4811919882755251
0.1937530609998248 0.5075720566682951 0.4851001465559355
0.19397398299997803 0.5065950170981925 0.4851001465559355
0.19419649699966612 0.5036638983878847 0.48900830483634583
0.19445212199980233 0.5075720566682951 0.4880312652662433
0.1946871549998832 0.5017098192476794 0.4802149487054226
0.1950106669996785 0.49975574010747437 0.4782608695652173
0.19523756999979014 0.495847581827064 0.47923790913532005
0.19548513899962927 0.4929164631167562 0.4802149487054226
0.19570957999985694 0.495847581827064 0.48412310698583294
0.19592448299999887 0.4938935026868587 0.48412310698583294
0.19612407199974768 0.48900830483634583 0.48216902784562765
0.19632273499973962 0.49682462139716654 0.48998534440644836
0.1965248979995522 0.48998534440644836 0.48998534440644836
0.19672285699971326 0.48900830483634583 0.4978016609672691
0.19691631599971515 0.4909623839765511 0.49877870053737183
0.1972373659996265 0.4880312652662433 0.4948705422569615
0.19744891699974687 0.49682462139716654 0.49682462139716654
0.19764902499991877 0.486077186126038 0.49975574010747437
0.1978464279995933 0.48998534440644836 0.5056179775280898
0.19804342399993402 0.4909623839765511 0.5026868588177822
0.1982388279998304 0.486077186126038 0.5046409379579873
0.1984347689999595 0.486077186126038 0.5056179775280898
0.19864183899971977 0.48216902784562765 0.5017098192476794
0.19895318499993664 0.47728382999511476 0.5036638983878847
0.19915412599993942 0.4763067904250122 0.5026868588177822
0.19935271499980445 0.47142159257449934 0.5017098192476794
0.19954911799959518 0.47239863214460187 0.49877870053737183
0.19974315199988268 0.47435271128480694 0.5026868588177822
0.19994185199993808 0.4763067904250122 0.495847581827064
0.20013905199994042 0.4811919882755251 0.4938935026868587
0.2003526769999553 0.4831460674157304 0.4909623839765511
0.20054861799962964 0.4938935026868587 0.49193942354665365
0.20074392899960003 0.49975574010747437 0.4938935026868587
0.20094073999962347 0.4978016609672691 0.495847581827064
0.20113538499981587 0.5026868588177822 0.4880312652662433
0.20133115899989207 0.49975574010747437 0.4909623839765511
0.20153591399957804 0.4978016609672691 0.4938935026868587
0.20173692899970774 0.4978016609672691 0.48998534440644836
0.20193185099969924 0.5026868588177822 0.49193942354665365
0.20214634699959788 0.495847581827064 0.4948705422569615
0.20235136199971748 0.4948705422569615 0.5036638983878847
0.2025478209998255 0.49682462139716654 0.495847581827064
0.2027388539995627 0.4978016609672691 0.5036638983878847
0.2029444429999785 0.5036638983878847 0.4909623839765511
0.20313903199985361 0.5163654127992183 0.49193942354665365
0.2033328059997075 0.512457254518808 0.4880312652662433
0.20360413399976096 0.5144113336590133 0.4831460674157304
0.20382131499991374 0.5085490962383976 0.4851001465559355
0.20403008899984343 0.5036638983878847 0.4811919882755251
0.20424847399999635 0.4938935026868587 0.4753297508549097
0.20447759899980156 0.4851001465559355 0.47728382999511476
0.20470777999980783 0.47728382999511476 0.48216902784562765
0.2049028129999897 0.4704445530043966 0.4811919882755251
0.20510830899957 0.467513434294089 0.4851001465559355
0.20530765799958317 0.4606741573033708 0.48900830483634583
0.2055021169999236 0.46262823644357587 0.4909623839765511
0.2056981129999258 0.45676599902296044 0.5026868588177822
0.20589597999969556 0.4557889594528579 0.5026868588177822
0.20611288299960506 0.4557889594528579 0.5017098192476794
0.20630756499986092 0.4606741573033708 0.5075720566682951
0.2064982649999365 0.4606741573033708 0.5075720566682951
0.2066896309997901 0.46165119687347334 0.5114802149487054
0.20693605299993578 0.47435271128480694 0.5144113336590133
0.2071291599995675 0.47239863214460187 0.5105031753786029
0.2073375639997721 0.4782608695652173 0.5007327796775769
0.2075408749997223 0.4851001465559355 0.5017098192476794
0.2077321669999037 0.48900830483634583 0.49975574010747437
0.20792299699996875 0.4938935026868587 0.5017098192476794
0.20811682699968514 0.4929164631167562 0.49975574010747437
0.20835734099955516 0.4978016609672691 0.5075720566682951
0.20856929999990825 0.4978016609672691 0.49877870053737183
0.20877061099963612 0.5095261358085001 0.5026868588177822
0.20896053299975392 0.5036638983878847 0.49975574010747437
0.20915202899959695 0.5026868588177822 0.5056179775280898
0.20936561799999254 0.5075720566682951 0.5007327796775769
0.20962529799999174 0.5114802149487054 0.4909623839765511
0.20984960899977523 0.5144113336590133 0.495847581827064
0.2100547899999583 0.5114802149487054 0.4938935026868587
0.2102622679999513 0.5114802149487054 0.49193942354665365
0.2104644489995735 0.5105031753786029 0.4782608695652173
0.21067472299955625 0.5134342940889105 0.4831460674157304
0.21120774999963032 0.512457254518808 0.47435271128480694
0.21145637499967052 0.5202735710796287 0.4753297508549097
0.21187921899991125 0.512457254518808 0.4763067904250122
0.21216549099972326 0.5153883732291158 0.47923790913532005
0.2124478559999261 0.5095261358085001 0.4782608695652173
0.21285525599978428 0.5007327796775769 0.486077186126038
0.21322367499988104 0.49193942354665365 0.48705422569614076
0.21343561499998032 0.4880312652662433 0.4851001465559355
0.21363872199981415 0.4811919882755251 0.48705422569614076
0.21384710699976495 0.4763067904250122 0.48705422569614076
0.2140896209998573 0.47728382999511476 0.48705422569614076
0.2143252279997796 0.4782608695652173 0.48412310698583294
0.21461325999962355 0.48900830483634583 0.4909623839765511
0.21487801399962336 0.4938935026868587 0.48900830483634583
0.21518454499982909 0.5085490962383976 0.4929164631167562
0.2155100569998467 0.5105031753786029 0.4938935026868587
0.21578888499971072 0.5114802149487054 0.49975574010747437
0.21607397299976583 0.5075720566682951 0.49193942354665365
0.2163087649996669 0.5075720566682951 0.49975574010747437
0.2165368529999796 0.49682462139716654 0.4938935026868587
0.21676034899974184 0.4929164631167562 0.48998534440644836
0.21698141799970472 0.48216902784562765 0.4851001465559355
0.21728726499986806 0.486077186126038 0.48216902784562765
0.21758196299970223 0.47923790913532005 0.4880312652662433
0.2178549949999251 0.4753297508549097 0.47923790913532005
0.21812424899962934 0.48216902784562765 0.4802149487054226
0.21840637299965238 0.4753297508549097 0.486077186126038
0.218746514999566 0.4811919882755251 0.4948705422569615
0.21899639899993417 0.47239863214460187 0.49682462139716654
0.21922361699989779 0.47923790913532005 0.5026868588177822
0.21944872399990345 0.4733756717147044 0.5046409379579873
0.21967684899982487 0.4704445530043966 0.5056179775280898
0.21997371399993426 0.4665363947239862 0.5095261358085001
0.22020028399992952 0.47239863214460187 0.5085490962383976
0.2204140759999973 0.4811919882755251 0.5056179775280898
0.22062471999970512 0.467513434294089 0.5017098192476794
0.2208363830000053 0.467513434294089 0.5007327796775769
0.22104893399955472 0.47142159257449934 0.49975574010747437
0.2212559859999601 0.47728382999511476 0.4948705422569615
0.22147448199984865 0.4763067904250122 0.49877870053737183
0.2216888109996944 0.4811919882755251 0.4938935026868587
0.22190093699964564 0.4938935026868587 0.495847581827064
0.22212063599999965 0.4929164631167562 0.4938935026868587
0.22232357699977 0.49682462139716654 0.49682462139716654
0.22251455499963413 0.49682462139716654 0.4948705422569615
0.22270586599961462 0.5085490962383976 0.49975574010747437
0.22296076799966613 0.49975574010747437 0.495847581827064
0.22316824599965912 0.49975574010747437 0.5026868588177822
0.2233613719999994 0.5007327796775769 0.49975574010747437
0.2235520539998106 0.4978016609672691 0.5036638983878847
0.22375684599956003 0.5007327796775769 0.5036638983878847
0.223954878999848 0.4938935026868587 0.5036638983878847
0.22414770899968062 0.4929164631167562 0.49975574010747437
0.22434205699983067 0.4929164631167562 0.49193942354665365
0.22453923899956862 0.49975574010747437 0.49193942354665365
0.22474269799977264 0.4929164631167562 0.4978016609672691
0.22494280499995511 0.49682462139716654 0.4880312652662433
0.2251429680000001 0.49682462139716654 0.4880312652662433
0.22533666799972707 0.4948705422569615 0.48216902784562765
0.22553151599959165 0.49682462139716654 0.48998534440644836
0.22573343799967915 0.5007327796775769 0.486077186126038
0.22592839799972353 0.4978016609672691 0.48900830483634583
0.22630035399970438 0.5007327796775769 0.4880312652662433
0.226498275999802 0.5007327796775769 0.48900830483634583
0.2266932719999204 0.49682462139716654 0.48900830483634583
0.2269486010000037 0.4909623839765511 0.4880312652662433
0.22714539299977332 0.4880312652662433 0.48412310698583294
0.22734399999990273 0.49682462139716654 0.4880312652662433
0.22753718199965078 0.4880312652662433 0.4880312652662433
0.22773328899984335 0.48705422569614076 0.4880312652662433
0.22794147099966722 0.486077186126038 0.48998534440644836
0.2281418559996382 0.4851001465559355 0.4938935026868587
0.22834862999980032 0.48998534440644836 0.49682462139716654
0.22857805099965844 0.48900830483634583 0.49877870053737183
0.2288001769998118 0.5007327796775769 0.5007327796775769
0.22902413499969043 0.4978016609672691 0.49877870053737183
0.22924555699955818 0.5046409379579873 0.49682462139716654
0.22947062699995513 0.5036638983878847 0.49975574010747437
0.22969182599990745 0.5065950170981925 0.49193942354665365
0.22991132199967979 0.5105031753786029 0.4880312652662433
0.23011604099974647 0.5163654127992183 0.4978016609672691
0.2303134809999392 0.5202735710796287 0.4880312652662433
0.23056495799983168 0.5271128480703469 0.49193942354665365
0.2307607879997704 0.5329750854909623 0.4929164631167562
0.23096043199984706 0.5310210063507572 0.49193942354665365
0.23115535399983855 0.5271128480703469 0.495847581827064
0.23134349899964946 0.5183194919394236 0.5007327796775769
0.2315341619996616 0.512457254518808 0.49193942354665365
0.23174152799992953 0.4978016609672691 0.48998534440644836
0.2319390799998473 0.48900830483634583 0.49682462139716654
0.23213096599965866 0.4802149487054226 0.48412310698583294
0.23232279499961805 0.47142159257449934 0.47923790913532005
0.23251192099996842 0.4655593551538837 0.4733756717147044
0.23270573199988576 0.4636052760136786 0.4704445530043966
0.23290783999982523 0.45969711773326827 0.47142159257449934
0.2330968359997314 0.45969711773326827 0.4684904738641915
0.23328944399963802 0.4557889594528579 0.46946751343429405
0.2334811439995974 0.4636052760136786 0.4802149487054226
0.2336693249999371 0.45676599902296044 0.47239863214460187
0.23386341399964294 0.4606741573033708 0.4753297508549097
0.23405270699959146 0.4587200781631655 0.4802149487054226
0.23424407399988922 0.45969711773326827 0.47728382999511476
0.23443432899966865 0.46262823644357587 0.47728382999511476
0.23462186299957466 0.45969711773326827 0.4851001465559355
0.2349136909997469 0.46458231558378116 0.4763067904250122
0.23513027899980443 0.4763067904250122 0.4811919882755251
0.23532864599974346 0.4851001465559355 0.4782608695652173
0.23552858699986245 0.495847581827064 0.4763067904250122
0.23572869399959018 0.5075720566682951 0.4811919882755251
0.23592631999963487 0.5144113336590133 0.486077186126038
0.23611835299971062 0.522227650219834 0.4831460674157304
0.2363416079997478 0.524181729360039 0.4909623839765511
0.2365559189997839 0.5192965315095261 0.49193942354665365
0.23675206299958518 0.5163654127992183 0.4929164631167562
0.2369441889995869 0.5017098192476794 0.49193942354665365
0.2371371489998637 0.49682462139716654 0.4948705422569615
0.23733227499997156 0.48412310698583294 0.49193942354665365
0.2375274559999525 0.4811919882755251 0.4978016609672691
0.2377200079999966 0.47435271128480694 0.5026868588177822
0.23791948599955504 0.47239863214460187 0.4948705422569615
0.2381107599999268 0.4704445530043966 0.5036638983878847
0.23831620099963402 0.4704445530043966 0.4929164631167562
0.23850914099966758 0.4704445530043966 0.49193942354665365
0.23870271199984927 0.47435271128480694 0.4929164631167562
0.2391387779998695 0.4811919882755251 0.4831460674157304
0.23933690299963928 0.49193942354665365 0.48900830483634583
0.2395392699995682 0.4851001465559355 0.4880312652662433
0.23974730299960356 0.4909623839765511 0.4909623839765511
0.2399419289999969 0.48412310698583294 0.495847581827064
0.24013731399963945 0.4880312652662433 0.4978016609672691
0.24033636599961028 0.48900830483634583 0.5056179775280898
0.24053126999979213 0.4880312652662433 0.5007327796775769
0.24072856199973103 0.486077186126038 0.512457254518808
0.24093040999969162 0.48705422569614076 0.5046409379579873
0.24112612899989472 0.4880312652662433 0.5134342940889105
0.2413176619998012 0.4948705422569615 0.5036638983878847
0.24151086199981364 0.4938935026868587 0.5036638983878847
0.2417067479996149 0.49682462139716654 0.5036638983878847
0.24191578099998878 0.4978016609672691 0.5046409379579873
0.24211823999985427 0.49975574010747437 0.5085490962383976
0.24231225499988795 0.49975574010747437 0.5075720566682951
0.24250739899980545 0.495847581827064 0.5134342940889105
0.24276159799956076 0.48998534440644836 0.5183194919394236
0.24297281599956477 0.4938935026868587 0.5144113336590133
0.243168052999863 0.4948705422569615 0.5144113336590133
0.24336114199968506 0.49193942354665365 0.5134342940889105
0.24355465700000423 0.4880312652662433 0.524181729360039
0.2437471349999214 0.4929164631167562 0.5105031753786029
0.24395038999955432 0.4831460674157304 0.5163654127992183
0.24415155299993785 0.48705422569614076 0.5105031753786029
0.2443487529999402 0.4880312652662433 0.5105031753786029
0.2445436569996673 0.48998534440644836 0.5065950170981925
0.2447345979999227 0.4909623839765511 0.5075720566682951
0.2449298159999671 0.48900830483634583 0.5095261358085001
0.2451543679999304 0.49877870053737183 0.5046409379579873
0.24535499299963703 0.49193942354665365 0.49975574010747437
0.24554810099971291 0.4909623839765511 0.5036638983878847
0.24574078199975702 0.48900830483634583 0.4948705422569615
0.2459398159999182 0.4938935026868587 0.495847581827064
0.24613507099957133 0.48412310698583294 0.4880312652662433
0.24633564199984903 0.4831460674157304 0.48705422569614076
0.2465426750000006 0.4831460674157304 0.48705422569614076
0.24674385599973903 0.4831460674157304 0.4831460674157304
0.24695661099985955 0.4802149487054226 0.4880312652662433
0.24732599299977664 0.4851001465559355 0.4929164631167562
0.24754422999967574 0.48412310698583294 0.4938935026868587
0.24775554099960573 0.4929164631167562 0.5026868588177822
0.24795088899963957 0.4851001465559355 0.49682462139716654
0.2481476439998005 0.48412310698583294 0.4978016609672691
0.24834754799985603 0.4851001465559355 0.4978016609672691
0.2485551919999125 0.486077186126038 0.49975574010747437
0.24874966999959724 0.4929164631167562 0.4938935026868587
0.2489458889999696 0.4938935026868587 0.49682462139716654
0.2491401809998024 0.49193942354665365 0.4909623839765511
0.24935712199976479 0.4948705422569615 0.48900830483634583
0.24957904299981237 0.4938935026868587 0.4802149487054226
0.24977713199996288 0.49682462139716654 0.4802149487054226
0.2499757209998279 0.5046409379579873 0.486077186126038
0.2501704019996396 0.49682462139716654 0.4782608695652173
0.25036249099957786 0.5065950170981925 0.48412310698583294
0.25055445099997087 0.5007327796775769 0.47923790913532005
0.2507565949999844 0.5026868588177822 0.4851001465559355
0.25095322099969053 0.49975574010747437 0.4802149487054226
0.25115643899971474 0.5017098192476794 0.4782608695652173
0.25134967699978006 0.49975574010747437 0.4811919882755251
0.25158120899959613 0.49682462139716654 0.4763067904250122
0.25179181599969525 0.49682462139716654 0.4782608695652173
0.2519890719995601 0.4938935026868587 0.4802149487054226
0.25218154999993203 0.49682462139716654 0.48900830483634583
0.25237343499975395 0.4929164631167562 0.48412310698583294
0.25256657899990387 0.48998534440644836 0.48216902784562765
0.25278120499979195 0.5007327796775769 0.486077186126038
0.252975867999794 0.4978016609672691 0.4831460674157304
0.25316903099974297 0.5017098192476794 0.4851001465559355
0.2533640829997239 0.5085490962383976 0.48216902784562765
0.25355928299995867 0.5134342940889105 0.4851001465559355
0.2537508529999286 0.5173424523693209 0.48705422569614076
0.2539600719996997 0.5212506106497312 0.4909623839765511
0.25415564199965957 0.5173424523693209 0.4909623839765511
0.25435097199988377 0.5261358085002443 0.4978016609672691
0.25454357899980096 0.5075720566682951 0.4929164631167562
0.2547359459999825 0.5007327796775769 0.49975574010747437
0.2549407749997954 0.49682462139716654 0.4909623839765511
0.2551337899999453 0.48998534440644836 0.4929164631167562
0.2553287869995984 0.4938935026868587 0.4929164631167562
0.25552050499982215 0.4880312652662433 0.49193942354665365
0.25571250099983445 0.486077186126038 0.49877870053737183
0.2559197749997111 0.486077186126038 0.49682462139716654
0.2561136979998082 0.4880312652662433 0.495847581827064
0.25632460099996024 0.4909623839765511 0.495847581827064
0.2565175969998563 0.48998534440644836 0.49877870053737183
0.2567133899997316 0.5007327796775769 0.4978016609672691
0.2569070159997864 0.49193942354665365 0.4948705422569615
0.25710341999956654 0.5017098192476794 0.495847581827064
0.257295767999949 0.495847581827064 0.49193942354665365
0.25748802299995077 0.5026868588177822 0.48705422569614076
0.25767868699995233 0.5065950170981925 0.48705422569614076
0.2578766829997221 0.495847581827064 0.48412310698583294
0.25807034599984036 0.49682462139716654 0.48412310698583294
0.2582614529997045 0.4948705422569615 0.4831460674157304
0.25845420899986493 0.4909623839765511 0.4880312652662433
0.25864638999973977 0.4948705422569615 0.4831460674157304
0.2588420719998794 0.49193942354665365 0.4811919882755251
0.25903480899978604 0.5017098192476794 0.48216902784562765
0.25922956499971406 0.4948705422569615 0.47728382999511476
0.2595176889999493 0.5007327796775769 0.47728382999511476
0.25974559199994474 0.495847581827064 0.48412310698583294
0.2599829019995923 0.4948705422569615 0.4802149487054226
0.26020154599973466 0.4938935026868587 0.4782608695652173
0.26045863399986047 0.48998534440644836 0.4811919882755251
0.2606802219997917 0.4880312652662433 0.48705422569614076
0.2609126809998088 0.4831460674157304 0.4831460674157304
0.26112612099996113 0.48412310698583294 0.4811919882755251
0.26134902499961754 0.486077186126038 0.48412310698583294
0.26157179799974983 0.4851001465559355 0.4909623839765511
0.2617804419996901 0.48412310698583294 0.495847581827064
0.2619962159997158 0.4880312652662433 0.5017098192476794
0.26229789599983633 0.4880312652662433 0.49975574010747437
0.2626234259996636 0.486077186126038 0.5026868588177822
0.263198581999859 0.48705422569614076 0.5017098192476794
0.2636735729997781 0.47923790913532005 0.495847581827064
0.26400449299990214 0.47728382999511476 0.49682462139716654
0.26432619099978183 0.47239863214460187 0.5007327796775769
0.2646497399996406 0.47728382999511476 0.5026868588177822
0.2648831249998693 0.4763067904250122 0.5065950170981925
0.2651157499999499 0.4733756717147044 0.5114802149487054
0.265348430999893 0.46946751343429405 0.512457254518808
0.26556968599970787 0.467513434294089 0.5105031753786029
0.2657958109998617 0.4655593551538837 0.5056179775280898
0.2660108989998662 0.4665363947239862 0.5056179775280898
0.2662378769996394 0.46458231558378116 0.5065950170981925
0.2664610580000044 0.4753297508549097 0.5036638983878847
0.2666897939998307 0.4831460674157304 0.5075720566682951
0.2670010289998572 0.4811919882755251 0.5085490962383976
0.26728844899980686 0.4948705422569615 0.5105031753786029
0.2675643519996811 0.5026868588177822 0.5114802149487054
0.26781638399961594 0.5026868588177822 0.5105031753786029
0.26809980399957567 0.5046409379579873 0.5105031753786029
0.26838800299992727 0.5134342940889105 0.5017098192476794
0.2686648859998968 0.5153883732291158 0.5026868588177822
0.2689282519995686 0.5046409379579873 0.49877870053737183
0.2691581179997229 0.512457254518808 0.48705422569614076
0.2694815929999095 0.5036638983878847 0.4811919882755251
0.269758568999805 0.5105031753786029 0.4763067904250122
0.2700140829997508 0.5085490962383976 0.4802149487054226
0.2703128549997018 0.5085490962383976 0.4851001465559355
0.2705461839996133 0.5046409379579873 0.486077186126038
0.2707776429997466 0.5036638983878847 0.48900830483634583
0.2710613599997487 0.5026868588177822 0.495847581827064
0.27129498499971305 0.4978016609672691 0.4851001465559355
0.27151331400000345 0.49682462139716654 0.49193942354665365
0.2717123839997839 0.4938935026868587 0.4909623839765511
0.2719091769999977 0.4948705422569615 0.48998534440644836
0.272105413999725 0.4929164631167562 0.4880312652662433
0.27229624399979 0.49682462139716654 0.49193942354665365
0.27249914699996225 0.495847581827064 0.48705422569614076
0.2726921069997843 0.5007327796775769 0.48216902784562765
0.2728856399999131 0.5017098192476794 0.4851001465559355
0.27307883999992555 0.49682462139716654 0.48412310698583294
0.2732760959997904 0.495847581827064 0.4811919882755251
0.2734744989998035 0.4948705422569615 0.4811919882755251
0.27373308699998233 0.4880312652662433 0.4763067904250122
0.27404337699999815 0.48998534440644836 0.47435271128480694
0.27427389199965546 0.48900830483634583 0.47728382999511476
0.2747284009997202 0.49193942354665365 0.47435271128480694
0.274991007999688 0.495847581827064 0.4763067904250122
0.2752094659999784 0.49877870053737183 0.4782608695652173
0.27541744399968593 0.5026868588177822 0.47239863214460187
0.275641087999702 0.5095261358085001 0.47435271128480694
0.2758643059996757 0.5114802149487054 0.47142159257449934
0.27617822599995634 0.5085490962383976 0.47142159257449934
0.27641781399961474 0.5085490962383976 0.4733756717147044
0.2766514019999704 0.5056179775280898 0.4655593551538837
0.27686852799979533 0.5134342940889105 0.4636052760136786
0.2770888009999908 0.5065950170981925 0.45969711773326827
0.27732574099991325 0.5046409379579873 0.4557889594528579
0.2775479959996119 0.5017098192476794 0.457743038593063
0.2777746589999879 0.49682462139716654 0.4606741573033708
0.2779931919999399 0.49193942354665365 0.46165119687347334
0.27821559499989235 0.48412310698583294 0.4733756717147044
0.27843557199958013 0.47728382999511476 0.47142159257449934
0.27864834599995447 0.4753297508549097 0.4763067904250122
0.2789941729997736 0.4665363947239862 0.4753297508549097
0.27922442799990677 0.46165119687347334 0.4763067904250122
0.27946305299974483 0.4655593551538837 0.4811919882755251
0.2797646399999394 0.46165119687347334 0.49682462139716654
0.2802350569995724 0.4655593551538837 0.4938935026868587
0.28046888599965314 0.47142159257449934 0.49682462139716654
0.28069895499993436 0.46946751343429405 0.5065950170981925
0.28096735799999806 0.4684904738641915 0.5075720566682951
0.28121585299959406 0.46262823644357587 0.5085490962383976
0.2814502189999075 0.4655593551538837 0.5163654127992183
0.2816771959996913 0.47142159257449934 0.5251587689301416
0.2819045439996444 0.4655593551538837 0.5202735710796287
0.28214826099974744 0.4733756717147044 0.522227650219834
0.2823673869997947 0.4763067904250122 0.5300439667806547
0.28258764199972575 0.4811919882755251 0.522227650219834
0.28286196999988533 0.4851001465559355 0.5153883732291158
0.2830916689999867 0.4909623839765511 0.5095261358085001
0.28331833199990797 0.4978016609672691 0.5026868588177822
0.2835373829998389 0.5007327796775769 0.5007327796775769
0.2837628969996331 0.5026868588177822 0.5007327796775769
0.28398022699957437 0.5017098192476794 0.49877870053737183
0.284210869999697 0.4978016609672691 0.49975574010747437
0.28445079199991596 0.5017098192476794 0.49975574010747437
0.2846695839998574 0.4929164631167562 0.5085490962383976
0.2848973019999903 0.48705422569614076 0.5026868588177822
0.28512709399956293 0.4880312652662433 0.49975574010747437
0.28541432899965 0.4851001465559355 0.4978016609672691
0.2856360469995707 0.4802149487054226 0.5026868588177822
0.2858449139998811 0.48705422569614076 0.49975574010747437
0.28608189099986703 0.49193942354665365 0.5017098192476794
0.2863059979999889 0.5007327796775769 0.5046409379579873
0.2865560669997649 0.49877870053737183 0.5114802149487054
0.28676837799957866 0.4978016609672691 0.5105031753786029
0.28702472499981013 0.4978016609672691 0.5036638983878847
0.28722625799991874 0.49193942354665365 0.5105031753786029
0.2874276619995726 0.4909623839765511 0.5065950170981925
0.2876216389995534 0.48705422569614076 0.5017098192476794
0.2878270239998528 0.49193942354665365 0.49877870053737183
0.2880439089999527 0.4880312652662433 0.4948705422569615
0.28827907099957883 0.4802149487054226 0.4948705422569615
0.2885065669997857 0.4909623839765511 0.4909623839765511
0.28870663699990473 0.48216902784562765 0.4909623839765511
0.28890515199964284 0.4831460674157304 0.4880312652662433
0.2891020929996557 0.4811919882755251 0.486077186126038
0.28929794099985884 0.4811919882755251 0.486077186126038
0.28949008599965964 0.48216902784562765 0.48705422569614076
0.2897881719995894 0.48900830483634583 0.4851001465559355
0.28998655799978224 0.49193942354665365 0.48412310698583294
0.2901810169996679 0.4929164631167562 0.48900830483634583
0.2903827539998929 0.49877870053737183 0.48216902784562765
0.29058013899975776 0.4929164631167562 0.4811919882755251
0.29077674599966485 0.495847581827064 0.4802149487054226
0.29102338999973654 0.4978016609672691 0.4831460674157304
0.2912207379999927 0.5007327796775769 0.4811919882755251
0.2914145679997091 0.49877870053737183 0.49193942354665365
0.2916094339998381 0.5046409379579873 0.48900830483634583
0.29180493099966043 0.5017098192476794 0.4880312652662433
0.29199711199999 0.5017098192476794 0.4938935026868587
0.2921944419999818 0.5095261358085001 0.4909623839765511
0.29238814199970875 0.5056179775280898 0.4929164631167562
0.29258300899982714 0.5056179775280898 0.48900830483634583
0.29277944899968134 0.512457254518808 0.4929164631167562
0.2930459629997131 0.5056179775280898 0.4851001465559355
0.2932668849998663 0.5163654127992183 0.49193942354665365
0.2935055099997044 0.5134342940889105 0.48705422569614076
0.29375176399980774 0.5144113336590133 0.48412310698583294
0.2939737229999082 0.5144113336590133 0.4880312652662433
0.2941855339995527 0.5144113336590133 0.49682462139716654
0.2943945479996728 0.5105031753786029 0.495847581827064
0.2946380989997124 0.5046409379579873 0.4929164631167562
0.29494013099974836 0.49975574010747437 0.48900830483634583
0.295213106999654 0.495847581827064 0.48705422569614076
0.29558537799994156 0.486077186126038 0.4763067904250122
0.2959380190000047 0.47728382999511476 0.4763067904250122
0.2962014959998669 0.4704445530043966 0.47728382999511476
0.29645634299959056 0.467513434294089 0.48216902784562765
0.2966934679998303 0.4704445530043966 0.48412310698583294
0.29693305599994346 0.47239863214460187 0.4831460674157304
0.2971472369999901 0.48412310698583294 0.48705422569614076
0.2973781399996369 0.4851001465559355 0.4851001465559355
0.297630671999741 0.4938935026868587 0.48900830483634583
0.2979025559998263 0.4978016609672691 0.4851001465559355
0.29816636599980484 0.5017098192476794 0.4851001465559355
0.2984334719999424 0.5017098192476794 0.48900830483634583
0.2986889489998248 0.49975574010747437 0.48412310698583294
0.2991398849999314 0.4909623839765511 0.4851001465559355
0.29948797099996227 0.48216902784562765 0.4811919882755251
0.2997318729999279 0.4851001465559355 0.4811919882755251
0.29997833199968227 0.4665363947239862 0.47923790913532005
0.30019141999991916 0.4636052760136786 0.48216902784562765
0.30040973099994517 0.4606741573033708 0.49193942354665365
0.30061635699985345 0.45676599902296044 0.4909623839765511
0.3008158529996763 0.457743038593063 0.4948705422569615
0.3010108489997947 0.46165119687347334 0.49682462139716654
0.3012045489999764 0.4684904738641915 0.4938935026868587
0.30140095299975656 0.47435271128480694 0.49193942354665365
0.30159726399961073 0.48412310698583294 0.4909623839765511
0.3017925379999724 0.4880312652662433 0.4948705422569615
0.30199197899992214 0.495847581827064 0.5026868588177822
0.30219249399988257 0.5085490962383976 0.4978016609672691
0.30243632199972126 0.5017098192476794 0.495847581827064
0.30266516999972737 0.4978016609672691 0.49682462139716654
0.3028742959995725 0.4938935026868587 0.49975574010747437
0.30306856999959564 0.48705422569614076 0.5007327796775769
0.303264917999968 0.47728382999511476 0.495847581827064
0.3034647839999707 0.47435271128480694 0.49975574010747437
0.30365787299979274 0.47435271128480694 0.495847581827064
0.30386542499991265 0.4763067904250122 0.49682462139716654
0.30408856899975945 0.47923790913532005 0.49877870053737183
0.3042970839996997 0.4851001465559355 0.49975574010747437
0.30449280199991335 0.48705422569614076 0.4978016609672691
0.3046874649999154 0.5007327796775769 0.5007327796775769
0.304884034999759 0.4948705422569615 0.495847581827064
0.3050785129998985 0.49975574010747437 0.4978016609672691
0.3052713609999955 0.5056179775280898 0.4929164631167562
0.3054730799999561 0.49975574010747437 0.4948705422569615
0.3056682059996092 0.5007327796775769 0.49682462139716654
0.305861738999738 0.5026868588177822 0.49682462139716654
0.3060528279997925 0.5046409379579873 0.4978016609672691
0.30624834299987924 0.5056179775280898 0.49682462139716654
0.306440468999881 0.5017098192476794 0.49877870053737183
0.3066318909995971 0.5056179775280898 0.49682462139716654
0.30683772099973794 0.5065950170981925 0.49975574010747437
0.3070322169996871 0.5036638983878847 0.49877870053737183
0.3072235469999214 0.5036638983878847 0.5017098192476794
0.3074162279999655 0.495847581827064 0.5017098192476794
0.3077010379997773 0.4948705422569615 0.495847581827064
0.30791518199976053 0.48998534440644836 0.5026868588177822
0.3081078819996037 0.48900830483634583 0.49193942354665365
0.3083001379995949 0.4851001465559355 0.4929164631167562
0.30850755999972534 0.48216902784562765 0.4938935026868587
0.30870516699997097 0.4811919882755251 0.4831460674157304
0.30889957099998355 0.47923790913532005 0.4851001465559355
0.30909786299980624 0.4763067904250122 0.4880312652662433
0.3092929889999141 0.4763067904250122 0.47923790913532005
0.3095301699995616 0.47923790913532005 0.47923790913532005
0.3097259439996378 0.4782608695652173 0.4782608695652173
0.3099187739999252 0.4811919882755251 0.48412310698583294
0.3101121769996098 0.48705422569614076 0.47728382999511476
0.31030609999970693 0.48900830483634583 0.4753297508549097
0.31050176299959276 0.4880312652662433 0.4811919882755251
0.3106938889995945 0.48998534440644836 0.4763067904250122
0.31105019699998593 0.495847581827064 0.495847581827064
0.3112508969998089 0.5007327796775769 0.48412310698583294
0.3114593559998866 0.5046409379579873 0.486077186126038
0.31170075799991537 0.5075720566682951 0.4929164631167562
0.31194125399997574 0.5095261358085001 0.49877870053737183
0.3121949709998262 0.5017098192476794 0.4978016609672691
0.31239517099993463 0.5065950170981925 0.5036638983878847
0.3125921859996197 0.5007327796775769 0.495847581827064
0.31281145999992077 0.5085490962383976 0.4978016609672691
0.3130046409996794 0.5026868588177822 0.49975574010747437
0.31320354499985115 0.5046409379579873 0.48998534440644836
0.31339970799990624 0.5085490962383976 0.4948705422569615
0.31359012999973856 0.5085490962383976 0.486077186126038
0.3137818859995605 0.5144113336590133 0.4880312652662433
0.3139772339995943 0.5144113336590133 0.48216902784562765
0.3141666559999976 0.522227650219834 0.48216902784562765
0.3143679489999158 0.5163654127992183 0.4763067904250122
0.3145629639998333 0.512457254518808 0.4753297508549097
0.31475301599994054 0.5095261358085001 0.4851001465559355
0.3149824929996612 0.4948705422569615 0.48216902784562765
0.3152688389996001 0.4811919882755251 0.4831460674157304
0.3154588729998977 0.4684904738641915 0.4929164631167562
0.3156576649998897 0.4587200781631655 0.48705422569614076
0.31585023599973283 0.4509037616023448 0.48900830483634583
0.31604202799962877 0.45481191988275516 0.4929164631167562
0.31622972799959825 0.45188080117244755 0.48998534440644836
0.3164188539999486 0.44992672203224227 0.48900830483634583
0.3166131289999612 0.45481191988275516 0.48998534440644836
0.3168031989998781 0.46262823644357587 0.48998534440644836
0.3169966029995521 0.46458231558378116 0.4880312652662433
0.31718969199982894 0.4684904738641915 0.4880312652662433
0.31737790999977733 0.47435271128480694 0.4880312652662433
0.3175683879999269 0.4782608695652173 0.4851001465559355
0.3177650329998869 0.48216902784562765 0.486077186126038
0.3179546959995605 0.4851001465559355 0.4851001465559355
0.31815128499965795 0.48705422569614076 0.49193942354665365
0.3183434849997866 0.49682462139716654 0.4880312652662433
0.31854468499977884 0.48705422569614076 0.4909623839765511
0.3187402179996752 0.48412310698583294 0.4948705422569615
0.3189721769999778 0.4909623839765511 0.495847581827064
0.31917728399957923 0.4831460674157304 0.5017098192476794
0.3193718539996553 0.4811919882755251 0.5017098192476794
0.31956557299963606 0.4802149487054226 0.5065950170981925
0.31975775399996564 0.4831460674157304 0.5007327796775769
0.3199494909999885 0.47923790913532005 0.5026868588177822
0.3201818389998152 0.4831460674157304 0.49682462139716654
0.3203816679997544 0.4938935026868587 0.5017098192476794
0.3205843679997997 0.4880312652662433 0.49682462139716654
0.32078780899973935 0.4938935026868587 0.4938935026868587
0.3210233419999895 0.4909623839765511 0.5007327796775769
0.3212392999998883 0.48998534440644836 0.4929164631167562
0.32145727799979795 0.4938935026868587 0.495847581827064
0.3216714399995908 0.4938935026868587 0.49193942354665365
0.3218726219997734 0.4948705422569615 0.495847581827064
0.3220679329997438 0.495847581827064 0.49975574010747437
0.3222639479999998 0.4929164631167562 0.5046409379579873
0.32246153699998104 0.495847581827064 0.5046409379579873
0.32265666299963414 0.4938935026868587 0.5095261358085001
0.32285212199985835 0.4938935026868587 0.5026868588177822
0.32305104399983975 0.4948705422569615 0.5095261358085001
0.323247280999567 0.49193942354665365 0.49975574010747437
0.3234674059999634 0.48998534440644836 0.5026868588177822
0.32366505099980714 0.4851001465559355 0.5065950170981925
0.3238602319997881 0.48412310698583294 0.5007327796775769
0.32417802299960385 0.48216902784562765 0.5065950170981925
0.32438666699999885 0.48412310698583294 0.5056179775280898
0.32458327399990594 0.4851001465559355 0.5017098192476794
0.32477847399968596 0.4851001465559355 0.5046409379579873
0.32497234099992056 0.4880312652662433 0.5007327796775769
0.3251650229999541 0.48998534440644836 0.5075720566682951
0.32537079599978824 0.49193942354665365 0.49877870053737183
0.32557027399980143 0.4909623839765511 0.49975574010747437
0.32576378899966585 0.4929164631167562 0.49877870053737183
0.32595756299997447 0.49193942354665365 0.5017098192476794
0.3262088550000044 0.4929164631167562 0.5007327796775769
0.32643659099994693 0.4929164631167562 0.5007327796775769
0.32665771699976176 0.4938935026868587 0.5007327796775769
0.3269261369996457 0.49975574010747437 0.49975574010747437
0.3271526699995775 0.5085490962383976 0.49877870053737183
0.32736364799984585 0.5065950170981925 0.4938935026868587
0.3275706069998705 0.5046409379579873 0.4929164631167562
0.3277911579998545 0.5114802149487054 0.48998534440644836
0.3280246719996285 0.4978016609672691 0.49193942354665365
0.32823946399958004 0.5026868588177822 0.486077186126038
0.3284970709996742 0.49193942354665365 0.48412310698583294
0.32877710200000365 0.4909623839765511 0.48900830483634583
0.32903893099955894 0.4929164631167562 0.47923790913532005
0.32931186999985584 0.49877870053737183 0.48705422569614076
0.3295823279995602 0.49975574010747437 0.4811919882755251
0.3298965069998303 0.5105031753786029 0.4802149487054226
0.33020324199969764 0.5232046897899365 0.486077186126038
0.33049677399958455 0.5105031753786029 0.4851001465559355
0.3307794159995865 0.5056179775280898 0.4831460674157304
0.33106561499971576 0.4938935026868587 0.48705422569614076
0.3312977399996271 0.4811919882755251 0.4880312652662433
0.33152860599966516 0.4733756717147044 0.48412310698583294
0.33175034299983963 0.4665363947239862 0.4831460674157304
0.3319880419999208 0.4587200781631655 0.48412310698583294
0.33226153699979477 0.45676599902296044 0.4811919882755251
0.33251303199995164 0.4557889594528579 0.486077186126038
0.3327853039995716 0.45969711773326827 0.4811919882755251
0.33308885399992505 0.47239863214460187 0.48216902784562765
0.33334807199980787 0.47923790913532005 0.48216902784562765
0.3336764169998787 0.49682462139716654 0.4880312652662433
0.33393402399997285 0.5075720566682951 0.486077186126038
0.3341999809999834 0.5105031753786029 0.486077186126038
0.334442050999769 0.5153883732291158 0.48705422569614076
0.3346661949999543 0.5046409379579873 0.48705422569614076
0.33492337499956193 0.5036638983878847 0.48412310698583294
0.3351461859997471 0.5017098192476794 0.48412310698583294
0.3353511999998773 0.5056179775280898 0.486077186126038
0.3355484189996787 0.5026868588177822 0.48705422569614076
0.3357406379996064 0.49975574010747437 0.4811919882755251
0.3359478559996205 0.5007327796775769 0.4880312652662433
0.3361386489996221 0.5056179775280898 0.4811919882755251
0.33633168199958163 0.5026868588177822 0.4811919882755251
0.3365260859995942 0.49877870053737183 0.4782608695652173
0.3367227489998186 0.5026868588177822 0.486077186126038
0.33691439299991544 0.49193942354665365 0.486077186126038
0.3371067779999066 0.486077186126038 0.49682462139716654
0.33732616299994334 0.4802149487054226 0.49193942354665365
0.337531547999788 0.47239863214460187 0.4938935026868587
0.337724710999737 0.467513434294089 0.4948705422569615
0.33792781799957083 0.47239863214460187 0.49682462139716654
0.3381254999999328 0.46458231558378116 0.49682462139716654
0.3383191069997338 0.4655593551538837 0.4948705422569615
0.3385111039997355 0.467513434294089 0.4948705422569615
0.3387068779998117 0.47239863214460187 0.5007327796775769
0.33894466999981887 0.4802149487054226 0.49682462139716654
0.33914227699960975 0.48412310698583294 0.495847581827064
0.33933675499974925 0.495847581827064 0.49975574010747437
0.33953513999995266 0.5017098192476794 0.4938935026868587
0.3397272659999544 0.5114802149487054 0.48998534440644836
0.3399198729998716 0.5163654127992183 0.4909623839765511
0.34011405499995817 0.524181729360039 0.48998534440644836
0.3403054769996743 0.5251587689301416 0.486077186126038
0.340520491999996 0.5251587689301416 0.486077186126038
0.34072096899990356 0.5232046897899365 0.486077186126038
0.3409146509998209 0.5329750854909623 0.48900830483634583
0.34110922099989693 0.522227650219834 0.48705422569614076
0.34131514299997434 0.5163654127992183 0.4929164631167562
0.3415144169998712 0.5105031753786029 0.4851001465559355
0.3417134509995776 0.5036638983878847 0.4851001465559355
0.3419059649995688 0.4978016609672691 0.48412310698583294
0.34209814699988783 0.48900830483634583 0.5026868588177822
0.3422923099997206 0.48412310698583294 0.4929164631167562
0.3424871579995852 0.4831460674157304 0.495847581827064
0.34268341399956626 0.46946751343429405 0.5046409379579873
0.3429417609995653 0.46458231558378116 0.5046409379579873
0.3431351269996412 0.46262823644357587 0.5075720566682951
0.34333010499995 0.45481191988275516 0.5144113336590133
0.3435232499996346 0.45188080117244755 0.5056179775280898
0.34371428299982654 0.44699560332193444 0.5046409379579873
0.34393670499957807 0.4430874450415241 0.512457254518808
0.34413618299959126 0.4460185637518319 0.49975574010747437
0.34433377099958307 0.4401563263312165 0.49877870053737183
0.34452571199972226 0.4538348803126526 0.4948705422569615
0.34471724599961817 0.45188080117244755 0.4929164631167562
0.3449136679996627 0.4587200781631655 0.4948705422569615
0.34510996099970725 0.4587200781631655 0.4929164631167562
0.3453007719999732 0.46165119687347334 0.4978016609672691
0.3455022309999549 0.46946751343429405 0.49193942354665365
0.3457180789996528 0.46262823644357587 0.4938935026868587
0.3459549449999031 0.4665363947239862 0.495847581827064
0.34619723599962526 0.47142159257449934 0.5065950170981925
0.3464232319997791 0.47239863214460187 0.5017098192476794
0.346638227999847 0.47923790913532005 0.5046409379579873
0.34684563099972365 0.4811919882755251 0.5085490962383976
0.3470446829996945 0.48412310698583294 0.512457254518808
0.3472385309996753 0.48705422569614076 0.5105031753786029
0.3474381389996779 0.48900830483634583 0.512457254518808
0.3476312829998278 0.48900830483634583 0.5173424523693209
0.34782535399972403 0.49682462139716654 0.5105031753786029
0.3480240539997794 0.495847581827064 0.5075720566682951
0.34822114199960197 0.49682462139716654 0.5046409379579873
0.3484128239997517 0.5007327796775769 0.5095261358085001
0.3486035799996898 0.49975574010747437 0.5017098192476794
0.3488177419999374 0.5144113336590133 0.5007327796775769
0.34902440499990917 0.5134342940889105 0.4978016609672691
0.3492194379996363 0.5095261358085001 0.49877870053737183
0.3494345269996302 0.5095261358085001 0.49877870053737183
0.3496395419997498 0.5075720566682951 0.495847581827064
0.3498328529999526 0.5085490962383976 0.4938935026868587
0.35002695999992284 0.5192965315095261 0.4929164631167562
0.3502186789996813 0.512457254518808 0.48998534440644836
0.35041217499974664 0.5202735710796287 0.4851001465559355
0.35073109499990096 0.5114802149487054 0.4802149487054226
0.3509559609997268 0.5114802149487054 0.4811919882755251
0.3511486239999613 0.5085490962383976 0.48998534440644836
0.3513408979997621 0.5085490962383976 0.48900830483634583
0.351535820999743 0.5134342940889105 0.4802149487054226
0.35174070599987317 0.5065950170981925 0.48705422569614076
0.3519388499998968 0.5114802149487054 0.47923790913532005
0.3521333829999094 0.5085490962383976 0.48900830483634583
0.3523274539998056 0.5095261358085001 0.4880312652662433
0.3525225059997865 0.5056179775280898 0.48705422569614076
0.3527137429996401 0.5026868588177822 0.48216902784562765
0.3529059609995784 0.5017098192476794 0.4929164631167562
0.3530976979996012 0.5007327796775769 0.4938935026868587
0.35329952799975217 0.49682462139716654 0.48705422569614076
0.35349407999956384 0.49682462139716654 0.49193942354665365
0.35369024299961893 0.4938935026868587 0.4909623839765511
0.35396386699994764 0.495847581827064 0.49193942354665365
0.35417964099997334 0.49193942354665365 0.48412310698583294
0.35438508199968055 0.4929164631167562 0.4851001465559355
0.35458059599977787 0.48998534440644836 0.49193942354665365
0.35477177799975834 0.48900830483634583 0.48412310698583294
0.35498962599967854 0.4831460674157304 0.4929164631167562
0.35520682499964096 0.4851001465559355 0.4831460674157304
0.35542230299961375 0.49193942354665365 0.4802149487054226
0.35562168799970095 0.4851001465559355 0.48412310698583294
0.35581477699997777 0.48705422569614076 0.48216902784562765
0.3560078839996095 0.48412310698583294 0.4782608695652173
0.3562251759999526 0.4880312652662433 0.4763067904250122
0.3564168949997111 0.48900830483634583 0.4802149487054226
0.35661090999974476 0.4831460674157304 0.4802149487054226
0.3568137389997901 0.48705422569614076 0.4811919882755251
0.35700775399982376 0.4851001465559355 0.48900830483634583
0.35719876899975134 0.4851001465559355 0.4811919882755251
0.3574400419997801 0.4831460674157304 0.48705422569614076
0.35766468599967993 0.4811919882755251 0.495847581827064
0.3578581829997347 0.4831460674157304 0.486077186126038
0.3580513269998846 0.4851001465559355 0.4909623839765511
0.35826593399997364 0.495847581827064 0.48998534440644836
0.35845881899967935 0.4880312652662433 0.486077186126038
0.3586497969999982 0.49975574010747437 0.48900830483634583
0.3588432199999261 0.49682462139716654 0.4880312652662433
0.359034789999896 0.5046409379579873 0.49193942354665365
0.359222767999654 0.5065950170981925 0.48705422569614076
0.35944392999999764 0.5046409379579873 0.48412310698583294
0.3596956479996152 0.5075720566682951 0.4802149487054226
0.35989382899970224 0.5085490962383976 0.48216902784562765
0.36009139999987383 0.5056179775280898 0.4851001465559355
0.3603035439996347 0.49682462139716654 0.4851001465559355
0.3605026509999334 0.4880312652662433 0.48216902784562765
0.3607126659999267 0.48216902784562765 0.48900830483634583
0.36095591999992394 0.4753297508549097 0.4929164631167562
0.36118745299972943 0.47142159257449934 0.4938935026868587
0.36139055999956327 0.4733756717147044 0.4938935026868587
0.3615917789998093 0.47142159257449934 0.4948705422569615
0.3618162189995928 0.4763067904250122 0.49877870053737183
0.36202982599979805 0.48216902784562765 0.5056179775280898
0.36226087699969867 0.486077186126038 0.5105031753786029
0.3625389459998587 0.4880312652662433 0.5114802149487054
0.3627784409995911 0.486077186126038 0.5163654127992183
0.36325713599990195 0.486077186126038 0.5183194919394236
0.3635464639996826 0.4811919882755251 0.5144113336590133
0.363994566999736 0.48900830483634583 0.4938935026868587
0.36442020699996647 0.4938935026868587 0.4948705422569615
0.364673942999616 0.5036638983878847 0.48705422569614076
0.36489953099999184 0.5046409379579873 0.4880312652662433
0.3651113969999642 0.4978016609672691 0.4938935026868587
0.3653641329997299 0.48998534440644836 0.4978016609672691
0.3655905549999261 0.4831460674157304 0.49193942354665365
0.36578256999973746 0.47435271128480694 0.49193942354665365
0.3659760849996019 0.4802149487054226 0.4938935026868587
0.3661751549998371 0.4704445530043966 0.4929164631167562
0.36637050299987095 0.4763067904250122 0.49975574010747437
0.3665624629998092 0.4733756717147044 0.49975574010747437
0.3667585329999383 0.4763067904250122 0.5007327796775769
0.36697104699987904 0.4909623839765511 0.5026868588177822
0.3671677469997121 0.486077186126038 0.5017098192476794
0.36736333599992577 0.48998534440644836 0.5026868588177822
0.3675814619996345 0.495847581827064 0.5114802149487054
0.3677766989999327 0.48900830483634583 0.5036638983878847
0.36797106599988183 0.48900830483634583 0.5046409379579873
0.3681891909996011 0.4929164631167562 0.4978016609672691
0.368405538999923 0.48900830483634583 0.4938935026868587
0.36873662499965576 0.48900830483634583 0.48705422569614076
0.36900039799957085 0.4909623839765511 0.4811919882755251
0.3692556149999291 0.4938935026868587 0.4831460674157304
0.36954294299994217 0.5017098192476794 0.48705422569614076
0.36983465999992404 0.5046409379579873 0.4880312652662433
0.3701082289999249 0.5036638983878847 0.4978016609672691
0.3703462059997946 0.5075720566682951 0.5065950170981925
0.3705794419997801 0.49877870053737183 0.495847581827064
0.3708595299999615 0.5007327796775769 0.4948705422569615
0.37112756199985597 0.49975574010747437 0.495847581827064
0.3713764829999491 0.49877870053737183 0.48998534440644836
0.37159971899973243 0.5065950170981925 0.4811919882755251
0.3718537509998896 0.5192965315095261 0.47923790913532005
0.3720737469998312 0.5319980459208598 0.4753297508549097
0.37229465099972003 0.5349291646311676 0.4704445530043966
0.3724873509995632 0.5398143624816805 0.46946751343429405
0.3726808279998295 0.540791402051783 0.4733756717147044
0.37287556599994787 0.5378602833414754 0.4753297508549097
0.3730677469998227 0.5261358085002443 0.47239863214460187
0.3732599099998879 0.5144113336590133 0.4733756717147044
0.37344955499975185 0.5026868588177822 0.4763067904250122
0.37364003299990145 0.4938935026868587 0.4782608695652173
0.37383725099971343 0.486077186126038 0.4733756717147044
0.3740285989997574 0.4733756717147044 0.4763067904250122
0.3742204289997062 0.47142159257449934 0.4704445530043966
0.3744133879999936 0.4733756717147044 0.47142159257449934
0.3746042369998577 0.4753297508549097 0.48216902784562765
0.3748250469998311 0.48705422569614076 0.47728382999511476
0.37502470999970683 0.48412310698583294 0.4704445530043966
0.3752161879997402 0.48216902784562765 0.4733756717147044
0.3754335729995546 0.48412310698583294 0.47728382999511476
0.3756311059996733 0.4811919882755251 0.47435271128480694
0.3758598799995525 0.47923790913532005 0.4782608695652173
0.37608963399998174 0.47239863214460187 0.4782608695652173
0.3762913529999423 0.47728382999511476 0.4811919882755251
0.37648455299995476 0.47239863214460187 0.47728382999511476
0.3766995489995679 0.46946751343429405 0.4851001465559355
0.3768989899999724 0.46946751343429405 0.4802149487054226
0.3771187999996073 0.46946751343429405 0.48412310698583294
0.3773123519999899 0.4782608695652173 0.48900830483634583
0.3775038849998964 0.47728382999511476 0.4948705422569615
0.37769475199957014 0.47923790913532005 0.49682462139716654
0.3778933229996255 0.47923790913532005 0.5046409379579873
0.378089947999797 0.48216902784562765 0.5017098192476794
0.37828579699998954 0.48705422569614076 0.5036638983878847
0.3784842369996113 0.4909623839765511 0.5046409379579873
0.3786758079995707 0.5026868588177822 0.5046409379579873
0.37889784099979806 0.4851001465559355 0.5114802149487054
0.3791865569996844 0.4909623839765511 0.5026868588177822
0.3794196459998602 0.48705422569614076 0.4978016609672691
0.3796588629998041 0.48216902784562765 0.5046409379579873
0.3798916369996732 0.47728382999511476 0.49682462139716654
0.3801185579995945 0.4802149487054226 0.4938935026868587
0.3803306279996832 0.47239863214460187 0.48900830483634583
0.3805454209996242 0.4753297508549097 0.49682462139716654
0.3807847679995575 0.46165119687347334 0.5007327796775769
0.38100367099968935 0.4606741573033708 0.4909623839765511
0.3812250929995571 0.4587200781631655 0.4938935026868587
0.3818636359997072 0.4811919882755251 0.49975574010747437
0.38215268699968874 0.4948705422569615 0.5036638983878847
0.3823777559996415 0.512457254518808 0.4978016609672691
0.3827563969998664 0.5183194919394236 0.5007327796775769
0.3830717989999357 0.5075720566682951 0.49877870053737183
0.383330052999554 0.5144113336590133 0.48998534440644836
0.38357743699998537 0.5075720566682951 0.4929164631167562
0.3839649489996191 0.5007327796775769 0.48998534440644836
0.38423859199974686 0.5007327796775769 0.4978016609672691
0.3844843829997444 0.495847581827064 0.49877870053737183
0.3847143049997612 0.5065950170981925 0.495847581827064
0.38493026399964947 0.4978016609672691 0.49877870053737183
0.3851496849997602 0.5065950170981925 0.5036638983878847
0.38536412599978576 0.5075720566682951 0.5065950170981925
0.3855593809998936 0.5017098192476794 0.5075720566682951
0.3857798770000045 0.5026868588177822 0.5105031753786029
0.38597544799995376 0.49877870053737183 0.5046409379579873
0.3861710179999136 0.49975574010747437 0.5026868588177822
0.38636736599983124 0.49193942354665365 0.5007327796775769
0.3865625479998016 0.4880312652662433 0.4978016609672691
0.3867567109996344 0.48705422569614076 0.49682462139716654
0.3869646329999341 0.4802149487054226 0.4929164631167562
0.38720583199983594 0.4851001465559355 0.5007327796775769
0.387400623999838 0.47435271128480694 0.49682462139716654
0.38759336199973404 0.4782608695652173 0.49682462139716654
0.38779680199968425 0.4831460674157304 0.495847581827064
0.38801555699956225 0.4851001465559355 0.5007327796775769
0.3882386269997369 0.48412310698583294 0.4948705422569615
0.3884582339996996 0.4948705422569615 0.4938935026868587
0.3887028780000037 0.49975574010747437 0.4929164631167562
0.389055592999739 0.4929164631167562 0.49193942354665365
0.38927088499985985 0.4929164631167562 0.49877870053737183
0.3894731039999897 0.49682462139716654 0.4929164631167562
0.38966709999976956 0.49877870053737183 0.48900830483634583
0.38986285599958137 0.4938935026868587 0.49682462139716654
0.3900564449995727 0.495847581827064 0.48998534440644836
0.39025305199993454 0.4909623839765511 0.48900830483634583
0.3904462339996826 0.48998534440644836 0.48900830483634583
0.390648766999675 0.4909623839765511 0.48412310698583294
0.39085163299978376 0.49193942354665365 0.48216902784562765
0.3910537039996598 0.49682462139716654 0.48216902784562765
0.39126110699999117 0.4938935026868587 0.4802149487054226
0.39148723199969027 0.49877870053737183 0.4782608695652173
0.391698857999927 0.49975574010747437 0.47923790913532005
0.39189589099987643 0.49682462139716654 0.48216902784562765
0.3920917769996777 0.49975574010747437 0.4733756717147044
0.3922859019999123 0.4948705422569615 0.4802149487054226
0.39248317699957624 0.495847581827064 0.48412310698583294
0.39270904299974063 0.49193942354665365 0.4811919882755251
0.39290853899956346 0.4938935026868587 0.4811919882755251
0.3931046279999464 0.49193942354665365 0.4880312652662433
0.3932962719995885 0.4909623839765511 0.4831460674157304
0.3934869719996641 0.48900830483634583 0.4851001465559355
0.39367978399968706 0.4909623839765511 0.48900830483634583
0.39387629799966817 0.48705422569614076 0.49193942354665365
0.39407064699980765 0.48705422569614076 0.4909623839765511
0.3942661239998415 0.48900830483634583 0.49193942354665365
0.3944708979997813 0.4880312652662433 0.4929164631167562
0.3946687650000058 0.49682462139716654 0.4880312652662433
0.39492764899978283 0.512457254518808 0.486077186126038
0.3951552929997888 0.5095261358085001 0.48998534440644836
0.39535199299962187 0.512457254518808 0.48216902784562765
0.39555685899995296 0.5192965315095261 0.49193942354665365
0.3957580589999452 0.5183194919394236 0.4782608695652173
0.39597448099993926 0.5183194919394236 0.4782608695652173
0.39616927399993074 0.5192965315095261 0.4811919882755251
0.3963746029999129 0.5192965315095261 0.486077186126038
0.3965725619996192 0.5144113336590133 0.486077186126038
0.3967659099998855 0.5183194919394236 0.4880312652662433
0.39695775899963337 0.5144113336590133 0.486077186126038
0.39715138499968816 0.5134342940889105 0.48705422569614076
0.3973474549998173 0.5065950170981925 0.4811919882755251
0.3975471919998199 0.5036638983878847 0.48705422569614076
0.39774509599965313 0.5065950170981925 0.49193942354665365
0.3979395729998032 0.4948705422569615 0.48705422569614076
0.3981333659999109 0.49877870053737183 0.495847581827064
0.3983249739999337 0.4880312652662433 0.4929164631167562
0.3985174879999249 0.4880312652662433 0.49877870053737183
0.3987104659995566 0.486077186126038 0.49877870053737183
0.39901181199957136 0.48705422569614076 0.495847581827064
0.3992097159998593 0.48216902784562765 0.4938935026868587
0.39940623099982986 0.48705422569614076 0.4909623839765511
0.399679262999598 0.4763067904250122 0.4938935026868587
0.39987344399969516 0.47142159257449934 0.48705422569614076
0.40007444099956047 0.4665363947239862 0.48900830483634583
0.4002704739996261 0.46262823644357587 0.4929164631167562
0.4004629149999346 0.4606741573033708 0.4851001465559355
0.40066098499983127 0.4606741573033708 0.4909623839765511
0.40085583299969585 0.45481191988275516 0.4938935026868587
0.4010505519995604 0.45969711773326827 0.4948705422569615
0.4012449739998374 0.4587200781631655 0.4938935026868587
0.4014406369997232 0.457743038593063 0.49682462139716654
0.40163452199976746 0.4528578407425501 0.49682462139716654
0.4018290739995791 0.44992672203224227 0.495847581827064
0.4020210699995914 0.44894968246213973 0.5007327796775769
0.4022149559996251 0.4430874450415241 0.5026868588177822
0.4024058779996267 0.4401563263312165 0.5036638983878847
0.40259922599989295 0.4460185637518319 0.5007327796775769
0.40282720299956054 0.45188080117244755 0.5095261358085001
0.40303660699964894 0.46458231558378116 0.4978016609672691
0.4032968799997434 0.4763067904250122 0.5007327796775769
0.40349269099988305 0.47923790913532005 0.49877870053737183
0.40368624299981093 0.4851001465559355 0.49682462139716654
0.40388162799990823 0.4948705422569615 0.4978016609672691
0.4040759569998045 0.4978016609672691 0.495847581827064
0.40427323199992315 0.5056179775280898 0.49682462139716654
0.4044883569999911 0.5085490962383976 0.5007327796775769
0.40470144599976265 0.5114802149487054 0.5056179775280898
0.40490151599988167 0.5056179775280898 0.49975574010747437
0.40509514199993646 0.512457254518808 0.495847581827064
0.40530198999977074 0.49877870053737183 0.49682462139716654
0.40549831999987873 0.49682462139716654 0.4948705422569615
0.4056896309998592 0.49682462139716654 0.48900830483634583
0.4058829049999986 0.4909623839765511 0.48998534440644836
0.40608073399971545 0.495847581827064 0.4938935026868587
0.40628230499987694 0.486077186126038 0.4851001465559355
0.40647548599963557 0.48412310698583294 0.4929164631167562
0.40666905699981726 0.48998534440644836 0.49193942354665365
0.40686366399995677 0.48705422569614076 0.4880312652662433
0.40705738299993754 0.48705422569614076 0.48998534440644836
0.40724811999962185 0.49193942354665365 0.4909623839765511
0.40751861499984443 0.4880312652662433 0.4948705422569615
0.40771372199969846 0.48900830483634583 0.495847581827064
0.40790927399984866 0.48216902784562765 0.4929164631167562
0.4081017889998293 0.4851001465559355 0.4929164631167562
0.4082954699997572 0.48216902784562765 0.495847581827064
0.4084900779998861 0.4802149487054226 0.4938935026868587
0.40868725899963465 0.48412310698583294 0.49193942354665365
0.40888303299971085 0.48216902784562765 0.49877870053737183
0.40907575199980784 0.486077186126038 0.4948705422569615
0.4092670629997883 0.4880312652662433 0.49877870053737183
0.4095080769998276 0.49877870053737183 0.49682462139716654
0.40974179499971797 0.49975574010747437 0.495847581827064
0.4099526799996056 0.5065950170981925 0.4948705422569615
0.4101768049999919 0.5075720566682951 0.4938935026868587
0.4103970969999864 0.5085490962383976 0.4978016609672691
0.4106166859996847 0.512457254518808 0.49975574010747437
0.4108391629997641 0.5144113336590133 0.49682462139716654
0.411057547999917 0.5105031753786029 0.5036638983878847
0.41127509899979486 0.5095261358085001 0.4938935026868587
0.41149472499955664 0.5065950170981925 0.4929164631167562
0.41178682999998273 0.5036638983878847 0.48900830483634583
0.4120598989998143 0.49975574010747437 0.4909623839765511
0.4123170240000036 0.5046409379579873 0.4909623839765511
0.41259598199985703 0.5046409379579873 0.48900830483634583
0.41290517999959775 0.5007327796775769 0.495847581827064
0.413209543999983 0.5085490962383976 0.48998534440644836
0.41349979799997527 0.5105031753786029 0.4929164631167562
0.41378818099974524 0.5046409379579873 0.49193942354665365
0.41405597299990404 0.49682462139716654 0.48412310698583294
0.4143450409997058 0.495847581827064 0.48216902784562765
0.4145647589998589 0.48900830483634583 0.4831460674157304
0.4148693279998952 0.4909623839765511 0.4684904738641915
0.41511217499964914 0.4909623839765511 0.4684904738641915
0.41533763399957024 0.49682462139716654 0.47728382999511476
0.41556409199984046 0.49682462139716654 0.47923790913532005
0.4157817549998981 0.5007327796775769 0.48412310698583294
0.4160100839999359 0.5026868588177822 0.48412310698583294
0.41623737599957167 0.49877870053737183 0.48998534440644836
0.41649509299986676 0.49193942354665365 0.486077186126038
0.41677730999981577 0.4880312652662433 0.48998534440644836
0.41703669399976206 0.48412310698583294 0.4948705422569615
0.41730048499994155 0.48216902784562765 0.4880312652662433
0.4175922759995956 0.486077186126038 0.48412310698583294
0.4179845099997692 0.4831460674157304 0.4763067904250122
0.4183407249997799 0.495847581827064 0.47728382999511476
0.4185982759995568 0.4929164631167562 0.47923790913532005
0.4188858809998237 0.48705422569614076 0.4851001465559355
0.41911789599998883 0.4782608695652173 0.48998534440644836
0.4194126489996961 0.4733756717147044 0.48900830483634583
0.4196666439997898 0.4665363947239862 0.495847581827064
0.4199348249999275 0.4655593551538837 0.4909623839765511
0.4201628199998595 0.4636052760136786 0.4929164631167562
0.42038277899973764 0.4733756717147044 0.495847581827064
0.42059760799975265 0.47923790913532005 0.49975574010747437
0.42081530799987377 0.4733756717147044 0.5017098192476794
0.42102661899980376 0.4831460674157304 0.512457254518808
0.42122339299976375 0.4782608695652173 0.5017098192476794
0.4214403329997367 0.4802149487054226 0.5065950170981925
0.4216352549997282 0.4782608695652173 0.5085490962383976
0.4218271959998674 0.4802149487054226 0.5036638983878847
0.4220194149997951 0.4782608695652173 0.49975574010747437
0.42221305899965955 0.48412310698583294 0.5056179775280898
0.422431406999749 0.4851001465559355 0.5007327796775769
0.42262721799988867 0.48705422569614076 0.49877870053737183
0.4228436769999462 0.48705422569614076 0.5065950170981925
0.42304032099991673 0.48705422569614076 0.5065950170981925
0.4232354289997602 0.495847581827064 0.5075720566682951
0.42344053599981635 0.49193942354665365 0.5065950170981925
0.4236311989998285 0.4909623839765511 0.49975574010747437
0.4238228619997244 0.4929164631167562 0.5046409379579873
0.42401846999973714 0.48900830483634583 0.5075720566682951
0.4242353359995832 0.4948705422569615 0.49877870053737183
0.42451260799998636 0.4909623839765511 0.4978016609672691
0.424710863999735 0.4880312652662433 0.4948705422569615
0.42490558199961015 0.48900830483634583 0.5017098192476794
0.4250983939996331 0.48900830483634583 0.4938935026868587
0.425291630999709 0.49193942354665365 0.49682462139716654
0.42548344199985877 0.495847581827064 0.4929164631167562
0.42569069699993634 0.49682462139716654 0.4929164631167562
0.42589135999969585 0.4978016609672691 0.49682462139716654
0.42617007699982423 0.49877870053737183 0.48900830483634583
0.42636799899992184 0.5056179775280898 0.48216902784562765
0.4265608469995641 0.4948705422569615 0.4802149487054226
0.4267551029997776 0.49877870053737183 0.4802149487054226
0.4269531919999281 0.48998534440644836 0.4831460674157304
0.4271435399996335 0.4909623839765511 0.4811919882755251
0.4273547579996375 0.486077186126038 0.48412310698583294
0.42755106899994644 0.48412310698583294 0.486077186126038
0.4277403989999584 0.48412310698583294 0.49193942354665365
0.4280233199997383 0.48705422569614076 0.49193942354665365
0.42824155599964797 0.4851001465559355 0.4909623839765511
0.4284465709997676 0.4880312652662433 0.49193942354665365
0.4286649559999205 0.4938935026868587 0.495847581827064
0.4288934699998208 0.49193942354665365 0.4938935026868587
0.4291057069999624 0.4948705422569615 0.49877870053737183
0.42932003599980817 0.495847581827064 0.5036638983878847
0.4295363839996753 0.49193942354665365 0.5075720566682951
0.4297529349996694 0.495847581827064 0.5134342940889105
0.4299588019998737 0.49193942354665365 0.5183194919394236
0.43015435399956914 0.4909623839765511 0.512457254518808
0.4303553679997094 0.4948705422569615 0.5105031753786029
0.4305572899997969 0.48705422569614076 0.5056179775280898
0.4307471019997138 0.49193942354665365 0.5095261358085001
0.4309764679996988 0.4851001465559355 0.4880312652662433
0.43117174199960573 0.4811919882755251 0.4929164631167562
0.43136888599974554 0.486077186126038 0.4811919882755251
0.43160888199963665 0.4938935026868587 0.4753297508549097
0.43180682199999865 0.5075720566682951 0.4811919882755251
0.43200894799974776 0.512457254518808 0.4753297508549097
0.43219988900000317 0.512457254518808 0.47728382999511476
0.43238966299986714 0.524181729360039 0.4811919882755251
0.4326027519996387 0.5280898876404494 0.47728382999511476
0.4329465599998912 0.5251587689301416 0.4733756717147044
0.4331534269999793 0.5280898876404494 0.4763067904250122
0.43335188599985486 0.5144113336590133 0.47435271128480694
0.43354402999966624 0.5163654127992183 0.4782608695652173
0.4337371379997421 0.5036638983878847 0.47923790913532005
0.43392902299956404 0.5026868588177822 0.48216902784562765
0.4341295379999792 0.4909623839765511 0.48412310698583294
0.4343208489999597 0.4948705422569615 0.49193942354665365
0.43452365999974063 0.48705422569614076 0.49975574010747437
0.43472141499978534 0.48412310698583294 0.4978016609672691
0.43493409699976837 0.486077186126038 0.495847581827064
0.4351530929998262 0.48216902784562765 0.495847581827064
0.43535723699960727 0.486077186126038 0.49682462139716654
0.43556043699982183 0.4831460674157304 0.486077186126038
0.4357571549999193 0.4802149487054226 0.4909623839765511
0.4359488369996143 0.4811919882755251 0.4831460674157304
0.4361393889998908 0.4831460674157304 0.4811919882755251
0.4363343109998823 0.4811919882755251 0.4782608695652173
0.43652497399989443 0.4851001465559355 0.4811919882755251
0.4367198409995581 0.4880312652662433 0.48216902784562765
0.43692372599980445 0.48412310698583294 0.4782608695652173
0.4371151669997744 0.49682462139716654 0.4753297508549097
0.43732410699976754 0.4880312652662433 0.4763067904250122
0.4375299369999084 0.48900830483634583 0.47728382999511476
0.437741265999648 0.4880312652662433 0.46946751343429405
0.4379480769998736 0.49682462139716654 0.4684904738641915
0.43817779499977405 0.4938935026868587 0.4733756717147044
0.4383859019999363 0.4938935026868587 0.4704445530043966
0.4385789169996315 0.5017098192476794 0.47239863214460187
0.4388421339999695 0.5007327796775769 0.47435271128480694
0.4390466669997295 0.4948705422569615 0.4704445530043966
0.43924010799992175 0.49193942354665365 0.4763067904250122
0.43943304899994473 0.49193942354665365 0.47239863214460187
0.4396226749995549 0.4909623839765511 0.47239863214460187
0.43982909699980155 0.4880312652662433 0.47435271128480694
0.4400215189998562 0.4938935026868587 0.4763067904250122
0.44021333000000595 0.4909623839765511 0.48705422569614076
0.44040669699961654 0.495847581827064 0.4811919882755251
0.44060337799965055 0.48900830483634583 0.4802149487054226
0.44079454099983195 0.4929164631167562 0.486077186126038
0.44098753799971746 0.4880312652662433 0.49193942354665365
0.4411826449995715 0.48998534440644836 0.4929164631167562
0.4413749379996261 0.48216902784562765 0.4929164631167562
0.4415683789998184 0.47728382999511476 0.5026868588177822
0.44179776299961304 0.47923790913532005 0.5065950170981925
0.44202892599969346 0.4802149487054226 0.5007327796775769
0.44222277399967425 0.4782608695652173 0.5007327796775769
0.4424189739997928 0.47728382999511476 0.5026868588177822
0.4426134519999323 0.4811919882755251 0.5085490962383976
0.4428835759999856 0.4811919882755251 0.512457254518808
0.44310751599959985 0.48216902784562765 0.5085490962383976
0.4433183639998788 0.4851001465559355 0.5046409379579873
0.4435361929999999 0.4851001465559355 0.5036638983878847
0.44375939299970923 0.4851001465559355 0.512457254518808
0.4439741109999886 0.4851001465559355 0.5085490962383976
0.4441871259996333 0.4851001465559355 0.5036638983878847
0.44442308399993635 0.486077186126038 0.4978016609672691
0.4446717269997862 0.4831460674157304 0.49877870053737183
0.44494468499988216 0.4909623839765511 0.4929164631167562
0.44543684299969755 0.4880312652662433 0.4978016609672691
0.44607060799989995 0.4909623839765511 0.5056179775280898
0.44653026599962686 0.486077186126038 0.49877870053737183
0.44717369899990445 0.5036638983878847 0.495847581827064
0.44759844999998677 0.5007327796775769 0.4929164631167562
0.44788014799996745 0.5046409379579873 0.49877870053737183
0.4481004779995601 0.4948705422569615 0.4948705422569615
0.44833667699958824 0.4763067904250122 0.49193942354665365
0.44863437499998327 0.46262823644357587 0.5007327796775769
0.4488915739998447 0.4587200781631655 0.495847581827064
0.4491564759996436 0.46458231558378116 0.4938935026868587
0.44946511799980726 0.4636052760136786 0.48998534440644836
0.4497594649997154 0.4753297508549097 0.4929164631167562
0.4500277559995993 0.4851001465559355 0.49193942354665365
0.4502867509995667 0.4978016609672691 0.48900830483634583
0.45052335799982757 0.49682462139716654 0.48412310698583294
0.45075650099988707 0.5036638983878847 0.486077186126038
0.4509766079995643 0.49877870053737183 0.48216902784562765
0.45117214199990485 0.5065950170981925 0.4880312652662433
0.45136587899969527 0.5026868588177822 0.4831460674157304
0.4515723380000054 0.495847581827064 0.4831460674157304
0.45177681499990285 0.49975574010747437 0.48412310698583294
0.4519767749998209 0.4929164631167562 0.4831460674157304
0.45217297499993947 0.49193942354665365 0.4831460674157304
0.4523670079997828 0.5036638983878847 0.4948705422569615
0.4525608559997636 0.4978016609672691 0.48900830483634583
0.45276698199995735 0.495847581827064 0.4929164631167562
0.45296444099994915 0.49975574010747437 0.495847581827064
0.45318258499992226 0.49682462139716654 0.49682462139716654
0.4533758779998607 0.49877870053737183 0.495847581827064
0.4535723739995774 0.5017098192476794 0.495847581827064
0.45376935199965374 0.5046409379579873 0.4880312652662433
0.4539609219996237 0.5026868588177822 0.48705422569614076
0.4541583999998693 0.5036638983878847 0.48705422569614076
0.4543572669999776 0.5026868588177822 0.4831460674157304
0.4545532999995885 0.5036638983878847 0.4782608695652173
0.454744388999643 0.5026868588177822 0.4782608695652173
0.45494297799996275 0.5036638983878847 0.4802149487054226
0.4551989359997606 0.49975574010747437 0.48412310698583294
0.4554111539996484 0.4978016609672691 0.48900830483634583
0.45560640999974567 0.49877870053737183 0.48900830483634583
0.4557998509999379 0.49975574010747437 0.49193942354665365
0.45599356899992927 0.5007327796775769 0.48705422569614076
0.45618660299987823 0.5007327796775769 0.49682462139716654
0.4563783399999011 0.49682462139716654 0.4909623839765511
0.45658394699967175 0.5007327796775769 0.49193942354665365
0.45677640599978986 0.4929164631167562 0.48705422569614076
0.45696906899956957 0.4978016609672691 0.48998534440644836
0.4571592879997297 0.5017098192476794 0.48216902784562765
0.4573497469996255 0.5046409379579873 0.49193942354665365
0.4575440579997121 0.5075720566682951 0.4851001465559355
0.4577355549999993 0.5036638983878847 0.48216902784562765
0.45792749599968374 0.5095261358085001 0.4929164631167562
0.45811917699984406 0.5036638983878847 0.49682462139716654
0.45831032199976107 0.5065950170981925 0.49193942354665365
0.4585082439998587 0.5046409379579873 0.4880312652662433
0.4586998139998286 0.4978016609672691 0.48705422569614076
0.4589252169998872 0.4938935026868587 0.5007327796775769
0.45911878799961414 0.4978016609672691 0.48998534440644836
0.45934048699973573 0.49682462139716654 0.4938935026868587
0.45956877899971005 0.49682462139716654 0.49877870053737183
0.4597603499996694 0.4929164631167562 0.49877870053737183
0.45995688299990434 0.49877870053737183 0.5105031753786029
0.46015161999957854 0.4909623839765511 0.5056179775280898
0.46034539399988716 0.48705422569614076 0.5036638983878847
0.46053600199957145 0.4880312652662433 0.5105031753786029
0.4607275349999327 0.4831460674157304 0.5007327796775769
0.4609189949997017 0.4763067904250122 0.4938935026868587
0.46111626899983094 0.4802149487054226 0.49877870053737183
0.4613637639999979 0.47142159257449934 0.48705422569614076
0.46166633199982243 0.47728382999511476 0.4880312652662433
0.4618966799998816 0.4851001465559355 0.4880312652662433
0.4621083799997905 0.48412310698583294 0.4938935026868587
0.4623087459999624 0.4851001465559355 0.4880312652662433
0.4625031309997212 0.486077186126038 0.49193942354665365
0.4626975539999876 0.4851001465559355 0.49682462139716654
0.46296519699990313 0.48412310698583294 0.4938935026868587
0.46316352599978927 0.48705422569614076 0.5046409379579873
0.46336907799968685 0.47728382999511476 0.4978016609672691
0.46357870399970125 0.47239863214460187 0.5007327796775769
0.4637774219995663 0.467513434294089 0.5007327796775769
0.46397271499972703 0.4733756717147044 0.5046409379579873
0.4641715259999728 0.47239863214460187 0.5036638983878847
0.46436274399957256 0.4753297508549097 0.5046409379579873
0.46455738899976495 0.4802149487054226 0.5065950170981925
0.4648693459998867 0.48900830483634583 0.5036638983878847
0.46508437899956334 0.4948705422569615 0.5036638983878847
0.4652860599999258 0.5046409379579873 0.49682462139716654
0.4654794269999911 0.5036638983878847 0.4978016609672691
0.46567790499966577 0.5056179775280898 0.4909623839765511
0.46587090099956185 0.5065950170981925 0.486077186126038
0.4660653419996379 0.5075720566682951 0.4948705422569615
0.4662638199997673 0.5017098192476794 0.48998534440644836
0.4664603339997484 0.49877870053737183 0.4948705422569615
0.4666696269996464 0.49682462139716654 0.49193942354665365
0.46691891799991936 0.49682462139716654 0.4929164631167562
0.4671258589996796 0.48412310698583294 0.495847581827064
0.46732076299986147 0.48412310698583294 0.48998534440644836
0.4675157029996626 0.4831460674157304 0.4978016609672691
0.46771284799979185 0.4782608695652173 0.4938935026868587
0.46790838099968823 0.4763067904250122 0.49877870053737183
0.4681064329997753 0.47142159257449934 0.49877870053737183
0.4683377059996019 0.4782608695652173 0.5056179775280898
0.4685332770000059 0.4684904738641915 0.5026868588177822
0.46872405099975367 0.46458231558378116 0.5095261358085001
0.46891499199955433 0.467513434294089 0.5026868588177822
0.46910669199996846 0.467513434294089 0.5026868588177822
0.46929809599987493 0.4733756717147044 0.5026868588177822
0.4694922769999721 0.46946751343429405 0.5017098192476794
0.4696833099997093 0.47239863214460187 0.4909623839765511
0.46991426899967337 0.4782608695652173 0.48216902784562765
0.47013013499963563 0.4831460674157304 0.4802149487054226
0.4703407049996713 0.4831460674157304 0.4733756717147044
0.4705329979997259 0.486077186126038 0.4636052760136786
0.4707285499998761 0.4880312652662433 0.4684904738641915
0.4709486939996168 0.48705422569614076 0.4684904738641915
0.4711611899997479 0.4851001465559355 0.4704445530043966
0.4713874629997008 0.4880312652662433 0.47142159257449934
0.47158499699980894 0.48216902784562765 0.4802149487054226
0.4717822149996209 0.4851001465559355 0.47728382999511476
0.4719784889998664 0.4929164631167562 0.4802149487054226
0.4721961329996702 0.48705422569614076 0.4851001465559355
0.4723922219995984 0.4929164631167562 0.4782608695652173
0.47258588499971665 0.4929164631167562 0.47923790913532005
0.4727772709998135 0.4948705422569615 0.4811919882755251
0.4729737299999215 0.49975574010747437 0.48216902784562765
0.47316511499957414 0.5056179775280898 0.48900830483634583
0.4733602219998829 0.5075720566682951 0.4802149487054226
0.47355514499986384 0.5046409379579873 0.4802149487054226
0.47375169699989783 0.5065950170981925 0.4851001465559355
0.47394550799981516 0.5036638983878847 0.4802149487054226
0.47414133699976446 0.5105031753786029 0.47728382999511476
0.47435264799969445 0.5026868588177822 0.48412310698583294
0.47454649599967524 0.5036638983878847 0.47923790913532005
0.4747506219996467 0.5065950170981925 0.4782608695652173
0.47499972899959175 0.4938935026868587 0.47923790913532005
0.4752491309996003 0.49682462139716654 0.4802149487054226
0.47544671999958155 0.4948705422569615 0.4763067904250122
0.47563975299999584 0.48998534440644836 0.48216902784562765
0.4758332309997968 0.5007327796775769 0.4763067904250122
0.4760316909996618 0.49877870053737183 0.48412310698583294
0.476318221999918 0.495847581827064 0.47728382999511476
0.4765404399995532 0.49975574010747437 0.48216902784562765
0.47675839899966377 0.49682462139716654 0.4802149487054226
0.47696757999983674 0.4938935026868587 0.48412310698583294
0.4771704279996811 0.49193942354665365 0.4831460674157304
0.47737527599974783 0.48900830483634583 0.486077186126038
0.4775838829996246 0.48705422569614076 0.4831460674157304
0.47779702799971346 0.4880312652662433 0.48412310698583294
0.47800689399991825 0.48705422569614076 0.486077186126038
0.4782177789998059 0.4909623839765511 0.4851001465559355
0.478439848999642 0.4851001465559355 0.4880312652662433
0.4786737889999131 0.49193942354665365 0.4929164631167562
0.47894874699977663 0.4880312652662433 0.49682462139716654
0.4791650199999822 0.49193942354665365 0.5036638983878847
0.4794209229999069 0.4948705422569615 0.49975574010747437
0.4798186559996793 0.4938935026868587 0.5046409379579873
0.4800782249999429 0.48998534440644836 0.5095261358085001
0.48030594299962104 0.4909623839765511 0.49975574010747437
0.4805622899998525 0.486077186126038 0.4938935026868587
0.48084439599961115 0.4802149487054226 0.495847581827064
0.4811680559996603 0.4851001465559355 0.4929164631167562
0.48152047599978687 0.4811919882755251 0.5065950170981925
0.48184089599999425 0.4909623839765511 0.5105031753786029
0.48210724199998367 0.4938935026868587 0.5105031753786029
0.4823374969996621 0.48998534440644836 0.522227650219834
0.4825823819996913 0.4978016609672691 0.5114802149487054
0.4828438399999868 0.48900830483634583 0.5134342940889105
0.48307863099989845 0.4831460674157304 0.5114802149487054
0.48331986799985316 0.47239863214460187 0.5105031753786029
0.48358284399955664 0.4733756717147044 0.5075720566682951
0.48385639499974786 0.4655593551538837 0.5153883732291158
0.48413762999962273 0.4684904738641915 0.5105031753786029
0.48443423499975324 0.4684904738641915 0.5075720566682951
0.48479093199966883 0.47435271128480694 0.5046409379579873
0.48505201999978453 0.47435271128480694 0.5036638983878847
0.48528099699979066 0.4811919882755251 0.49877870053737183
0.48551777099964966 0.4851001465559355 0.49682462139716654
0.4857657469997321 0.4909623839765511 0.5085490962383976
0.48599255799990715 0.49193942354665365 0.5105031753786029
0.4862145909996798 0.4948705422569615 0.5105031753786029
0.4864384379998228 0.495847581827064 0.5046409379579873
0.48668139699975654 0.495847581827064 0.5144113336590133
0.48693053999977565 0.49877870053737183 0.5085490962383976
0.48712877699972523 0.495847581827064 0.5046409379579873
0.48732530999996015 0.4978016609672691 0.5017098192476794
0.48751667699980317 0.49975574010747437 0.5017098192476794
0.48771108099981575 0.5046409379579873 0.4909623839765511
0.48790470699987054 0.49975574010747437 0.4880312652662433
0.48809636999976647 0.4978016609672691 0.48216902784562765
0.4882885699998951 0.5065950170981925 0.48216902784562765
0.48848158499959027 0.49877870053737183 0.4811919882755251
0.4886766369995712 0.4929164631167562 0.48216902784562765
0.4888781139998173 0.495847581827064 0.47923790913532005
0.48907214799965004 0.49193942354665365 0.4811919882755251
0.4892651809996096 0.49877870053737183 0.48900830483634583
0.4894734179997613 0.48998534440644836 0.48412310698583294
0.4898096709998754 0.4909623839765511 0.4929164631167562
0.4900368149997121 0.4909623839765511 0.4909623839765511
0.49023753299979944 0.4929164631167562 0.4929164631167562
0.49043391799978053 0.4929164631167562 0.48998534440644836
0.49062713699959204 0.495847581827064 0.4880312652662433
0.4908418919999349 0.495847581827064 0.486077186126038
0.4910373699999582 0.4929164631167562 0.48705422569614076
0.491251180999825 0.5017098192476794 0.4880312652662433
0.49144245499974204 0.49975574010747437 0.4782608695652173
0.49163535899970157 0.49193942354665365 0.47435271128480694
0.49182972499966127 0.5046409379579873 0.4704445530043966
0.49202481399970566 0.495847581827064 0.47142159257449934
0.492225717999645 0.4978016609672691 0.46946751343429405
0.4924269359999016 0.5046409379579873 0.4782608695652173
0.49261937699975533 0.49975574010747437 0.47728382999511476
0.4928474099997402 0.5056179775280898 0.4684904738641915
0.49304918399957387 0.5046409379579873 0.467513434294089
0.4932521059999999 0.5046409379579873 0.4763067904250122
0.4934665649998351 0.5026868588177822 0.47239863214460187
0.49367294999956357 0.49975574010747437 0.4665363947239862
0.49386727899991456 0.5056179775280898 0.4684904738641915
0.4940622019998955 0.49975574010747437 0.4636052760136786
0.49425947599957 0.5075720566682951 0.4636052760136786
0.4945480259998476 0.49682462139716654 0.46458231558378116
0.49474241099960636 0.5046409379579873 0.4636052760136786
0.49494651799977873 0.49682462139716654 0.46946751343429405
0.49516129199992065 0.4929164631167562 0.4665363947239862
0.4953977879999911 0.4948705422569615 0.4763067904250122
0.49561711699971056 0.4948705422569615 0.4733756717147044
0.4958321679996516 0.49682462139716654 0.47728382999511476
0.4960668679996161 0.49975574010747437 0.4909623839765511
0.49628578899955755 0.49975574010747437 0.48900830483634583
0.4965038409995941 0.49877870053737183 0.4978016609672691
0.4966999479997867 0.5026868588177822 0.4938935026868587
0.4968912409999575 0.49975574010747437 0.49193942354665365
0.4970851079997374 0.495847581827064 0.4929164631167562
0.49727995599960195 0.49682462139716654 0.4929164631167562
0.49749100699955306 0.49877870053737183 0.486077186126038
0.4976875959996505 0.5046409379579873 0.48412310698583294
0.49789325899973846 0.5046409379579873 0.48216902784562765
0.4980919959998573 0.49975574010747437 0.48412310698583294
0.4982867889998488 0.49975574010747437 0.4851001465559355
0.498482691999925 0.4978016609672691 0.486077186126038
0.49868996599980164 0.495847581827064 0.49682462139716654
0.49893616499957716 0.495847581827064 0.4948705422569615
0.49912866199974815 0.4909623839765511 0.4938935026868587
0.4993226759997924 0.4880312652662433 0.49877870053737183
0.49951445099986813 0.48216902784562765 0.49682462139716654
0.4997068909997324 0.4763067904250122 0.4978016609672691
0.4998985359998187 0.4753297508549097 0.5007327796775769
0.5000906429995666 0.47239863214460187 0.5017098192476794
0.5002854729996216 0.47239863214460187 0.5095261358085001
0.5004771549997713 0.47239863214460187 0.5085490962383976
0.5007292419995792 0.47239863214460187 0.512457254518808
0.5009235349998562 0.4763067904250122 0.5192965315095261
0.5011194389999218 0.4831460674157304 0.5280898876404494
0.5013310459999047 0.4782608695652173 0.5183194919394236
0.5015293569999812 0.4802149487054226 0.522227650219834
0.5017275199998039 0.48900830483634583 0.5134342940889105
0.501936404999924 0.4929164631167562 0.5144113336590133
0.5021345679997467 0.5007327796775769 0.5114802149487054
0.5023255459996108 0.495847581827064 0.5075720566682951
0.5025188569998136 0.49877870053737183 0.5036638983878847
0.5027402599998823 0.4909623839765511 0.5036638983878847
0.5029415149997476 0.4938935026868587 0.5075720566682951
0.5031360299999506 0.4811919882755251 0.5075720566682951
0.5033273599997301 0.4831460674157304 0.5153883732291158
0.5035241709997536 0.4782608695652173 0.5065950170981925
0.5037158529999033 0.4802149487054226 0.5114802149487054
0.503915959999631 0.47728382999511476 0.5114802149487054
0.5042285469999115 0.48216902784562765 0.5085490962383976
0.5044203759998709 0.486077186126038 0.5046409379579873
0.504618890999609 0.49877870053737183 0.512457254518808
0.5048171099997489 0.4938935026868587 0.49975574010747437
0.5050186429998575 0.49193942354665365 0.5046409379579873
0.5052201199996489 0.486077186126038 0.495847581827064
0.5054146719999153 0.495847581827064 0.49975574010747437
0.5056066319998536 0.4831460674157304 0.49682462139716654
0.5058060349997504 0.4811919882755251 0.49682462139716654
0.505997883999953 0.4811919882755251 0.4978016609672691
0.5061922319996484 0.486077186126038 0.5007327796775769
0.5064058019997901 0.4929164631167562 0.495847581827064
0.506597538999813 0.49193942354665365 0.4938935026868587
0.5067888319999838 0.49193942354665365 0.4929164631167562
0.5070319199999176 0.495847581827064 0.4909623839765511
0.5072431929997947 0.495847581827064 0.4929164631167562
0.5074466519999987 0.4978016609672691 0.48705422569614076
0.5076394269999582 0.49682462139716654 0.49877870053737183
0.5078307009998753 0.495847581827064 0.49975574010747437
0.5080446779998056 0.4978016609672691 0.4938935026868587
0.5082726179998645 0.4909623839765511 0.49975574010747437
0.5084646149998662 0.4929164631167562 0.4978016609672691
0.5086597779995827 0.4909623839765511 0.4948705422569615
0.5088628479998079 0.48900830483634583 0.49975574010747437
0.5090537889996085 0.48900830483634583 0.5036638983878847
0.5092474519997268 0.4851001465559355 0.5105031753786029
0.5094421519997923 0.48900830483634583 0.49975574010747437
0.5096376109995617 0.4929164631167562 0.5095261358085001
0.5098302369997327 0.49682462139716654 0.5007327796775769
0.510035491999588 0.5007327796775769 0.49975574010747437
0.5102325999996538 0.49877870053737183 0.5036638983878847
0.5104248549996555 0.5007327796775769 0.4938935026868587
0.5106222959998377 0.5095261358085001 0.49193942354665365
0.5108332919999157 0.5144113336590133 0.4909623839765511
0.5110288259998015 0.5134342940889105 0.48412310698583294
