0 0.48412310698583294 0.5359062042012701
0.00032869799997570226 0.486077186126038 0.5378602833414754
0.0005351579998205125 0.4929164631167562 0.540791402051783
0.0007343399997807865 0.4880312652662433 0.5554469956033219
0.0009768539998731285 0.48900830483634583 0.5622862725940401
0.0011789800000769901 0.48900830483634583 0.5583781143136297
0.0013704769999094424 0.49193942354665365 0.5476306790425012
0.001558306999868364 0.495847581827064 0.5290669272105519
0.0017463780000070983 0.4948705422569615 0.5144113336590133
0.0019343559997651028 0.4909623839765511 0.4929164631167562
0.002122334999967279 0.5007327796775769 0.4782608695652173
0.00230923899971458 0.4929164631167562 0.47239863214460187
0.0024950510000962822 0.48998534440644836 0.4733756717147044
0.00268119599968486 0.48900830483634583 0.4782608695652173
0.0028664149999713118 0.486077186126038 0.4802149487054226
0.003051114999834681 0.4909623839765511 0.4831460674157304
0.0032361859998673026 0.48900830483634583 0.47142159257449934
0.003423626999847329 0.49193942354665365 0.45481191988275516
0.0036099949998060765 0.4929164631167562 0.441133365901319
0.003794750999986718 0.48900830483634583 0.4284318514899854
0.00398032199973386 0.4909623839765511 0.4186614557889594
0.0041654480000943295 0.4909623839765511 0.40693698094772834
0.004349944999830768 0.486077186126038 0.40205178309721545
0.00453533099971537 0.48998534440644836 0.41182217879824123
0.004720049999832554 0.48900830483634583 0.4176844162188569
0.004934564999985014 0.48998534440644836 0.4284318514899854
0.005119838999689819 0.4929164631167562 0.441133365901319
0.005304798999986815 0.4880312652662433 0.45676599902296044
0.0054891849999876285 0.4909623839765511 0.467513434294089
0.005674607999935688 0.4880312652662433 0.47142159257449934
0.00585973399984141 0.486077186126038 0.4753297508549097
0.006044897999800014 0.48998534440644836 0.4782608695652173
0.006236060999981419 0.486077186126038 0.4851001465559355
0.006425688000035734 0.4851001465559355 0.4880312652662433
0.006610629000078916 0.4851001465559355 0.4948705422569615
0.00679519999994227 0.48998534440644836 0.4978016609672691
0.006979548999879626 0.4880312652662433 0.5036638983878847
0.0071642679999968095 0.4909623839765511 0.5065950170981925
0.007349578999765072 0.4909623839765511 0.5075720566682951
0.007534001999829343 0.4948705422569615 0.5075720566682951
0.007719424999777402 0.4948705422569615 0.5144113336590133
0.007909402999757731 0.49682462139716654 0.5183194919394236
0.00809543700006543 0.49877870053737183 0.522227650219834
0.008280563999960577 0.49877870053737183 0.5261358085002443
0.008465856999919197 0.49877870053737183 0.5271128480703469
0.008651297999676899 0.49877870053737183 0.524181729360039
0.008843072999752621 0.49975574010747437 0.5192965315095261
0.009030605999669206 0.5007327796775769 0.5114802149487054
0.009221602999787137 0.4978016609672691 0.5036638983878847
0.009407043999999587 0.495847581827064 0.5017098192476794
0.009592522999810171 0.4938935026868587 0.48998534440644836
0.009777575000043726 0.4938935026868587 0.48900830483634583
0.009962960999928328 0.4938935026868587 0.486077186126038
0.010148142999696574 0.4938935026868587 0.4880312652662433
0.010332991999803198 0.49877870053737183 0.48998534440644836
0.010517785000047297 0.4948705422569615 0.4929164631167562
0.010702262999984669 0.49877870053737183 0.4909623839765511
0.010886611999922025 0.49975574010747437 0.48900830483634583
0.011071386999901733 0.4938935026868587 0.4851001465559355
0.011256086999765103 0.4929164631167562 0.486077186126038
0.011441713999829517 0.49193942354665365 0.4909623839765511
0.011626747999798681 0.4948705422569615 0.495847581827064
0.011811225999736052 0.4909623839765511 0.49193942354665365
0.011996333999832132 0.4929164631167562 0.4948705422569615
0.012183441999695788 0.4929164631167562 0.5017098192476794
0.012370809000003646 0.49682462139716654 0.5046409379579873
0.012560231999941607 0.48998534440644836 0.5056179775280898
0.012745302999974228 0.48998534440644836 0.5114802149487054
0.012931910999668617 0.4948705422569615 0.5114802149487054
0.013116481999986718 0.5026868588177822 0.5065950170981925
0.013300959999924089 0.4948705422569615 0.5026868588177822
0.01348571600010473 0.5017098192476794 0.4929164631167562
0.013670804999946995 0.495847581827064 0.4880312652662433
0.013855265000074724 0.4978016609672691 0.48216902784562765
0.014040632999694935 0.49877870053737183 0.48216902784562765
0.014230351999685809 0.5026868588177822 0.4831460674157304
0.014415792999898258 0.49975574010747437 0.48412310698583294
0.014601307999782875 0.5065950170981925 0.4909623839765511
0.01478667499986841 0.49682462139716654 0.5007327796775769
0.014971357999911561 0.5026868588177822 0.5163654127992183
0.015157872999679967 0.49682462139716654 0.5319980459208598
0.015342980999776046 0.495847581827064 0.540791402051783
0.01552769999989323 0.5007327796775769 0.5456765999022961
0.015712696999798936 0.5036638983878847 0.5476306790425012
0.015896878999683395 0.5046409379579873 0.5486077186126037
0.016081764999853476 0.49877870053737183 0.5456765999022961
0.01626731699980155 0.49877870053737183 0.5515388373229115
0.016452035999918735 0.4978016609672691 0.5446995603321934
0.01663718100007827 0.495847581827064 0.5349291646311676
0.01685130699979709 0.49975574010747437 0.5310210063507572
0.017042581999703543 0.49975574010747437 0.5437225207620908
0.017234911999821634 0.5007327796775769 0.5319980459208598
0.017424500999823067 0.5036638983878847 0.5280898876404494
0.01761372000009942 0.5007327796775769 0.5271128480703469
0.017802568999741197 0.5026868588177822 0.5173424523693209
0.017999490999955015 0.5036638983878847 0.5183194919394236
0.018188172999998642 0.49682462139716654 0.5085490962383976
0.01837711500002115 0.49877870053737183 0.5036638983878847
0.0185666110000966 0.49682462139716654 0.5007327796775769
0.018755478999992192 0.495847581827064 0.5075720566682951
0.018944900999940728 0.4938935026868587 0.5065950170981925
0.01913319400000546 0.4929164631167562 0.4978016609672691
0.019322227999964525 0.4948705422569615 0.49682462139716654
0.019511187999796675 0.4880312652662433 0.48900830483634583
0.019699333000062325 0.48998534440644836 0.48412310698583294
0.019887884999661765 0.4909623839765511 0.4782608695652173
0.020076640999832307 0.49193942354665365 0.4811919882755251
0.020265434000066307 0.48998534440644836 0.48705422569614076
0.02045370899986665 0.4909623839765511 0.4938935026868587
0.02064218699979392 0.49193942354665365 0.4978016609672691
0.02083179500004917 0.486077186126038 0.5007327796775769
0.02102034800009278 0.48412310698583294 0.4938935026868587
0.02120886300008351 0.4851001465559355 0.48900830483634583
0.021397119000084786 0.4851001465559355 0.4782608695652173
0.021585079000033147 0.4851001465559355 0.4665363947239862
0.02177303899998151 0.4851001465559355 0.457743038593063
0.021961312999792426 0.4851001465559355 0.45188080117244755
0.022149809999973513 0.4909623839765511 0.44211040547142155
0.022338065999974788 0.48412310698583294 0.43722520762090866
0.022526284999912605 0.486077186126038 0.44406448461162684
0.02271441099992444 0.48998534440644836 0.45676599902296044
0.022902463999798783 0.4880312652662433 0.4636052760136786
0.023090386999683687 0.486077186126038 0.4763067904250122
0.023278382999706082 0.4851001465559355 0.48705422569614076
0.023465788000066823 0.4880312652662433 0.49682462139716654
0.023653709999962302 0.48705422569614076 0.4929164631167562
0.02384122600005867 0.48705422569614076 0.49193942354665365
0.024029259999679198 0.48412310698583294 0.4929164631167562
0.024220701000103873 0.4909623839765511 0.49682462139716654
0.02440988299986202 0.48412310698583294 0.4851001465559355
0.024599138999747083 0.48705422569614076 0.4831460674157304
0.024787154000023293 0.48705422569614076 0.4851001465559355
0.024977076999675774 0.4909623839765511 0.4831460674157304
0.025171980999857624 0.48705422569614076 0.4763067904250122
0.02536038500011273 0.486077186126038 0.4733756717147044
0.025549436999881436 0.4880312652662433 0.4655593551538837
0.025737027000104717 0.48412310698583294 0.45188080117244755
0.025925319999714702 0.486077186126038 0.43722520762090866
0.02611346499998035 0.486077186126038 0.4333170493404983
0.026301127999886376 0.49877870053737183 0.43429408891060084
0.02648984699999346 0.486077186126038 0.4479726428920372
0.026678677999825595 0.4929164631167562 0.46458231558378116
0.02686680399983743 0.4929164631167562 0.4802149487054226
0.027054244999817456 0.4929164631167562 0.4948705422569615
0.027242186999956175 0.4938935026868587 0.49975574010747437
0.027430071999788197 0.4978016609672691 0.5007327796775769
0.027618846999757807 0.4948705422569615 0.5017098192476794
0.027806770000097458 0.4938935026868587 0.5065950170981925
0.02799496999978146 0.495847581827064 0.5075720566682951
0.028183504000026005 0.5046409379579873 0.5056179775280898
0.028371501000037824 0.49877870053737183 0.495847581827064
0.028559201000007306 0.4978016609672691 0.486077186126038
0.028747827999723086 0.49682462139716654 0.4802149487054226
0.02893747300004179 0.4948705422569615 0.4831460674157304
0.029125303000000713 0.4938935026868587 0.49682462139716654
0.02931305899983272 0.49193942354665365 0.5114802149487054
0.02950175899968599 0.4909623839765511 0.5271128480703469
0.029689366999718914 0.4929164631167562 0.5417684416218858
0.029877123000005668 0.48998534440644836 0.5486077186126037
0.030069935000028636 0.48998534440644836 0.5564240351734244
0.030259395000030054 0.4929164631167562 0.5652173913043479
0.03044770599990443 0.4929164631167562 0.5603321934538348
0.03063648099987404 0.49193942354665365 0.5632633121641426
0.030824606999885873 0.4938935026868587 0.5622862725940401
0.031012160000045697 0.4978016609672691 0.5632633121641426
0.03120015600006809 0.495847581827064 0.5593551538837322
0.031387745999836625 0.49975574010747437 0.5525158768930141
0.03157564999992246 0.5046409379579873 0.540791402051783
0.03176309099990249 0.5085490962383976 0.5310210063507572
0.03195090300005177 0.5075720566682951 0.5173424523693209
0.032138973999735754 0.5105031753786029 0.5017098192476794
0.03232722999973703 0.512457254518808 0.48412310698583294
0.032516060000034486 0.5075720566682951 0.4665363947239862
0.0327046679999512 0.5065950170981925 0.45481191988275516
0.03290392400003839 0.5036638983878847 0.4479726428920372
0.03309817999979714 0.5046409379579873 0.44894968246213973
0.03328728799988312 0.5046409379579873 0.45188080117244755
0.03347570999994787 0.5114802149487054 0.4665363947239862
0.03366552199986472 0.5036638983878847 0.48900830483634583
0.03385913000010987 0.5046409379579873 0.5085490962383976
0.034047459999783314 0.5026868588177822 0.524181729360039
0.034235437999996066 0.5026868588177822 0.524181729360039
0.03442389799965895 0.5026868588177822 0.5202735710796287
0.0346118209999986 0.5036638983878847 0.512457254518808
0.03480005799974606 0.5026868588177822 0.5046409379579873
0.03498848099980023 0.495847581827064 0.49975574010747437
0.03517638499988607 0.4978016609672691 0.49877870053737183
0.03536456699976043 0.49193942354665365 0.49877870053737183
0.0355527679998886 0.4938935026868587 0.5007327796775769
0.03574065399971005 0.4938935026868587 0.5046409379579873
0.0359286869997959 0.495847581827064 0.49975574010747437
0.03611727699990297 0.4938935026868587 0.4938935026868587
0.03630529199972443 0.4948705422569615 0.4782608695652173
0.036492473999715 0.48998534440644836 0.4636052760136786
0.03667969299976903 0.4938935026868587 0.44699560332193444
0.036870059999728255 0.49193942354665365 0.4401563263312165
0.037058982999951695 0.4938935026868587 0.44992672203224227
0.0372467389997837 0.4880312652662433 0.45969711773326827
0.03743508799971096 0.486077186126038 0.4763067904250122
0.037622622000071715 0.4880312652662433 0.4948705422569615
0.03781050699990374 0.49193942354665365 0.5026868588177822
0.03799959699972533 0.48900830483634583 0.5046409379579873
0.03818868600001224 0.4880312652662433 0.5075720566682951
0.03837649799970677 0.48900830483634583 0.5134342940889105
0.03856442100004642 0.4909623839765511 0.5134342940889105
0.03875213999981497 0.4948705422569615 0.5056179775280898
0.03894019199969989 0.48900830483634583 0.5017098192476794
0.03912796699978571 0.48705422569614076 0.4929164631167562
0.039315999999871565 0.48900830483634583 0.49193942354665365
0.03950327499978812 0.48900830483634583 0.4938935026868587
0.03969116100006431 0.48900830483634583 0.486077186126038
0.03987900899983288 0.48705422569614076 0.4831460674157304
0.04006698800003505 0.4880312652662433 0.4831460674157304
0.040255002999856515 0.48998534440644836 0.4763067904250122
0.04044342599991069 0.48900830483634583 0.4802149487054226
0.040631162999943626 0.48900830483634583 0.49193942354665365
0.04083101199967132 0.4948705422569615 0.5007327796775769
0.041020619999926566 0.4880312652662433 0.49877870053737183
0.04121620899968548 0.486077186126038 0.49877870053737183
0.04140340899994044 0.48705422569614076 0.5017098192476794
0.04159166499994171 0.4880312652662433 0.5085490962383976
0.04177969900001699 0.48705422569614076 0.5056179775280898
0.04196778899995479 0.49682462139716654 0.5075720566682951
0.042174414999863075 0.48900830483634583 0.5017098192476794
0.04236296699991726 0.4909623839765511 0.495847581827064
0.04255077900006654 0.4909623839765511 0.4851001465559355
0.0427391829998669 0.4909623839765511 0.4704445530043966
0.04292695799995272 0.4909623839765511 0.46165119687347334
0.04311497299977418 0.48900830483634583 0.45676599902296044
0.043303191999712 0.4929164631167562 0.4538348803126526
0.043490762999681465 0.48412310698583294 0.44894968246213973
0.04367870399983076 0.48412310698583294 0.44992672203224227
0.04386651599998004 0.48412310698583294 0.45969711773326827
0.044055382999886206 0.48216902784562765 0.45676599902296044
0.04424352799969711 0.4831460674157304 0.47239863214460187
0.04443113599973003 0.4831460674157304 0.49193942354665365
0.04461913299974185 0.48216902784562765 0.49877870053737183
0.04480672199997571 0.48998534440644836 0.5056179775280898
0.04500501499978782 0.4880312652662433 0.5134342940889105
0.04519301199979964 0.49193942354665365 0.5085490962383976
0.04538134199992783 0.48705422569614076 0.5017098192476794
0.045569393999812746 0.48900830483634583 0.4929164631167562
0.0457571500000995 0.4909623839765511 0.4753297508549097
0.045945720999952755 0.49193942354665365 0.46946751343429405
0.04613388500001747 0.49193942354665365 0.46946751343429405
0.046321529999659106 0.49193942354665365 0.46458231558378116
0.04650974900005167 0.4909623839765511 0.48412310698583294
0.046698189999915485 0.48900830483634583 0.48998534440644836
0.046885723999821494 0.48900830483634583 0.5056179775280898
0.04707346099985443 0.4948705422569615 0.5192965315095261
0.047261217999675864 0.48900830483634583 0.5271128480703469
0.0474493439996877 0.49193942354665365 0.5329750854909623
0.04763726700002735 0.4909623839765511 0.5329750854909623
0.04782485599980646 0.4909623839765511 0.5388373229115779
0.04801300100007211 0.4938935026868587 0.5417684416218858
0.04820399799973529 0.4948705422569615 0.5437225207620908
0.04839271699984238 0.49682462139716654 0.5466536394723986
0.04858112100009748 0.49877870053737183 0.5437225207620908
0.048769265999908384 0.49877870053737183 0.5378602833414754
0.04895907799982524 0.49682462139716654 0.5271128480703469
0.049147482000080345 0.49975574010747437 0.5192965315095261
0.04934347800008254 0.49975574010747437 0.5046409379579873
0.04953197499980888 0.5026868588177822 0.5046409379579873
0.049720045999947615 0.5026868588177822 0.49682462139716654
0.04990793199976906 0.5026868588177822 0.4978016609672691
0.05009548399993946 0.5046409379579873 0.48216902784562765
0.050282758999856014 0.5026868588177822 0.4704445530043966
0.050470921999931306 0.5026868588177822 0.4557889594528579
0.05065917799993258 0.5046409379579873 0.4479726428920372
0.0508471749999444 0.5026868588177822 0.4352711284807034
0.0510355419996813 0.5046409379579873 0.4352711284807034
0.05122348399982002 0.5046409379579873 0.44992672203224227
0.05141153599970494 0.5007327796775769 0.4528578407425501
0.05159936599966386 0.5026868588177822 0.4665363947239862
0.051787214999876596 0.5046409379579873 0.48216902784562765
0.05197547099987787 0.5065950170981925 0.4938935026868587
0.052163078999910795 0.5046409379579873 0.5026868588177822
0.05235142799983805 0.5036638983878847 0.5065950170981925
0.05253929499986043 0.5075720566682951 0.5046409379579873
0.052726642999914475 0.5046409379579873 0.5056179775280898
0.052923972999906255 0.5036638983878847 0.5095261358085001
0.05311245199982295 0.5056179775280898 0.512457254518808
0.053300726000088616 0.5065950170981925 0.5183194919394236
0.05348864899997352 0.512457254518808 0.5192965315095261
0.05367583099996409 0.5017098192476794 0.522227650219834
0.05386353099993357 0.5056179775280898 0.522227650219834
0.05405187999986083 0.49682462139716654 0.5183194919394236
0.05424563599990506 0.49682462139716654 0.5085490962383976
0.05443557699982193 0.4938935026868587 0.5007327796775769
0.0546242219998021 0.49682462139716654 0.48705422569614076
0.05481220100000428 0.4938935026868587 0.4704445530043966
0.055000641999868094 0.4948705422569615 0.46262823644357587
0.05518913900004918 0.495847581827064 0.45188080117244755
0.055377265000061016 0.495847581827064 0.44406448461162684
0.05556553999986136 0.4938935026868587 0.43429408891060084
0.055753222000021196 0.48998534440644836 0.4401563263312165
0.055941774000075384 0.4929164631167562 0.4401563263312165
0.05612943799997083 0.4880312652662433 0.4528578407425501
0.056317785999908665 0.49682462139716654 0.46458231558378116
0.0565053759996772 0.48900830483634583 0.4782608695652173
0.05669370599980539 0.4909623839765511 0.4880312652662433
0.05688218399973266 0.48998534440644836 0.4929164631167562
0.05707179199998791 0.4909623839765511 0.4929164631167562
0.05726595499982068 0.4880312652662433 0.4929164631167562
0.05745413699969504 0.48998534440644836 0.49877870053737183
0.057642170999770315 0.48998534440644836 0.4948705422569615
0.05783046399983505 0.48998534440644836 0.49975574010747437
0.05802046100006919 0.49682462139716654 0.5085490962383976
0.05820686500010197 0.4929164631167562 0.5232046897899365
0.05839275099970109 0.4938935026868587 0.533952125061065
0.058833520999996836 0.49877870053737183 0.522227650219834
0.059022425999955885 0.49877870053737183 0.5026868588177822
0.05920742199987217 0.49682462139716654 0.4811919882755251
0.059393326999725105 0.4948705422569615 0.4636052760136786
0.05957900899966262 0.49193942354665365 0.45188080117244755
0.05976400600002307 0.48900830483634583 0.44894968246213973
0.059948947000066255 0.48900830483634583 0.44894968246213973
0.060134739999739395 0.4851001465559355 0.45188080117244755
0.060319495999920036 0.48705422569614076 0.4606741573033708
0.06050465999987864 0.48705422569614076 0.4704445530043966
0.06068950799999584 0.4851001465559355 0.4753297508549097
0.060879783000018506 0.4851001465559355 0.47923790913532005
0.06106915000009394 0.4880312652662433 0.47142159257449934
0.06125768399988374 0.48216902784562765 0.46458231558378116
0.061446772999715904 0.4831460674157304 0.46262823644357587
0.061635195999770076 0.4831460674157304 0.46262823644357587
0.06182332199978191 0.4831460674157304 0.4704445530043966
0.06201135599985719 0.48412310698583294 0.47923790913532005
0.06220055699986915 0.48900830483634583 0.49193942354665365
0.06238857199969061 0.4880312652662433 0.4948705422569615
0.0625774579998506 0.48705422569614076 0.48900830483634583
0.06277526899975783 0.48900830483634583 0.4948705422569615
0.06297854400008873 0.48998534440644836 0.4948705422569615
0.06317668800011234 0.49193942354665365 0.495847581827064
0.06338272199991479 0.486077186126038 0.4938935026868587
0.0635824779997165 0.48412310698583294 0.48705422569614076
0.06377914099994086 0.48216902784562765 0.4831460674157304
0.06397426700004871 0.48216902784562765 0.47728382999511476
0.06417070899988175 0.4831460674157304 0.4782608695652173
0.06436435299974619 0.4811919882755251 0.4733756717147044
0.06455725799969514 0.486077186126038 0.4802149487054226
0.06474640299984458 0.4851001465559355 0.47142159257449934
0.06494113999997353 0.48412310698583294 0.47142159257449934
0.06513572899984865 0.48900830483634583 0.46946751343429405
0.0653343189997031 0.4909623839765511 0.47239863214460187
0.06555842599982498 0.49193942354665365 0.4606741573033708
0.06578245899981994 0.49193942354665365 0.4479726428920372
0.06601925099994332 0.49682462139716654 0.44894968246213973
0.06624432199987496 0.495847581827064 0.4460185637518319
0.06651063199979035 0.5007327796775769 0.4606741573033708
0.06674347999978636 0.5007327796775769 0.4763067904250122
0.06694673599986345 0.4978016609672691 0.4909623839765511
0.06714628800000355 0.4978016609672691 0.5046409379579873
0.06737472799977695 0.49682462139716654 0.522227650219834
0.06761770599996453 0.4929164631167562 0.5300439667806547
0.06781196199972328 0.49193942354665365 0.533952125061065
0.06800290299997869 0.49975574010747437 0.5368832437713726
0.06819221499972627 0.48900830483634583 0.5378602833414754
0.06838191499991808 0.4880312652662433 0.5368832437713726
0.06857094899987715 0.48216902784562765 0.5349291646311676
0.06876581599999554 0.48216902784562765 0.5446995603321934
0.06897071999992477 0.4831460674157304 0.5486077186126037
0.06916582799976823 0.4831460674157304 0.5574010747435272
0.06936023199978081 0.4880312652662433 0.550561797752809
0.06956232099992121 0.48705422569614076 0.5456765999022961
0.06975755799976469 0.486077186126038 0.5359062042012701
0.06997810999973808 0.4909623839765511 0.5290669272105519
0.0702061799997864 0.49193942354665365 0.5300439667806547
0.07042337999973824 0.4978016609672691 0.5349291646311676
0.07064832099968044 0.4978016609672691 0.5486077186126037
0.07087835399988762 0.4978016609672691 0.5515388373229115
0.07111990599969431 0.5026868588177822 0.5622862725940401
0.07133399499980442 0.5046409379579873 0.550561797752809
0.07153326899970125 0.5017098192476794 0.540791402051783
0.07172826599980908 0.49975574010747437 0.5212506106497312
0.07194328099967606 0.5036638983878847 0.4978016609672691
0.0721617399999559 0.5046409379579873 0.4733756717147044
0.07237973599967518 0.5105031753786029 0.45481191988275516
0.07259910299990224 0.5153883732291158 0.44699560332193444
0.07280052499982048 0.5065950170981925 0.44699560332193444
0.07302740999966773 0.5075720566682951 0.43917928676111373
0.07322775900001943 0.5056179775280898 0.4303859306301905
0.07346142100004727 0.5114802149487054 0.42256961406936977
0.07369597299975794 0.5056179775280898 0.4108451392281387
0.07390237699974023 0.5046409379579873 0.41182217879824123
0.07410889199991288 0.5036638983878847 0.4255007327796776
0.07430753700009518 0.5046409379579873 0.4352711284807034
0.0745048300000235 0.5056179775280898 0.4528578407425501
0.0747212699998272 0.5026868588177822 0.4684904738641915
0.07491878599967094 0.49877870053737183 0.4851001465559355
0.07511867099992742 0.5017098192476794 0.4978016609672691
0.07531474200004595 0.49975574010747437 0.5036638983878847
0.07552046099999643 0.4978016609672691 0.5056179775280898
0.07573788299987427 0.5036638983878847 0.5085490962383976
0.07594102799976099 0.49877870053737183 0.5065950170981925
0.07615459799990276 0.49877870053737183 0.49975574010747437
0.07635131699998965 0.49682462139716654 0.4978016609672691
0.0765500540001085 0.495847581827064 0.48900830483634583
0.07674795799994172 0.4948705422569615 0.4811919882755251
0.07697189900000012 0.4929164631167562 0.4733756717147044
0.07719235800004753 0.49877870053737183 0.4733756717147044
0.07741359500005274 0.48998534440644836 0.47728382999511476
0.07762259199989785 0.48705422569614076 0.48705422569614076
0.07782986599977448 0.48900830483634583 0.5007327796775769
0.07802771399974517 0.48998534440644836 0.49877870053737183
0.07823478499994962 0.4929164631167562 0.5056179775280898
0.07847485499996765 0.4948705422569615 0.5065950170981925
0.0786918879998666 0.4929164631167562 0.5075720566682951
0.07889819999991232 0.4909623839765511 0.5114802149487054
0.079088382000009 0.48705422569614076 0.5095261358085001
0.07927750799990463 0.49193942354665365 0.5065950170981925
0.07946494899988465 0.48900830483634583 0.5046409379579873
0.07965350199992827 0.4880312652662433 0.5007327796775769
0.07984170200006702 0.4929164631167562 0.48705422569614076
0.08005404999994425 0.4929164631167562 0.4802149487054226
0.0802427879998504 0.4909623839765511 0.46165119687347334
0.0804312850000315 0.4909623839765511 0.44992672203224227
0.08061872600001152 0.49193942354665365 0.44211040547142155
0.08084733299983782 0.48900830483634583 0.4430874450415241
0.08103882999967027 0.48900830483634583 0.44894968246213973
0.08122825300006298 0.48998534440644836 0.45969711773326827
0.08141606399976808 0.48900830483634583 0.4665363947239862
0.08160493199966368 0.48900830483634583 0.4763067904250122
0.08179272500001389 0.48900830483634583 0.47728382999511476
0.08198201799996241 0.486077186126038 0.4831460674157304
0.08217151500002728 0.48705422569614076 0.486077186126038
0.08235990000002857 0.48705422569614076 0.4763067904250122
0.08254797099971256 0.48705422569614076 0.47142159257449934
0.08273704199973508 0.486077186126038 0.46165119687347334
0.08292561300004309 0.4851001465559355 0.457743038593063
0.08311446199968486 0.486077186126038 0.45676599902296044
0.08331795799995234 0.4880312652662433 0.4509037616023448
0.08351028800007043 0.48998534440644836 0.4606741573033708
0.08371000699980868 0.486077186126038 0.457743038593063
0.08392639199973928 0.48412310698583294 0.4655593551538837
0.08417483199991693 0.486077186126038 0.4782608695652173
0.08444836499984376 0.48412310698583294 0.4811919882755251
0.08470474899968394 0.48705422569614076 0.4802149487054226
0.08500755899967771 0.48705422569614076 0.4704445530043966
0.08523946300010721 0.49682462139716654 0.4763067904250122
0.08547232899991286 0.48705422569614076 0.4929164631167562
0.08572102800007997 0.49193942354665365 0.533952125061065
0.08602472699976715 0.4929164631167562 0.5681485100146555
0.08627294500001881 0.49193942354665365 0.5925744992672204
0.08653003299968987 0.49193942354665365 0.6003908158280411
0.0868160469999566 0.48998534440644836 0.6023448949682462
0.08707585699994524 0.4880312652662433 0.5925744992672204
0.0873165009998047 0.4948705422569615 0.5564240351734244
0.08755190500005483 0.48900830483634583 0.533952125061065
0.08777099400003863 0.486077186126038 0.5105031753786029
0.08800613799985513 0.49193942354665365 0.4909623839765511
0.08823359699999855 0.48900830483634583 0.48998534440644836
0.08846238899968739 0.486077186126038 0.4948705422569615
0.08869331100004274 0.48998534440644836 0.48216902784562765
0.08906317499986471 0.4880312652662433 0.4831460674157304
0.08944709499974124 0.48705422569614076 0.47923790913532005
0.08970236799996201 0.48998534440644836 0.4753297508549097
0.08992356799990375 0.48900830483634583 0.46946751343429405
0.09014160199967591 0.4909623839765511 0.46165119687347334
0.09034241299968926 0.49682462139716654 0.44406448461162684
0.0905497240000841 0.5007327796775769 0.4382022471910112
0.09076538699991943 0.4978016609672691 0.4538348803126526
0.09105378999993263 0.5007327796775769 0.48998534440644836
0.09128732299996045 0.4978016609672691 0.5144113336590133
0.09150809699985984 0.5017098192476794 0.5329750854909623
0.09174022299976059 0.5046409379579873 0.5280898876404494
0.09195642299982865 0.5065950170981925 0.5065950170981925
0.09217151199982254 0.5026868588177822 0.49877870053737183
0.0924077669997132 0.5105031753786029 0.5007327796775769
0.09262183700002424 0.5036638983878847 0.5007327796775769
0.09289081399992938 0.5056179775280898 0.5026868588177822
0.0931244959997457 0.4978016609672691 0.48998534440644836
0.09335923199978424 0.5046409379579873 0.46262823644357587
0.09372391099986999 0.5026868588177822 0.45676599902296044
0.09398092499986888 0.5017098192476794 0.46262823644357587
0.09420331100000112 0.5026868588177822 0.47728382999511476
0.09443117699993309 0.5036638983878847 0.4831460674157304
0.09465787699991779 0.49877870053737183 0.4948705422569615
0.09497027899988097 0.49877870053737183 0.4948705422569615
0.09520747899978232 0.49682462139716654 0.4851001465559355
0.09544275300004301 0.4978016609672691 0.4782608695652173
0.09566032299971994 0.5007327796775769 0.4831460674157304
0.09587598600001002 0.5056179775280898 0.46458231558378116
0.09606988999985333 0.5065950170981925 0.45676599902296044
0.0962585349998335 0.5036638983878847 0.4509037616023448
0.09644717999981367 0.5046409379579873 0.45188080117244755
0.09663645499995255 0.5017098192476794 0.44406448461162684
0.09686591399986355 0.5085490962383976 0.44211040547142155
0.09705922500006636 0.5026868588177822 0.44699560332193444
0.0972488140000678 0.5007327796775769 0.44699560332193444
0.09743653399982577 0.4909623839765511 0.45481191988275516
0.0976248269998905 0.486077186126038 0.44894968246213973
0.09781511999972281 0.4880312652662433 0.4430874450415241
0.09800280199988265 0.486077186126038 0.4460185637518319
0.09819109499994738 0.48900830483634583 0.4479726428920372
0.09837886900004378 0.48705422569614076 0.45481191988275516
0.09856649599987577 0.48900830483634583 0.4753297508549097
0.09875391900004615 0.486077186126038 0.4831460674157304
0.09894230400004744 0.486077186126038 0.495847581827064
0.09913031999985833 0.486077186126038 0.5153883732291158
0.09931824199975381 0.48998534440644836 0.5271128480703469
0.09950703499998781 0.48412310698583294 0.5349291646311676
0.09969460599995728 0.486077186126038 0.5329750854909623
0.09988441799987413 0.4802149487054226 0.533952125061065
0.10008374800008824 0.4880312652662433 0.5310210063507572
0.10029122600008122 0.48412310698583294 0.5300439667806547
0.10049512999967192 0.486077186126038 0.524181729360039
0.10069260799991753 0.4851001465559355 0.5153883732291158
0.10092030799978602 0.4831460674157304 0.5173424523693209
0.10111906399970394 0.4880312652662433 0.5153883732291158
0.10132572699967568 0.48705422569614076 0.5192965315095261
0.10156237099999998 0.48412310698583294 0.5349291646311676
0.10178947799977323 0.486077186126038 0.5437225207620908
0.10202114100002291 0.4851001465559355 0.5486077186126037
0.10226578499987227 0.48412310698583294 0.5427454811919883
0.10254070599967235 0.486077186126038 0.5349291646311676
0.10276927599988994 0.48216902784562765 0.5261358085002443
0.10297034699988217 0.48216902784562765 0.5173424523693209
0.10316852899995865 0.48900830483634583 0.5183194919394236
0.10336263699991832 0.4880312652662433 0.5065950170981925
0.10356046700007937 0.4880312652662433 0.49682462139716654
0.10376690799967037 0.48412310698583294 0.48900830483634583
0.10398695999992924 0.48900830483634583 0.4811919882755251
0.10421117799978674 0.49193942354665365 0.4763067904250122
0.10442622999971718 0.486077186126038 0.47435271128480694
0.10462509699982547 0.49193942354665365 0.48216902784562765
0.10486881499991796 0.48998534440644836 0.4811919882755251
0.1050851629997851 0.49193942354665365 0.4733756717147044
0.10529064100001051 0.495847581827064 0.46946751343429405
0.10550643399983528 0.4909623839765511 0.46458231558378116
0.10571537499981787 0.4929164631167562 0.46946751343429405
0.10591848200010645 0.48998534440644836 0.4811919882755251
0.10611440499997116 0.49682462139716654 0.5026868588177822
0.1063098279996666 0.495847581827064 0.5192965315095261
0.10651495399997657 0.49193942354665365 0.533952125061065
0.10671211699991545 0.4929164631167562 0.5368832437713726
0.10691407700005584 0.4880312652662433 0.5446995603321934
0.1071190919997207 0.4880312652662433 0.5476306790425012
0.10730931099988084 0.4880312652662433 0.5554469956033219
0.10749789999999848 0.4880312652662433 0.5359062042012701
0.10768641499998921 0.4880312652662433 0.5134342940889105
0.1078763569998955 0.48900830483634583 0.48412310698583294
0.10810953800000789 0.4909623839765511 0.46946751343429405
0.10829901599981895 0.486077186126038 0.44894968246213973
0.10848903099986273 0.4909623839765511 0.4430874450415241
0.10867830600000161 0.48998534440644836 0.4352711284807034
0.10886750600002415 0.4929164631167562 0.42745481191988266
0.10905526199985616 0.4938935026868587 0.4255007327796776
0.10924462999992102 0.49682462139716654 0.4235466536394723
0.1094333490000281 0.4978016609672691 0.4235466536394723
0.10962128999972265 0.49877870053737183 0.4264777723497801
0.10980908300007286 0.49682462139716654 0.4352711284807034
0.10999646899972504 0.49975574010747437 0.44211040547142155
0.11018542900001194 0.49682462139716654 0.4509037616023448
0.11037357299983341 0.49877870053737183 0.467513434294089
0.11056171800009906 0.49682462139716654 0.4802149487054226
0.11074917799987816 0.49682462139716654 0.4929164631167562
0.1109374529996785 0.49682462139716654 0.4929164631167562
0.11113557899989246 0.5007327796775769 0.49682462139716654
0.11132440899973517 0.4978016609672691 0.5017098192476794
0.11151259100006428 0.5007327796775769 0.5036638983878847
0.11170090299992808 0.49682462139716654 0.49975574010747437
0.11188893700000335 0.4938935026868587 0.4938935026868587
0.11207656299984592 0.49682462139716654 0.486077186126038
0.11226424500000576 0.49877870053737183 0.4948705422569615
0.1124519089999012 0.5036638983878847 0.48216902784562765
0.11264071999994485 0.49682462139716654 0.48705422569614076
0.11284180899974672 0.5007327796775769 0.48900830483634583
0.11303139899973758 0.495847581827064 0.48900830483634583
0.11322756199979267 0.49877870053737183 0.4929164631167562
0.11343833599994468 0.49975574010747437 0.4851001465559355
0.11365927699989697 0.5017098192476794 0.4802149487054226
0.11387321799975325 0.5075720566682951 0.47435271128480694
0.11408960299968385 0.5007327796775769 0.4763067904250122
0.11428917400007776 0.5046409379579873 0.4733756717147044
0.11448820699979478 0.5017098192476794 0.47435271128480694
0.11468433399977584 0.5095261358085001 0.4802149487054226
0.1148807009999473 0.5026868588177822 0.48412310698583294
0.11508021600002394 0.5017098192476794 0.4909623839765511
0.11527543500005777 0.5046409379579873 0.49682462139716654
0.11548317200004021 0.5065950170981925 0.5065950170981925
0.11571159400000397 0.5046409379579873 0.5134342940889105
0.11592886800008273 0.5036638983878847 0.5153883732291158
0.11612543899991579 0.5036638983878847 0.5114802149487054
0.1163164169997799 0.5017098192476794 0.5144113336590133
0.11650995099989814 0.49877870053737183 0.5153883732291158
0.11672876200009341 0.495847581827064 0.5095261358085001
0.11697844299987992 0.4948705422569615 0.5163654127992183
0.11721588299997165 0.48900830483634583 0.5192965315095261
0.11744887899976675 0.48998534440644836 0.5232046897899365
0.11766041300006691 0.486077186126038 0.5192965315095261
0.11786444600011237 0.4909623839765511 0.524181729360039
0.1180665729998509 0.4851001465559355 0.5271128480703469
0.1182691059998433 0.48900830483634583 0.540791402051783
0.11846486200010986 0.48900830483634583 0.5476306790425012
0.11865737700009049 0.4851001465559355 0.550561797752809
0.11885554099990259 0.4909623839765511 0.5495847581827065
0.1190568520000852 0.4880312652662433 0.5329750854909623
0.11925471899985496 0.4880312652662433 0.512457254518808
0.11945216000003711 0.48900830483634583 0.48900830483634583
0.11965256399980717 0.486077186126038 0.4704445530043966
0.1199259299996811 0.48412310698583294 0.46946751343429405
0.12012231600010637 0.48412310698583294 0.4684904738641915
0.12031684899966422 0.4851001465559355 0.4704445530043966
0.12051625300000524 0.486077186126038 0.4509037616023448
0.12075758299988593 0.4880312652662433 0.4264777723497801
0.12096246800001609 0.495847581827064 0.4059599413776258
0.1211559280000074 0.4880312652662433 0.3883732291157791
0.12134670199975517 0.4929164631167562 0.37957987298485585
0.12153430999978809 0.4929164631167562 0.3834880312652662
0.12172204799981046 0.49193942354665365 0.38935026868588185
0.12191576699979123 0.49193942354665365 0.41475329750854906
0.12210454099977142 0.49193942354665365 0.44699560332193444
0.12229251999997359 0.4948705422569615 0.4753297508549097
0.12248038699999597 0.49193942354665365 0.5075720566682951
0.12266901299972233 0.48998534440644836 0.5417684416218858
0.1228570469997976 0.4909623839765511 0.5642403517342451
0.12304635899999994 0.4880312652662433 0.58866634098681
0.12323609599980045 0.48900830483634583 0.6023448949682462
0.1234252229996855 0.4929164631167562 0.5974596971177333
0.12361612699987745 0.49193942354665365 0.5906204201270151
0.12380467899993164 0.48900830483634583 0.5779189057156815
0.12399215699997512 0.48900830483634583 0.5701025891548608
0.12418039499971201 0.49193942354665365 0.5544699560332194
0.12436822499967093 0.4938935026868587 0.5417684416218858
0.12455679599997893 0.49193942354665365 0.5251587689301416
0.12474531099996966 0.4938935026868587 0.49877870053737183
0.1249348819997067 0.49193942354665365 0.48412310698583294
0.12512356399975033 0.49193942354665365 0.47728382999511476
0.12531094999985726 0.4929164631167562 0.4831460674157304
0.12550089099977413 0.48998534440644836 0.4851001465559355
0.1256975359997341 0.4909623839765511 0.48412310698583294
0.12588634799976717 0.495847581827064 0.4831460674157304
0.12607371500007503 0.495847581827064 0.4851001465559355
0.12626193400001284 0.49193942354665365 0.47239863214460187
0.12644974499971795 0.48998534440644836 0.47239863214460187
0.1266377049996663 0.48900830483634583 0.4587200781631655
0.12682555399987905 0.48705422569614076 0.44894968246213973
0.12701260599988018 0.4929164631167562 0.4382022471910112
0.1272004359998391 0.486077186126038 0.441133365901319
0.12738841500004128 0.48412310698583294 0.4352711284807034
0.12757637400000021 0.48216902784562765 0.43917928676111373
0.1277656859997478 0.48705422569614076 0.4450415241817294
0.12797129399996265 0.48705422569614076 0.4528578407425501
0.12816028999986884 0.4851001465559355 0.4665363947239862
0.1283484169998701 0.48998534440644836 0.48412310698583294
0.12853630299969154 0.4880312652662433 0.5036638983878847
0.1287245220000841 0.48900830483634583 0.5192965315095261
0.12899153599983038 0.4880312652662433 0.5261358085002443
0.12918114400008562 0.48998534440644836 0.5183194919394236
0.12937002899980143 0.4938935026868587 0.5114802149487054
0.12955860000010944 0.495847581827064 0.5007327796775769
0.12974735599982523 0.49975574010747437 0.4978016609672691
0.12993674199969973 0.5007327796775769 0.4909623839765511
0.1301285720001033 0.5017098192476794 0.47923790913532005
0.13033455000004324 0.5046409379579873 0.4753297508549097
0.13053369499994005 0.5007327796775769 0.4763067904250122
0.1307340429998476 0.5046409379579873 0.4831460674157304
0.13092585499998677 0.49877870053737183 0.5007327796775769
0.13120394299994587 0.495847581827064 0.5212506106497312
0.13143951299980472 0.49682462139716654 0.5134342940889105
0.13165887900004236 0.4929164631167562 0.49975574010747437
0.13186748699990858 0.4929164631167562 0.4753297508549097
0.1320779089996904 0.495847581827064 0.44992672203224227
0.13230386799978078 0.5007327796775769 0.43624816805080613
0.132550696999715 0.49682462139716654 0.43624816805080613
0.13276467500008948 0.5026868588177822 0.45676599902296044
0.1331262619996778 0.4948705422569615 0.4948705422569615
0.1334034609999435 0.495847581827064 0.5144113336590133
0.13374017699970864 0.5075720566682951 0.5300439667806547
0.1339686729997993 0.5065950170981925 0.5300439667806547
0.13418174399976124 0.5017098192476794 0.5271128480703469
0.1343835739999122 0.5105031753786029 0.5202735710796287
0.1346187919998556 0.5017098192476794 0.49975574010747437
0.1348501209999995 0.5036638983878847 0.4763067904250122
0.1350682469997082 0.5017098192476794 0.4636052760136786
0.13529939199997898 0.5046409379579873 0.45676599902296044
0.1355111099996975 0.49975574010747437 0.47142159257449934
0.13572143999999753 0.5007327796775769 0.4802149487054226
0.13593910300005518 0.49877870053737183 0.4978016609672691
0.13616620999982842 0.4978016609672691 0.5095261358085001
0.1363862620000873 0.5105031753786029 0.5192965315095261
0.13659073999997418 0.4978016609672691 0.522227650219834
0.13678784800003996 0.49877870053737183 0.5212506106497312
0.136993344000075 0.495847581827064 0.5300439667806547
0.1372180630000912 0.4978016609672691 0.5329750854909623
0.13741311500007214 0.4929164631167562 0.5388373229115779
0.13761259300008533 0.4978016609672691 0.5554469956033219
0.13781964500003596 0.495847581827064 0.5593551538837322
0.13802634500007116 0.495847581827064 0.5622862725940401
0.13821763799978726 0.5036638983878847 0.5642403517342451
0.13840635699989434 0.49877870053737183 0.5642403517342451
0.13859439099996962 0.49877870053737183 0.5603321934538348
0.13878346199999214 0.495847581827064 0.5515388373229115
0.13897199599978194 0.4938935026868587 0.5398143624816805
0.13916038199977265 0.48998534440644836 0.5329750854909623
0.13934934100007013 0.4909623839765511 0.5251587689301416
0.139538022999659 0.48900830483634583 0.5163654127992183
0.1397260759999881 0.4909623839765511 0.5153883732291158
0.13991438699986247 0.4851001465559355 0.512457254518808
0.14010249500006466 0.4851001465559355 0.5153883732291158
0.1402906959997381 0.48216902784562765 0.5095261358085001
0.14048030399999334 0.4851001465559355 0.512457254518808
0.14066902300010042 0.4851001465559355 0.5173424523693209
0.14085820499985857 0.4851001465559355 0.5163654127992183
0.14104683100003967 0.48705422569614076 0.5202735710796287
0.14123540199989293 0.48216902784562765 0.5232046897899365
0.14142347300003166 0.4831460674157304 0.5290669272105519
0.14161165499990602 0.48412310698583294 0.5368832437713726
0.14179979999971692 0.48705422569614076 0.5359062042012701
0.14198838899983457 0.4802149487054226 0.5329750854909623
0.14217708999967726 0.4831460674157304 0.5280898876404494
0.1423749199998383 0.4851001465559355 0.5173424523693209
0.14256404599973393 0.4802149487054226 0.5075720566682951
0.14275167300002067 0.4831460674157304 0.48705422569614076
0.14294013199969413 0.486077186126038 0.48412310698583294
0.14312892599991756 0.4811919882755251 0.4753297508549097
0.14331679299993993 0.48216902784562765 0.4851001465559355
0.14350595599989902 0.48412310698583294 0.49193942354665365
0.1436944339998263 0.4831460674157304 0.5026868588177822
0.1438829869998699 0.4929164631167562 0.512457254518808
0.14407172399978663 0.4851001465559355 0.5144113336590133
0.1442608319998726 0.48705422569614076 0.5153883732291158
0.1444489400000748 0.49193942354665365 0.5144113336590133
0.14463695599988569 0.4909623839765511 0.5144113336590133
0.14484115599998404 0.49193942354665365 0.522227650219834
0.14503013400008058 0.49877870053737183 0.522227650219834
0.14521929800002908 0.49877870053737183 0.5319980459208598
0.14543740499993874 0.4948705422569615 0.5280898876404494
0.1456260499999189 0.5026868588177822 0.5183194919394236
0.14581371299982493 0.4938935026868587 0.5134342940889105
0.146002302999932 0.5026868588177822 0.5114802149487054
0.14619124399996508 0.49975574010747437 0.522227650219834
0.14638887000000977 0.4938935026868587 0.5202735710796287
0.14658329299982142 0.495847581827064 0.5300439667806547
0.1467837709997184 0.495847581827064 0.5280898876404494
0.1469961559996591 0.49682462139716654 0.5202735710796287
0.1472028559996943 0.5026868588177822 0.5085490962383976
0.1474023349996969 0.4978016609672691 0.48998534440644836
0.14761623799995505 0.49682462139716654 0.47923790913532005
0.14785423400007858 0.4938935026868587 0.467513434294089
0.14806465699984983 0.4909623839765511 0.467513434294089
0.14829118999978164 0.4929164631167562 0.4528578407425501
0.14854179699977976 0.4909623839765511 0.4479726428920372
0.14877975599983984 0.49193942354665365 0.42940889106008795
0.14946841099981611 0.495847581827064 0.43917928676111373
0.1497115729998768 0.495847581827064 0.45676599902296044
0.14991601399970023 0.5046409379579873 0.4782608695652173
0.15011795500004155 0.49682462139716654 0.49877870053737183
0.15077007399986542 0.5046409379579873 0.5095261358085001
0.15097158899970964 0.49975574010747437 0.5007327796775769
0.15116365999983827 0.4978016609672691 0.4938935026868587
0.15135500799988222 0.4978016609672691 0.48705422569614076
0.15154483800006346 0.5007327796775769 0.4851001465559355
0.15173453899978995 0.5026868588177822 0.4880312652662433
0.15192470200008756 0.49975574010747437 0.5046409379579873
0.15211347700005717 0.5007327796775769 0.5232046897899365
0.1523018630000479 0.5065950170981925 0.5398143624816805
0.15249432199971125 0.49682462139716654 0.5642403517342451
0.15268424499981847 0.4978016609672691 0.5837811431362969
0.15287768600001073 0.49975574010747437 0.6121152906692722
0.15307388699966396 0.49975574010747437 0.6257938446507083
0.15326318000006722 0.4978016609672691 0.631656082071324
0.1534525649999523 0.49975574010747437 0.6345872007816316
0.15364096999974208 0.5036638983878847 0.631656082071324
0.15382961499972225 0.4938935026868587 0.621885686370298
0.15401816699977644 0.4978016609672691 0.6199316072300929
0.1542065339999681 0.5017098192476794 0.5994137762579383
0.15439551200006463 0.49877870053737183 0.5867122618466047
0.15458660200010854 0.5017098192476794 0.5730337078651686
0.15477632100009941 0.4978016609672691 0.550561797752809
0.15500522399997863 0.5017098192476794 0.5271128480703469
0.1551952770000753 0.5036638983878847 0.5085490962383976
0.15538464399969598 0.49877870053737183 0.486077186126038
0.15557338100006746 0.4978016609672691 0.4636052760136786
0.15576239699976213 0.5007327796775769 0.43624816805080613
0.1559521340000174 0.49682462139716654 0.41475329750854906
0.15614250099997662 0.49877870053737183 0.39912066438690763
0.15633170199998858 0.49975574010747437 0.3913043478260869
0.15651988399986294 0.49877870053737183 0.3913043478260869
0.15670888099975855 0.49682462139716654 0.4010747435271129
0.1569260809997104 0.4938935026868587 0.4108451392281387
0.1571152249998704 0.4938935026868587 0.4176844162188569
0.15730374099985056 0.495847581827064 0.4333170493404983
0.15749177499992584 0.4948705422569615 0.4479726428920372
0.15768051199984257 0.4929164631167562 0.46458231558378116
0.15786937899974873 0.4909623839765511 0.48998534440644836
0.1580585799997607 0.486077186126038 0.5183194919394236
0.1582480580000265 0.4909623839765511 0.5456765999022961
0.15843723999978465 0.4978016609672691 0.5759648265754762
0.15862605199981772 0.495847581827064 0.5915974596971176
0.15881486299986136 0.4929164631167562 0.5994137762579383
0.15900297100006355 0.48998534440644836 0.6023448949682462
0.15919128299992735 0.49682462139716654 0.6003908158280411
0.15938050199974896 0.4938935026868587 0.5915974596971176
0.15956810999978188 0.5007327796775769 0.58866634098681
0.15975845799994204 0.4929164631167562 0.5847581827063997
0.15996430699988196 0.4909623839765511 0.5808500244259893
0.1601558039997144 0.486077186126038 0.5730337078651686
0.16034446699995897 0.4851001465559355 0.5632633121641426
0.1605327419997593 0.4802149487054226 0.5564240351734244
0.1607276089998777 0.4831460674157304 0.5525158768930141
0.16092666099984854 0.48216902784562765 0.5417684416218858
0.16111580599999797 0.4802149487054226 0.5359062042012701
0.1613047099999676 0.48216902784562765 0.524181729360039
0.1614930400000958 0.48216902784562765 0.5114802149487054
0.16168085199979032 0.48705422569614076 0.49975574010747437
0.16186919999972815 0.4880312652662433 0.49682462139716654
0.1620557530000042 0.486077186126038 0.4851001465559355
0.16224150900006862 0.4851001465559355 0.48998534440644836
0.16243452399976377 0.4811919882755251 0.5007327796775769
0.16262050299974362 0.4851001465559355 0.5153883732291158
0.16280636999999842 0.4831460674157304 0.533952125061065
0.16300293999984206 0.4851001465559355 0.5359062042012701
0.16318903000001228 0.48705422569614076 0.550561797752809
0.16337576699970668 0.4811919882755251 0.5622862725940401
0.16356167200001437 0.48216902784562765 0.5603321934538348
0.16374722399996244 0.48412310698583294 0.5544699560332194
0.16393375799998466 0.486077186126038 0.5359062042012701
0.16411925500005964 0.4831460674157304 0.522227650219834
0.16432099199982986 0.48412310698583294 0.5095261358085001
0.16451522999977897 0.4851001465559355 0.5114802149487054
0.16470198599972719 0.4851001465559355 0.5173424523693209
0.16493399999990288 0.4831460674157304 0.5368832437713726
0.16514231199971618 0.48216902784562765 0.5486077186126037
0.1653406420000465 0.48998534440644836 0.5583781143136297
0.165546933999849 0.486077186126038 0.5613092330239375
0.165760968000086 0.49193942354665365 0.5554469956033219
0.16596092700001464 0.4929164631167562 0.5476306790425012
0.16615653500002736 0.4948705422569615 0.5515388373229115
0.16635314299992388 0.4929164631167562 0.5515388373229115
0.16655032499966183 0.495847581827064 0.5564240351734244
0.1667466730000342 0.4909623839765511 0.5632633121641426
0.16697511399979703 0.4938935026868587 0.567171470444553
0.16720648000000438 0.49193942354665365 0.5613092330239375
0.1674087729998064 0.4851001465559355 0.5534929164631168
0.16762182499996925 0.4831460674157304 0.5437225207620908
0.16785484000001816 0.4880312652662433 0.5319980459208598
0.1680796509999709 0.48705422569614076 0.5251587689301416
0.16830153599994446 0.48998534440644836 0.5202735710796287
0.16852217999985442 0.5017098192476794 0.512457254518808
0.16874202799999694 0.4948705422569615 0.5026868588177822
0.16897067299987611 0.49682462139716654 0.5085490962383976
0.16917309499967814 0.5007327796775769 0.5105031753786029
0.16937512899994545 0.49682462139716654 0.5271128480703469
0.16957727299995895 0.5036638983878847 0.5417684416218858
0.16977241799986587 0.4978016609672691 0.5544699560332194
0.16998050699976375 0.5065950170981925 0.5720566682950659
0.17017755999995643 0.4978016609672691 0.578895945285784
0.17037407499992696 0.49877870053737183 0.5818270639960919
0.17056568299994979 0.49877870053737183 0.58866634098681
0.17075586500004647 0.49877870053737183 0.5906204201270151
0.17094549100011136 0.5017098192476794 0.5974596971177333
0.17113419199995406 0.5007327796775769 0.5915974596971176
0.17133172500007277 0.5065950170981925 0.5867122618466047
0.17155827699980364 0.512457254518808 0.5720566682950659
0.1717516250000699 0.5065950170981925 0.5544699560332194
0.17194038199977513 0.5056179775280898 0.5319980459208598
0.1721440999999686 0.5065950170981925 0.5144113336590133
0.1723351709997587 0.5085490962383976 0.5065950170981925
0.1725321859998985 0.5017098192476794 0.5085490962383976
0.17272349799986841 0.5056179775280898 0.5183194919394236
0.17293662399970344 0.5056179775280898 0.5271128480703469
0.17312712100010685 0.512457254518808 0.5300439667806547
0.17331767299992862 0.5075720566682951 0.524181729360039
0.17350650299977133 0.5105031753786029 0.5095261358085001
0.17369468500010043 0.5085490962383976 0.48705422569614076
0.17388249699979497 0.5095261358085001 0.47435271128480694
0.17407067899966933 0.5065950170981925 0.4655593551538837
0.1742591759998504 0.5056179775280898 0.4655593551538837
0.17444787599970368 0.5017098192476794 0.47239863214460187
0.17463663199987423 0.5017098192476794 0.47435271128480694
0.1748242769999706 0.5046409379579873 0.4831460674157304
0.17501275499989788 0.5017098192476794 0.4802149487054226
0.17520112300007895 0.49975574010747437 0.4733756717147044
0.17538950800008024 0.495847581827064 0.4636052760136786
0.17557859799990183 0.4948705422569615 0.4509037616023448
0.17576631699967038 0.49877870053737183 0.4430874450415241
0.1759544060000735 0.4929164631167562 0.4333170493404983
0.17614314399997966 0.4948705422569615 0.43429408891060084
0.1763344739997592 0.495847581827064 0.4450415241817294
0.17652335899992977 0.49193942354665365 0.4509037616023448
0.17671167099979357 0.4948705422569615 0.46165119687347334
0.17691353800000797 0.4909623839765511 0.46458231558378116
0.17710249799984012 0.4909623839765511 0.46458231558378116
0.17729088299984141 0.48900830483634583 0.4606741573033708
0.17747980600006485 0.48900830483634583 0.45481191988275516
0.17766924699981246 0.486077186126038 0.44894968246213973
0.17785805899984553 0.48705422569614076 0.441133365901319
0.17804672200009009 0.4909623839765511 0.4557889594528579
0.17823699700011275 0.48412310698583294 0.4528578407425501
0.1784254009999131 0.4851001465559355 0.46262823644357587
0.17861399100002018 0.48900830483634583 0.48705422569614076
0.17880257999968308 0.4909623839765511 0.5105031753786029
0.17899128099998052 0.4880312652662433 0.5095261358085001
0.17917901800001346 0.4880312652662433 0.5153883732291158
0.17936694099989836 0.4880312652662433 0.5144113336590133
0.17955617799998436 0.4880312652662433 0.5105031753786029
0.1797566749996804 0.4909623839765511 0.5095261358085001
0.17994528300005186 0.4909623839765511 0.5153883732291158
0.18013359399992623 0.4938935026868587 0.5173424523693209
0.18032186899972658 0.495847581827064 0.5153883732291158
0.18051027299998168 0.495847581827064 0.5192965315095261
0.1807061959998464 0.495847581827064 0.5173424523693209
0.18091200699973342 0.4948705422569615 0.5163654127992183
0.1811289479996958 0.4929164631167562 0.5280898876404494
0.18135262899977533 0.49193942354665365 0.522227650219834
0.18154857099989385 0.48900830483634583 0.5202735710796287
0.18174478899982205 0.4880312652662433 0.5105031753786029
0.18193595299999288 0.48998534440644836 0.5007327796775769
0.1821347089999108 0.49193942354665365 0.4763067904250122
0.18234407599993574 0.4880312652662433 0.4636052760136786
0.18255275699993945 0.486077186126038 0.441133365901319
0.18274936499983596 0.4851001465559355 0.42256961406936977
0.18307247099983215 0.4831460674157304 0.40693698094772834
0.1833024109996586 0.4831460674157304 0.4079140205178309
0.18351420399994822 0.4831460674157304 0.39716658524670256
0.1848559589998331 0.4811919882755251 0.4079140205178309
0.1852226010000777 0.486077186126038 0.4010747435271129
0.18543633799981762 0.4938935026868587 0.3961895456765998
0.18564727900002254 0.48705422569614076 0.39716658524670256
0.1858485349998773 0.4880312652662433 0.40889106008793363
0.18642984000007345 0.4831460674157304 0.4450415241817294
0.1868914799997583 0.4938935026868587 0.45481191988275516
0.18718378999983543 0.49682462139716654 0.4557889594528579
0.18738335999978517 0.4948705422569615 0.4538348803126526
0.18759609800008548 0.48412310698583294 0.4655593551538837
0.18780055699971854 0.486077186126038 0.48900830483634583
0.18900068499988265 0.4880312652662433 0.49877870053737183
0.18926384699989285 0.48705422569614076 0.512457254518808
0.18947439899966412 0.49877870053737183 0.5144113336590133
0.18970587700005126 0.4948705422569615 0.5183194919394236
0.18991515099969547 0.4929164631167562 0.512457254518808
0.19010640699980286 0.4909623839765511 0.5085490962383976
0.19029510700011087 0.49682462139716654 0.5026868588177822
0.1904855489997317 0.5026868588177822 0.5017098192476794
0.19067393399973298 0.49877870053737183 0.5007327796775769
0.19086276400003044 0.5085490962383976 0.4948705422569615
0.19105076100004226 0.4978016609672691 0.4909623839765511
0.19124031399996966 0.49877870053737183 0.4811919882755251
0.19143199599966465 0.4938935026868587 0.4811919882755251
0.19166425100002016 0.4929164631167562 0.4782608695652173
0.19185448799998994 0.5026868588177822 0.4733756717147044
0.19204311499970572 0.495847581827064 0.47435271128480694
0.19223342599980242 0.48998534440644836 0.46946751343429405
0.19242125699975077 0.495847581827064 0.4655593551538837
0.19260903099984716 0.4880312652662433 0.4528578407425501
0.1927964719998272 0.4929164631167562 0.4382022471910112
0.19305669000004855 0.48998534440644836 0.42745481191988266
0.1932483539999339 0.4948705422569615 0.4264777723497801
0.19343660999993517 0.4938935026868587 0.42159257449926724
0.19362542099997881 0.4948705422569615 0.4186614557889594
0.19381347399985316 0.4938935026868587 0.4284318514899854
0.19400132200007647 0.49877870053737183 0.43429408891060084
0.19418937499995081 0.4929164631167562 0.4382022471910112
0.1943771490000472 0.4938935026868587 0.441133365901319
0.19456462800008012 0.4938935026868587 0.44894968246213973
0.19475267999996504 0.495847581827064 0.44992672203224227
0.1949433989998397 0.49682462139716654 0.4509037616023448
0.19513159899997845 0.5007327796775769 0.46165119687347334
0.195318966999821 0.49975574010747437 0.46262823644357587
0.19550592599989614 0.495847581827064 0.45969711773326827
0.1956942199999503 0.49975574010747437 0.46262823644357587
0.19588255000007848 0.5046409379579873 0.457743038593063
0.19607000999985758 0.5017098192476794 0.4430874450415241
0.19625811700007034 0.49975574010747437 0.4352711284807034
0.19644528099979652 0.4929164631167562 0.4352711284807034
0.19663274100003036 0.495847581827064 0.43624816805080613
0.1968370709996634 0.5007327796775769 0.4450415241817294
0.19703036400005658 0.49975574010747437 0.4557889594528579
0.19722028599971964 0.5046409379579873 0.47239863214460187
0.19740811599967856 0.4938935026868587 0.467513434294089
0.19761587199991482 0.4948705422569615 0.4753297508549097
0.19780933199990614 0.49877870053737183 0.4733756717147044
0.1979971249998016 0.4978016609672691 0.47728382999511476
0.19818493699995088 0.49975574010747437 0.4753297508549097
0.198372432999804 0.4978016609672691 0.4733756717147044
0.19855957799973112 0.4978016609672691 0.46165119687347334
0.19874711200009187 0.4978016609672691 0.45969711773326827
0.19893471999967005 0.4978016609672691 0.4636052760136786
0.19912197599978754 0.49877870053737183 0.46946751343429405
0.19931041800009552 0.4978016609672691 0.4811919882755251
0.19949898799995935 0.4929164631167562 0.4802149487054226
0.1997026700000788 0.495847581827064 0.4802149487054226
0.19989044499970987 0.495847581827064 0.47923790913532005
0.20007716400004938 0.49682462139716654 0.47435271128480694
0.2002643639998496 0.495847581827064 0.46946751343429405
0.20045186099969214 0.48998534440644836 0.44992672203224227
0.20064474699984203 0.48900830483634583 0.4460185637518319
0.20086926099975244 0.4851001465559355 0.42256961406936977
0.20271685999978217 0.4802149487054226 0.4450415241817294
0.20294941099973585 0.4851001465559355 0.46262823644357587
0.20338986699971429 0.4831460674157304 0.4782608695652173
0.20363408499997604 0.48216902784562765 0.486077186126038
0.2038359519997357 0.48412310698583294 0.4929164631167562
0.2040748370000074 0.48412310698583294 0.5026868588177822
0.2042706110000836 0.4880312652662433 0.5036638983878847
0.20445979299984174 0.4948705422569615 0.48900830483634583
0.20464893799999118 0.48900830483634583 0.49193942354665365
0.20487510099974315 0.4831460674157304 0.47728382999511476
0.2050636349999877 0.48412310698583294 0.46458231558378116
0.2052514090000841 0.4831460674157304 0.45676599902296044
0.20543877699992663 0.4851001465559355 0.457743038593063
0.20562699599986445 0.48705422569614076 0.46165119687347334
0.20581364100007704 0.48705422569614076 0.4655593551538837
0.20600067399982436 0.4802149487054226 0.4763067904250122
0.20618861599996308 0.48216902784562765 0.4909623839765511
0.2065252029997282 0.4831460674157304 0.4938935026868587
0.20671288499988805 0.47923790913532005 0.49975574010747437
0.20690041799980463 0.4811919882755251 0.5173424523693209
0.20709156299972165 0.47923790913532005 0.5251587689301416
0.20727922700007184 0.4811919882755251 0.5359062042012701
0.2074673349998193 0.48216902784562765 0.5476306790425012
0.20765527599996858 0.48705422569614076 0.5486077186126037
0.20784245799995915 0.49682462139716654 0.540791402051783
0.20803065900008733 0.49193942354665365 0.5378602833414754
0.20821878500009916 0.49877870053737183 0.5251587689301416
0.20840655999973023 0.4929164631167562 0.5007327796775769
0.20859581600007004 0.5046409379579873 0.48705422569614076
0.2087839239998175 0.4929164631167562 0.46262823644357587
0.20897358699994584 0.49975574010747437 0.431362970200293
0.20916165800008457 0.5026868588177822 0.4079140205178309
0.20935645100007605 0.5017098192476794 0.4049829018075233
0.20954335499982335 0.5036638983878847 0.4049829018075233
0.20973222199972952 0.5065950170981925 0.40986809965803617
0.2099417929998708 0.5007327796775769 0.4255007327796776
0.21013132699999915 0.5065950170981925 0.44211040547142155
0.2103188979999686 0.5017098192476794 0.457743038593063
0.21050652399981118 0.5036638983878847 0.4753297508549097
0.21069377999992867 0.5036638983878847 0.4811919882755251
0.2108808319999298 0.5007327796775769 0.49682462139716654
0.21106764399974054 0.49975574010747437 0.5007327796775769
0.2112546220000695 0.49975574010747437 0.5153883732291158
0.21144219300003897 0.5085490962383976 0.5192965315095261
0.21162933799996608 0.4978016609672691 0.522227650219834
0.21181650199969226 0.5026868588177822 0.5134342940889105
0.2120034989998203 0.5105031753786029 0.5036638983878847
0.21219090299973686 0.49975574010747437 0.486077186126038
0.21237895500007653 0.5026868588177822 0.46946751343429405
0.21256685899970762 0.5065950170981925 0.46165119687347334
0.2127542270000049 0.49975574010747437 0.46165119687347334
0.21294670499992208 0.5007327796775769 0.4704445530043966
0.21313464600007137 0.49975574010747437 0.4880312652662433
0.21332203199972355 0.5007327796775769 0.5065950170981925
0.21350914000004195 0.5007327796775769 0.5163654127992183
0.2136958589999267 0.5007327796775769 0.5183194919394236
0.21388283699980093 0.5017098192476794 0.5075720566682951
0.2140695749999395 0.5036638983878847 0.4929164631167562
0.21425883099982457 0.5007327796775769 0.46946751343429405
0.21444701299969893 0.5065950170981925 0.45188080117244755
0.2146424349998597 0.5026868588177822 0.43624816805080613
0.21483761699983006 0.5105031753786029 0.42452369320957506
0.21507487200005926 0.5026868588177822 0.4255007327796776
0.21527135099995576 0.5007327796775769 0.4157303370786516
0.21547195799985275 0.49682462139716654 0.4079140205178309
0.2156649179996748 0.495847581827064 0.41670737664875435
0.2158608589998039 0.495847581827064 0.42159257449926724
0.21607255899971278 0.4909623839765511 0.42745481191988266
0.21629272199970728 0.48998534440644836 0.4333170493404983
0.21653690299990558 0.4978016609672691 0.431362970200293
0.21680060199969375 0.48900830483634583 0.41475329750854906
0.21710761599979378 0.495847581827064 0.4040058622374205
0.21732933399971444 0.49193942354665365 0.41182217879824123
0.21759142199971393 0.4938935026868587 0.42256961406936977
0.2177952339998228 0.49193942354665365 0.441133365901319
0.21799682299979395 0.48998534440644836 0.45481191988275516
0.2182016339997972 0.4929164631167562 0.47239863214460187
0.21840577900002245 0.48705422569614076 0.4811919882755251
0.2186903669999083 0.486077186126038 0.49193942354665365
0.2189419739997902 0.48412310698583294 0.5202735710796287
0.2203517269999793 0.486077186126038 0.512457254518808
0.2216802610000741 0.48216902784562765 0.43917928676111373
0.2220955499997217 0.48216902784562765 0.4157303370786516
0.22229969399995753 0.4811919882755251 0.4010747435271129
0.22249122799985344 0.4831460674157304 0.3834880312652662
0.22268018799968559 0.4831460674157304 0.3786028334147533
0.22286638900004618 0.4802149487054226 0.3854421104054715
0.22305301500000496 0.4851001465559355 0.4010747435271129
0.2232383820000905 0.4831460674157304 0.4108451392281387
0.22342365699978473 0.48412310698583294 0.43429408891060084
0.2236123759998918 0.4880312652662433 0.4538348803126526
0.22379848399987168 0.486077186126038 0.4753297508549097
0.2239841659998092 0.48705422569614076 0.4929164631167562
0.22416966299988417 0.48705422569614076 0.512457254518808
0.22435536300008607 0.48705422569614076 0.5173424523693209
0.22454052700004468 0.486077186126038 0.5212506106497312
0.2247267089996967 0.486077186126038 0.5261358085002443
0.22495296399984 0.486077186126038 0.522227650219834
0.22513855399984095 0.48900830483634583 0.5261358085002443
0.22532388399986303 0.4909623839765511 0.5319980459208598
0.2255089919999591 0.48705422569614076 0.5378602833414754
0.2256948219996957 0.48412310698583294 0.5378602833414754
0.2258810779999294 0.4909623839765511 0.5359062042012701
0.22606587099971875 0.4851001465559355 0.5212506106497312
0.22625610899967796 0.48900830483634583 0.5065950170981925
0.22644251299971074 0.48900830483634583 0.48998534440644836
0.22662934299978588 0.486077186126038 0.47435271128480694
0.22681552499989266 0.48412310698583294 0.46165119687347334
0.2270018929998514 0.48900830483634583 0.4538348803126526
0.22718770399978894 0.48900830483634583 0.44894968246213973
0.22737340499998027 0.4909623839765511 0.4450415241817294
0.22756258699973841 0.48998534440644836 0.43917928676111373
0.22774817599974995 0.48998534440644836 0.4333170493404983
0.22793406199980382 0.48998534440644836 0.43624816805080613
0.22811954000007972 0.4948705422569615 0.4450415241817294
0.2283047779997105 0.49682462139716654 0.4636052760136786
0.2284900889999335 0.4929164631167562 0.4802149487054226
0.22867549400007192 0.495847581827064 0.495847581827064
0.22886252799980866 0.49877870053737183 0.5202735710796287
0.22904972800006362 0.4909623839765511 0.5486077186126037
0.2292360399997051 0.49682462139716654 0.5730337078651686
0.22946733199978553 0.4948705422569615 0.5876893014167073
0.22965499599968098 0.4948705422569615 0.5925744992672204
0.22984112199992524 0.49877870053737183 0.595505617977528
0.2300270079999791 0.48900830483634583 0.5925744992672204
0.2302226530000553 0.49193942354665365 0.5828041035661944
0.2304090200000246 0.4938935026868587 0.5828041035661944
0.23059459099977175 0.4948705422569615 0.5740107474352711
0.2307798100000582 0.495847581827064 0.5691255495847583
0.23098932499988223 0.495847581827064 0.5701025891548608
0.23120483999991848 0.4938935026868587 0.5613092330239375
0.23139113299976088 0.4978016609672691 0.5456765999022961
0.23157755600004748 0.495847581827064 0.5271128480703469
0.23176301500006957 0.4929164631167562 0.5075720566682951
0.2319485119996898 0.4938935026868587 0.48900830483634583
0.23213449099966965 0.495847581827064 0.46946751343429405
0.23232063599971298 0.4948705422569615 0.4479726428920372
0.232505503000084 0.4938935026868587 0.4206155349291647
0.23269075899997915 0.49877870053737183 0.3903273082559844
0.23287855199987462 0.4938935026868587 0.3776257938446508
0.23306415999968522 0.4909623839765511 0.36492427943331696
0.23326045299972975 0.4938935026868587 0.3629702002931119
0.233457375999933 0.49193942354665365 0.3678553981436248
0.23366274299996803 0.48900830483634583 0.3786028334147533
0.2338684429996647 0.4929164631167562 0.38446507083536874
0.234078364999732 0.49193942354665365 0.3952125061064973
0.23427075099971262 0.48998534440644836 0.4108451392281387
0.2344573400000627 0.49682462139716654 0.42159257449926724
0.2346439670000109 0.4978016609672691 0.43429408891060084
0.23483000099986384 0.5046409379579873 0.43429408891060084
0.2350150899997061 0.5036638983878847 0.4430874450415241
0.23520138300000326 0.5007327796775769 0.44894968246213973
0.235391805999825 0.5017098192476794 0.45481191988275516
0.2355819879999217 0.5036638983878847 0.46262823644357587
0.23578440999972372 0.5095261358085001 0.4684904738641915
0.23597177700003158 0.5134342940889105 0.47239863214460187
0.23615764499982106 0.5085490962383976 0.4802149487054226
0.23634271599985368 0.5105031753786029 0.4831460674157304
0.2365280639996854 0.5105031753786029 0.4978016609672691
0.23671365399968636 0.5065950170981925 0.5144113336590133
0.23692616900007124 0.49975574010747437 0.5271128480703469
0.23711170299975493 0.4978016609672691 0.5378602833414754
0.23729799600005208 0.49877870053737183 0.5534929164631168
0.23750915899972824 0.4978016609672691 0.5564240351734244
0.23769521099984559 0.4929164631167562 0.5661944308744504
0.23788857799991092 0.4938935026868587 0.5681485100146555
0.23807418599972152 0.48900830483634583 0.5730337078651686
0.23826123899971208 0.48998534440644836 0.5740107474352711
0.2384474020000198 0.49975574010747437 0.5681485100146555
0.23863297299976693 0.4909623839765511 0.5613092330239375
0.23881861800009574 0.49193942354665365 0.5525158768930141
0.239003799999864 0.49193942354665365 0.5495847581827065
0.2391897039997275 0.4909623839765511 0.5495847581827065
0.23937455299983412 0.495847581827064 0.5388373229115779
0.23956019799970818 0.48998534440644836 0.5300439667806547
0.23974601000008988 0.4929164631167562 0.5192965315095261
0.2399311359999956 0.4948705422569615 0.5153883732291158
0.24011678099986966 0.48998534440644836 0.5173424523693209
0.24030257399999755 0.48998534440644836 0.5163654127992183
0.24048895999976594 0.48705422569614076 0.5192965315095261
0.24067491999994672 0.48216902784562765 0.5183194919394236
0.24086371299972598 0.48705422569614076 0.524181729360039
0.24105072799966365 0.48900830483634583 0.5232046897899365
0.24123539199990773 0.4851001465559355 0.5329750854909623
0.2414208699997289 0.48900830483634583 0.5476306790425012
0.24160662599979332 0.48412310698583294 0.5613092330239375
0.2417917339998894 0.48900830483634583 0.5583781143136297
0.24197671299998547 0.48412310698583294 0.5574010747435272
0.24216241299973262 0.486077186126038 0.5525158768930141
0.24237959499987483 0.48705422569614076 0.540791402051783
0.2425664429997596 0.4831460674157304 0.5290669272105519
0.24275221800007785 0.48412310698583294 0.522227650219834
0.24293749299977208 0.4880312652662433 0.512457254518808
0.2431229149997307 0.48900830483634583 0.5036638983878847
0.2433078750000277 0.4880312652662433 0.4938935026868587
0.2434928719999334 0.4929164631167562 0.4831460674157304
0.24367914699996618 0.48705422569614076 0.46165119687347334
0.24386425500006226 0.48900830483634583 0.44992672203224227
0.24405001099967194 0.4909623839765511 0.44699560332193444
0.24423534099969402 0.48998534440644836 0.4557889594528579
0.24442081899996992 0.4880312652662433 0.4753297508549097
0.2446062979997805 0.48216902784562765 0.5026868588177822
0.24479262799968637 0.48705422569614076 0.5202735710796287
0.24499736500001745 0.48412310698583294 0.5359062042012701
0.24519373199973415 0.47728382999511476 0.5486077186126037
0.24542130200006795 0.486077186126038 0.540791402051783
0.2456117249998897 0.4851001465559355 0.5280898876404494
0.24580103700009204 0.4880312652662433 0.5105031753786029
0.24599899599979835 0.4802149487054226 0.5046409379579873
0.24618825199968342 0.48412310698583294 0.49193942354665365
0.24637671199980105 0.48705422569614076 0.48998534440644836
0.2465650609997283 0.4851001465559355 0.49193942354665365
0.2467532979999305 0.4929164631167562 0.5046409379579873
0.24694214700002703 0.4948705422569615 0.5212506106497312
0.24713038499976392 0.495847581827064 0.5319980459208598
0.2473187149998921 0.4938935026868587 0.550561797752809
0.24750847099994644 0.4948705422569615 0.5486077186126037
0.2476987269997153 0.5026868588177822 0.5437225207620908
0.2479324819996691 0.4938935026868587 0.5359062042012701
0.2481326080001054 0.5017098192476794 0.5173424523693209
0.24833099399984349 0.4929164631167562 0.4948705422569615
0.24853887900007976 0.4929164631167562 0.47142159257449934
0.24873885699980747 0.4929164631167562 0.45188080117244755
0.2489437799999905 0.4909623839765511 0.4636052760136786
0.249142849999771 0.4880312652662433 0.47923790913532005
0.24939343899995947 0.48998534440644836 0.512457254518808
0.24965406399996937 0.49193942354665365 0.5427454811919883
0.24991196699966167 0.4938935026868587 0.5583781143136297
0.2501608889997442 0.49877870053737183 0.5652173913043479
0.25040649599986864 0.49877870053737183 0.576941866145579
0.25120837099984783 0.5007327796775769 0.533952125061065
0.2514963109997552 0.5026868588177822 0.5173424523693209
0.25172360299984575 0.5095261358085001 0.5056179775280898
0.25204530099972544 0.5007327796775769 0.4978016609672691
0.2523038149997774 0.5007327796775769 0.486077186126038
0.2530370810000022 0.5026868588177822 0.4636052760136786
0.25344959199992445 0.5026868588177822 0.4528578407425501
0.2537253279997458 0.4978016609672691 0.45188080117244755
0.25396084299973154 0.5026868588177822 0.45188080117244755
0.2541838209999696 0.5036638983878847 0.45188080117244755
0.254420835000019 0.5046409379579873 0.45969711773326827
0.25463470199974836 0.5017098192476794 0.4655593551538837
0.2548471800000698 0.49975574010747437 0.4684904738641915
0.2550403059999553 0.4978016609672691 0.4606741573033708
0.2552349879997564 0.5105031753786029 0.4479726428920372
0.2554234109998106 0.5017098192476794 0.4460185637518319
0.2556112409997695 0.5007327796775769 0.43722520762090866
0.2558019969997076 0.5007327796775769 0.44699560332193444
0.256034733999968 0.49877870053737183 0.45676599902296044
0.2562228229999164 0.5056179775280898 0.4733756717147044
0.2564105789997484 0.49682462139716654 0.4851001465559355
0.25659759399968607 0.5017098192476794 0.5026868588177822
0.2567853880000257 0.495847581827064 0.5163654127992183
0.2570002909997129 0.49877870053737183 0.5310210063507572
0.25718854699971416 0.4938935026868587 0.5437225207620908
0.25738189599996986 0.4938935026868587 0.5437225207620908
0.25757022600009805 0.48998534440644836 0.5476306790425012
0.2577577970000675 0.4929164631167562 0.5437225207620908
0.2579462569997304 0.4929164631167562 0.5378602833414754
0.25814179000008153 0.4909623839765511 0.5359062042012701
0.2583318980000513 0.4938935026868587 0.5388373229115779
0.2585199879999891 0.48900830483634583 0.5319980459208598
0.25870722499985277 0.4929164631167562 0.5300439667806547
0.2588946850000866 0.49193942354665365 0.5329750854909623
0.2590828299998975 0.49682462139716654 0.540791402051783
0.25926975299989863 0.4948705422569615 0.5564240351734244
0.25945697199995266 0.4909623839765511 0.5740107474352711
0.2596440059996894 0.4909623839765511 0.58866634098681
0.25983157699965886 0.48900830483634583 0.605276013678554
0.2600188139999773 0.48900830483634583 0.6189545676599901
0.2602062930000102 0.4851001465559355 0.6326331216414265
0.2603936040000008 0.4851001465559355 0.6189545676599901
0.2605806379997375 0.48216902784562765 0.6121152906692722
0.26076846799969644 0.4811919882755251 0.5984367366878358
0.2609592240000893 0.4880312652662433 0.5857352222765022
0.26114718400003767 0.48216902784562765 0.576941866145579
0.26133425499983787 0.486077186126038 0.5613092330239375
0.2615211960001034 0.4948705422569615 0.540791402051783
0.2617082299998401 0.4851001465559355 0.5251587689301416
0.26189511599977777 0.4948705422569615 0.48900830483634583
0.26208307599972613 0.4851001465559355 0.4684904738641915
0.2622701649997907 0.4851001465559355 0.4479726428920372
0.2624572730001091 0.48412310698583294 0.4450415241817294
0.26264486199988824 0.4851001465559355 0.4528578407425501
0.26283246999992116 0.4909623839765511 0.46165119687347334
0.2630196709997108 0.4929164631167562 0.46458231558378116
0.26320827900008226 0.4938935026868587 0.46165119687347334
0.26339520100009395 0.4938935026868587 0.4557889594528579
0.2635821609997038 0.4948705422569615 0.4430874450415241
0.2637697689997367 0.49193942354665365 0.4303859306301905
0.26395750699975906 0.495847581827064 0.4235466536394723
0.26416398499986826 0.48900830483634583 0.4235466536394723
0.264353981000113 0.4851001465559355 0.42159257449926724
0.2645422749997124 0.48900830483634583 0.4323400097703958
0.2647295309998299 0.486077186126038 0.45188080117244755
0.2649372119999498 0.4948705422569615 0.467513434294089
0.26512415399975 0.48900830483634583 0.4880312652662433
0.26531364999982543 0.49193942354665365 0.5095261358085001
0.26550447999989046 0.4880312652662433 0.5251587689301416
0.2657014399997024 0.4880312652662433 0.5349291646311676
0.2659056219999911 0.5026868588177822 0.5398143624816805
0.2660987849999401 0.4909623839765511 0.5456765999022961
0.2662945229999423 0.4938935026868587 0.5466536394723986
0.26648777899981724 0.486077186126038 0.5476306790425012
0.2669236419997105 0.48412310698583294 0.5417684416218858
0.26741472599996996 0.486077186126038 0.5417684416218858
0.267627758999879 0.4851001465559355 0.5368832437713726
0.2678180150001026 0.4929164631167562 0.5368832437713726
0.26800675300000876 0.4948705422569615 0.5319980459208598
0.268195638999714 0.4948705422569615 0.5359062042012701
0.26838459800001147 0.4938935026868587 0.533952125061065
0.26857429899973795 0.5017098192476794 0.5329750854909623
0.2687623329998132 0.495847581827064 0.5319980459208598
0.2689775879998706 0.49975574010747437 0.5300439667806547
0.26916888100004144 0.49975574010747437 0.5300439667806547
0.26935674900005324 0.49975574010747437 0.5310210063507572
0.26954563399976905 0.5007327796775769 0.5349291646311676
0.2697936109998409 0.49682462139716654 0.5349291646311676
0.26998416400010683 0.49975574010747437 0.5280898876404494
0.27017277200002354 0.4978016609672691 0.5290669272105519
0.2703607129997181 0.49682462139716654 0.522227650219834
0.27054756200004704 0.495847581827064 0.512457254518808
0.2707345959997838 0.4938935026868587 0.512457254518808
0.2709216660000493 0.5026868588177822 0.5105031753786029
0.2711090519997015 0.5007327796775769 0.512457254518808
0.27129610499969203 0.49877870053737183 0.5153883732291158
0.27148382399991533 0.5026868588177822 0.5144113336590133
0.2716716719996839 0.5007327796775769 0.5017098192476794
0.2719460749999598 0.5017098192476794 0.49975574010747437
0.27213542399977086 0.5026868588177822 0.4831460674157304
0.27232297599994126 0.49682462139716654 0.4753297508549097
0.27251026899966746 0.5007327796775769 0.46946751343429405
0.2726995620000707 0.5007327796775769 0.46946751343429405
0.2729151329999695 0.5065950170981925 0.4733756717147044
0.273110276999887 0.49877870053737183 0.4782608695652173
0.2732980519999728 0.5007327796775769 0.48412310698583294
0.2734859749998577 0.495847581827064 0.4909623839765511
0.27367424899966863 0.49975574010747437 0.48412310698583294
0.2738678020000407 0.49682462139716654 0.48216902784562765
0.2740694459998849 0.4929164631167562 0.4763067904250122
0.274258257999918 0.49682462139716654 0.4704445530043966
0.27444605099981345 0.4948705422569615 0.4665363947239862
0.27463445500006856 0.4978016609672691 0.4733756717147044
0.274821897000038 0.495847581827064 0.4851001465559355
0.27500854199979585 0.495847581827064 0.4909623839765511
0.2751952609996806 0.49193942354665365 0.49682462139716654
0.2753822019999461 0.4948705422569615 0.5085490962383976
0.27556925399994725 0.495847581827064 0.5202735710796287
0.27575734399988505 0.5036638983878847 0.5359062042012701
0.27594465499987564 0.4978016609672691 0.5456765999022961
0.2761316890000671 0.495847581827064 0.5437225207620908
0.276319704999878 0.5007327796775769 0.5378602833414754
0.27650929399987945 0.49682462139716654 0.5310210063507572
0.27669666099973256 0.5026868588177822 0.5466536394723986
0.2768871949997447 0.49877870053737183 0.5495847581827065
0.27707534000001033 0.49975574010747437 0.5593551538837322
0.2772639289996732 0.49975574010747437 0.5642403517342451
0.27745103699999163 0.5007327796775769 0.5554469956033219
0.277639089999866 0.5017098192476794 0.540791402051783
0.2778273089998038 0.5065950170981925 0.5271128480703469
0.27801499099996363 0.5026868588177822 0.5046409379579873
0.2782089869997435 0.5026868588177822 0.49193942354665365
0.27839813199989294 0.4948705422569615 0.486077186126038
0.2785889249998945 0.495847581827064 0.4929164631167562
0.27878555200004485 0.4929164631167562 0.49877870053737183
0.2789781219998986 0.4909623839765511 0.5075720566682951
0.2791651190000266 0.486077186126038 0.5075720566682951
0.2793524680000701 0.4938935026868587 0.512457254518808
0.2795399459996588 0.49193942354665365 0.5095261358085001
0.27972755399969174 0.486077186126038 0.5114802149487054
0.2799171070000739 0.48998534440644836 0.49877870053737183
0.28010395499995866 0.486077186126038 0.49193942354665365
0.2802909520000867 0.48705422569614076 0.4880312652662433
0.2804782449998129 0.48705422569614076 0.48705422569614076
0.28066553799999383 0.4811919882755251 0.4909623839765511
0.2808915529999467 0.4811919882755251 0.4929164631167562
0.2818049259999498 0.4831460674157304 0.48998534440644836
0.28205242200010616 0.48216902784562765 0.5017098192476794
0.2822663819997615 0.48412310698583294 0.5026868588177822
0.28249535899976763 0.4948705422569615 0.5065950170981925
0.2831008670000301 0.4831460674157304 0.524181729360039
0.28336815900001966 0.48705422569614076 0.5329750854909623
0.28399949999993623 0.4811919882755251 0.5359062042012701
0.2846471559996644 0.48900830483634583 0.5095261358085001
0.2855300480000551 0.48705422569614076 0.495847581827064
0.2858502839999346 0.4831460674157304 0.4948705422569615
0.2862819799997851 0.48216902784562765 0.4948705422569615
0.2866761029999907 0.4880312652662433 0.4811919882755251
0.28698081999982605 0.486077186126038 0.47239863214460187
0.28723546399987754 0.4880312652662433 0.4704445530043966
0.28746946000001117 0.48705422569614076 0.46165119687347334
0.28769878899993273 0.4929164631167562 0.47142159257449934
0.2878959899999245 0.4948705422569615 0.47728382999511476
0.28808631999982026 0.495847581827064 0.486077186126038
0.28827413199996954 0.4938935026868587 0.4909623839765511
0.28846257299983336 0.49975574010747437 0.4978016609672691
0.2886497549998239 0.49877870053737183 0.495847581827064
0.2888628619998599 0.5007327796775769 0.5036638983878847
0.28905589599980885 0.5026868588177822 0.5212506106497312
0.2892433560000427 0.5007327796775769 0.5310210063507572
0.2894314269997267 0.4978016609672691 0.5495847581827065
0.2896193490000769 0.5026868588177822 0.5603321934538348
0.28980701299997236 0.5026868588177822 0.5652173913043479
0.2899940649999735 0.5026868588177822 0.5652173913043479
0.29018702499979554 0.5046409379579873 0.5661944308744504
0.29037491100007173 0.5046409379579873 0.5583781143136297
0.2905627039999672 0.5036638983878847 0.5583781143136297
0.29074986699970395 0.5036638983878847 0.5388373229115779
0.2909373089996734 0.5056179775280898 0.5212506106497312
0.29112443499980145 0.5017098192476794 0.4909623839765511
0.29131146899999294 0.5046409379579873 0.4636052760136786
0.2914992060000259 0.5085490962383976 0.43722520762090866
0.2916876479998791 0.49975574010747437 0.43722520762090866
0.2918749589998697 0.5056179775280898 0.43624816805080613
0.29206256699990263 0.5046409379579873 0.4430874450415241
0.2922538419998091 0.5007327796775769 0.4587200781631655
0.29244300499976816 0.5017098192476794 0.4684904738641915
0.29263257599995995 0.5007327796775769 0.47142159257449934
0.29286512799990305 0.4978016609672691 0.4811919882755251
0.2930555129996719 0.5026868588177822 0.48412310698583294
0.293245805999959 0.5026868588177822 0.48998534440644836
0.2934334699998544 0.5046409379579873 0.5075720566682951
0.2936220219999086 0.5017098192476794 0.5144113336590133
0.2938092599997617 0.5017098192476794 0.5192965315095261
0.29399684899999556 0.5017098192476794 0.5271128480703469
0.29418499399980647 0.5007327796775769 0.5280898876404494
0.2943731390000721 0.495847581827064 0.533952125061065
0.2945613209999465 0.49682462139716654 0.5251587689301416
0.2947488740001063 0.49682462139716654 0.5153883732291158
0.2949360190000334 0.49682462139716654 0.49975574010747437
0.2951238119999289 0.495847581827064 0.4831460674157304
0.295310549000078 0.495847581827064 0.4753297508549097
0.2954979349997302 0.4948705422569615 0.4636052760136786
0.2956859689998055 0.5017098192476794 0.45676599902296044
0.29587309499993353 0.48998534440644836 0.46458231558378116
0.2960599620000721 0.48998534440644836 0.4704445530043966
0.2962471440000627 0.48998534440644836 0.48705422569614076
0.2964341039996725 0.4929164631167562 0.4978016609672691
0.29662150900003326 0.4929164631167562 0.5134342940889105
0.2968240790000891 0.4938935026868587 0.5300439667806547
0.2970347979999133 0.4929164631167562 0.5212506106497312
0.29722751700001027 0.4880312652662433 0.5192965315095261
0.29741621699986354 0.4909623839765511 0.5134342940889105
0.29760428800000227 0.4938935026868587 0.5192965315095261
0.2978109699997731 0.49193942354665365 0.5202735710796287
0.2979985039996791 0.4880312652662433 0.522227650219834
0.29819925999981933 0.49193942354665365 0.5310210063507572
0.2983874229998946 0.48900830483634583 0.5349291646311676
0.2985746979998112 0.486077186126038 0.550561797752809
0.29876317599973845 0.4880312652662433 0.5691255495847583
0.29895087599970793 0.48412310698583294 0.5857352222765022
0.29913809499976196 0.4909623839765511 0.5867122618466047
0.29932618499969976 0.49193942354665365 0.5730337078651686
0.2995134220000182 0.4929164631167562 0.540791402051783
0.2997016969998185 0.49193942354665365 0.5085490962383976
0.2998903229999996 0.4929164631167562 0.4733756717147044
0.3000834679996842 0.48998534440644836 0.4450415241817294
0.3002798719999191 0.49193942354665365 0.43429408891060084
0.30048872099996515 0.4880312652662433 0.4382022471910112
0.3007606239998495 0.486077186126038 0.4557889594528579
0.30107595199979187 0.48900830483634583 0.4704445530043966
0.3013139289996616 0.48998534440644836 0.4811919882755251
0.30151127699991775 0.48705422569614076 0.4851001465559355
0.3016998670000248 0.48998534440644836 0.4948705422569615
0.30189067799983604 0.48998534440644836 0.49193942354665365
0.3020788230001017 0.48705422569614076 0.49877870053737183
0.30226833899996564 0.4909623839765511 0.5017098192476794
0.30245809500001997 0.49193942354665365 0.5144113336590133
0.302652979999948 0.49682462139716654 0.5114802149487054
0.30284634700001334 0.49193942354665365 0.5046409379579873
0.30303843699994104 0.48998534440644836 0.5007327796775769
0.3032465629999024 0.5026868588177822 0.4909623839765511
0.3034526520000327 0.4909623839765511 0.47728382999511476
0.30365051899980244 0.48900830483634583 0.4665363947239862
0.3038574970000809 0.48900830483634583 0.4636052760136786
0.3040608080000311 0.48216902784562765 0.46946751343429405
0.30425495300005423 0.4802149487054226 0.4753297508549097
0.3044532089998029 0.48900830483634583 0.4782608695652173
0.30464885399987907 0.4802149487054226 0.49877870053737183
0.3049011640000572 0.4782608695652173 0.4948705422569615
0.30510319799986974 0.4851001465559355 0.4880312652662433
0.3052981389996603 0.47728382999511476 0.47923790913532005
0.30549980199975835 0.48412310698583294 0.47142159257449934
0.3056884469997385 0.4831460674157304 0.4655593551538837
0.3058774809996976 0.4802149487054226 0.4557889594528579
0.3060651079999843 0.4802149487054226 0.44406448461162684
0.30625406699982705 0.4831460674157304 0.4382022471910112
0.30644052699972235 0.486077186126038 0.4323400097703958
0.3066276909999033 0.4851001465559355 0.4235466536394723
0.3068147619997035 0.48705422569614076 0.4176844162188569
0.3070018329999584 0.4880312652662433 0.4157303370786516
0.307189236999875 0.4929164631167562 0.412799218368344
0.3073767149999185 0.4978016609672691 0.41670737664875435
0.3075640080000994 0.4948705422569615 0.42159257449926724
0.3077512459999525 0.49877870053737183 0.43429408891060084
0.3080237409999427 0.495847581827064 0.441133365901319
0.30821323800000755 0.4938935026868587 0.44699560332193444
0.3084008639998501 0.495847581827064 0.4606741573033708
0.3085881199999676 0.49682462139716654 0.4733756717147044
0.3087752649998947 0.49193942354665365 0.4909623839765511
0.3089645959998961 0.495847581827064 0.5105031753786029
0.3091521289998127 0.49877870053737183 0.5329750854909623
0.3093404040000678 0.4909623839765511 0.5476306790425012
0.3095524929999556 0.4880312652662433 0.5583781143136297
0.3097414529997877 0.4938935026868587 0.5554469956033219
0.3099803189998056 0.4948705422569615 0.5544699560332194
0.31017100100007156 0.4909623839765511 0.5525158768930141
0.3103591270000834 0.4948705422569615 0.5583781143136297
0.3105562169998848 0.49682462139716654 0.5681485100146555
0.3107455099998333 0.49682462139716654 0.5779189057156815
0.31093402499982403 0.4948705422569615 0.5857352222765022
0.31112116999975115 0.4938935026868587 0.578895945285784
0.31130742599998484 0.49975574010747437 0.5652173913043479
0.31149520100007067 0.495847581827064 0.5456765999022961
0.3116823639998074 0.5017098192476794 0.5105031753786029
0.3118691760000729 0.4978016609672691 0.48900830483634583
0.31205633899980967 0.5026868588177822 0.4733756717147044
0.3122436509997897 0.49975574010747437 0.46165119687347334
0.31243716600010885 0.4948705422569615 0.47923790913532005
0.31264284799999587 0.4978016609672691 0.4782608695652173
0.3128829180000139 0.5065950170981925 0.4929164631167562
0.3130823960000271 0.5007327796775769 0.49877870053737183
0.31327074499995433 0.49975574010747437 0.5046409379579873
0.3134576120000929 0.5026868588177822 0.5095261358085001
0.3136458119997769 0.5026868588177822 0.5163654127992183
0.3138330319998204 0.5017098192476794 0.5075720566682951
0.31402026899968405 0.5026868588177822 0.5036638983878847
0.314207432999865 0.5026868588177822 0.49975574010747437
0.3143955779996759 0.5046409379579873 0.49193942354665365
0.3146692769996662 0.5056179775280898 0.48900830483634583
0.31488186599972323 0.5036638983878847 0.4782608695652173
0.31588758899988534 0.4978016609672691 0.48998534440644836
0.31612351099965963 0.4938935026868587 0.5036638983878847
0.3163320079997902 0.4929164631167562 0.5046409379579873
0.31653917099993123 0.5007327796775769 0.5017098192476794
0.31674887100007254 0.49877870053737183 0.495847581827064
0.3169852369996988 0.49193942354665365 0.47142159257449934
0.317409674999908 0.49193942354665365 0.45481191988275516
0.3176199300000917 0.4929164631167562 0.44992672203224227
0.31786151899996185 0.4929164631167562 0.45188080117244755
0.318123402999845 0.48705422569614076 0.46262823644357587
0.3183950839998033 0.49193942354665365 0.48998534440644836
0.31889229799980967 0.4880312652662433 0.4909623839765511
0.3191394229997968 0.4880312652662433 0.4948705422569615
0.31936147499982326 0.48900830483634583 0.4909623839765511
0.3195962119998512 0.486077186126038 0.4929164631167562
0.31982548499991026 0.4948705422569615 0.4929164631167562
0.3200502219997361 0.4938935026868587 0.5007327796775769
0.32026303399970857 0.4851001465559355 0.5065950170981925
0.3204987149997578 0.4851001465559355 0.5163654127992183
0.32073413699981757 0.48705422569614076 0.5368832437713726
0.3220871509997778 0.4851001465559355 0.4655593551538837
0.3224504969998634 0.4880312652662433 0.4460185637518319
0.32264062300009755 0.495847581827064 0.4255007327796776
0.32282900900008826 0.4929164631167562 0.4176844162188569
0.32301800499999445 0.48998534440644836 0.41670737664875435
0.32320563199982644 0.4909623839765511 0.42159257449926724
0.3233933139999863 0.48900830483634583 0.42256961406936977
0.32358066300002974 0.4909623839765511 0.42940889106008795
0.3237678820000838 0.486077186126038 0.4303859306301905
0.3239552669997465 0.48900830483634583 0.441133365901319
0.3241417089998322 0.48705422569614076 0.4303859306301905
0.3243284089999179 0.48412310698583294 0.42940889106008795
0.32451536899998246 0.48412310698583294 0.4323400097703958
0.3247025319997192 0.486077186126038 0.43917928676111373
0.3249181769997449 0.48412310698583294 0.4538348803126526
0.32510683999998946 0.4831460674157304 0.44699560332193444
0.32529339299981075 0.48216902784562765 0.4557889594528579
0.32548109299978023 0.4802149487054226 0.46946751343429405
0.32566796099990825 0.4811919882755251 0.47728382999511476
0.325854586999867 0.4782608695652173 0.49877870053737183
0.3260417880001114 0.47923790913532005 0.5114802149487054
0.3262519509999038 0.48705422569614076 0.5183194919394236
0.3264415769999687 0.4811919882755251 0.5261358085002443
0.32663196299972697 0.48216902784562765 0.5349291646311676
0.32681984800001374 0.48216902784562765 0.5388373229115779
0.3270084929999939 0.48412310698583294 0.5192965315095261
0.32719678600005864 0.48900830483634583 0.5007327796775769
0.3273850239997955 0.49877870053737183 0.47142159257449934
0.3275727249997544 0.48900830483634583 0.45188080117244755
0.3277601469999354 0.4948705422569615 0.431362970200293
0.32794710699999996 0.49682462139716654 0.41475329750854906
0.32816595499980394 0.486077186126038 0.4186614557889594
0.3287081499997839 0.4938935026868587 0.42452369320957506
0.3289302569996835 0.48998534440644836 0.42745481191988266
0.3291213829998014 0.49682462139716654 0.43624816805080613
0.3293106020000778 0.5026868588177822 0.44211040547142155
0.3295000620000792 0.49877870053737183 0.45188080117244755
0.3297122069998295 0.5046409379579873 0.44894968246213973
0.3299013329997251 0.49975574010747437 0.4538348803126526
0.3300892190000013 0.49975574010747437 0.45969711773326827
0.3302777710000555 0.4978016609672691 0.46458231558378116
0.33046726799966564 0.5046409379579873 0.467513434294089
0.3306548020000264 0.5017098192476794 0.4655593551538837
0.3308436319998691 0.49975574010747437 0.4763067904250122
0.3310351099999025 0.49877870053737183 0.4782608695652173
0.33122414399986155 0.5026868588177822 0.4948705422569615
0.33141195600001083 0.49682462139716654 0.5036638983878847
0.3315989529996841 0.49193942354665365 0.5134342940889105
0.33178600499968525 0.49877870053737183 0.5173424523693209
0.3319735199997922 0.4938935026868587 0.5202735710796287
0.33216059100004713 0.4938935026868587 0.5202735710796287
0.33234803200002716 0.49682462139716654 0.5163654127992183
0.33253519599975334 0.5046409379579873 0.5095261358085001
0.33272228499981793 0.49975574010747437 0.5144113336590133
0.3329227819999687 0.5007327796775769 0.5144113336590133
0.33311022299994875 0.4938935026868587 0.5144113336590133
0.33329670200009787 0.4978016609672691 0.5056179775280898
0.3334908459996768 0.4978016609672691 0.5007327796775769
0.3336962869998388 0.4938935026868587 0.4909623839765511
0.33389878399975714 0.5046409379579873 0.4929164631167562
0.3342379079999773 0.5046409379579873 0.4978016609672691
0.3344785330000377 0.5026868588177822 0.5075720566682951
0.3346946219999154 0.5075720566682951 0.5144113336590133
0.33488504499973715 0.5007327796775769 0.5192965315095261
0.33507267100003446 0.5007327796775769 0.5095261358085001
0.3352597789998981 0.49877870053737183 0.5065950170981925
0.3354470169997512 0.5036638983878847 0.49193942354665365
0.33563514299976305 0.4978016609672691 0.47435271128480694
0.33582254799966904 0.49877870053737183 0.46458231558378116
0.33600965599998744 0.4929164631167562 0.45676599902296044
0.3361966150000626 0.49682462139716654 0.441133365901319
0.3363850010000533 0.4978016609672691 0.4284318514899854
0.3365717570000015 0.5046409379579873 0.41182217879824123
0.33675888399966425 0.49975574010747437 0.4049829018075233
0.3369736390000071 0.5026868588177822 0.39423546653639474
0.3371608580000611 0.5046409379579873 0.3854421104054715
0.3373477069999353 0.5036638983878847 0.3756717147044455
0.3375349999996615 0.495847581827064 0.3776257938446508
0.3377284600001076 0.49682462139716654 0.38446507083536874
0.33791849399995044 0.4938935026868587 0.3903273082559844
0.3381572299999789 0.49877870053737183 0.3903273082559844
0.3383466899999803 0.49877870053737183 0.3786028334147533
0.339070399999855 0.4929164631167562 0.38935026868588185
0.33926908200010075 0.4938935026868587 0.3903273082559844
0.3394788749997133 0.49193942354665365 0.40986809965803617
0.3396696489999158 0.4909623839765511 0.4352711284807034
0.33985725699994873 0.4909623839765511 0.4655593551538837
0.3400444389999393 0.4909623839765511 0.49877870053737183
0.34023156500006735 0.4880312652662433 0.5300439667806547
0.3404195069997513 0.48900830483634583 0.5603321934538348
0.34060818899979495 0.48412310698583294 0.5925744992672204
0.3407955929997115 0.48705422569614076 0.6160234489496825
0.3410182369998438 0.4880312652662433 0.6277479237909136
0.34120665999989797 0.48412310698583294 0.6355642403517343
0.3413935829998991 0.48216902784562765 0.6365412799218368
0.3415832830000909 0.4851001465559355 0.6238397655105032
0.34177116899991233 0.48705422569614076 0.6170004885197851
0.3419578139996702 0.4831460674157304 0.5984367366878358
0.3421450890000415 0.48216902784562765 0.5847581827063997
0.342333029999736 0.48900830483634583 0.5564240351734244
0.34252030399966316 0.49193942354665365 0.5349291646311676
0.34270813500006625 0.4851001465559355 0.5085490962383976
0.3428950019997501 0.4831460674157304 0.4929164631167562
0.34308179499976177 0.4831460674157304 0.47142159257449934
0.3432688469997629 0.48216902784562765 0.46262823644357587
0.3434557139999015 0.48900830483634583 0.4538348803126526
0.3436431929999344 0.486077186126038 0.4557889594528579
0.34383030099979806 0.48998534440644836 0.4557889594528579
0.344018037999831 0.4880312652662433 0.45481191988275516
0.34425801599991246 0.4909623839765511 0.4606741573033708
0.34444662399982917 0.4880312652662433 0.46262823644357587
0.34463419499979864 0.4929164631167562 0.4606741573033708
0.3448364689998016 0.4978016609672691 0.45676599902296044
0.3450277619999724 0.49975574010747437 0.4509037616023448
0.34521481399997356 0.5065950170981925 0.441133365901319
0.3454013479999958 0.4929164631167562 0.4450415241817294
0.3455878079998911 0.4929164631167562 0.4460185637518319
0.34577452699977584 0.48998534440644836 0.45676599902296044
0.34596156099996733 0.4938935026868587 0.4636052760136786
0.34614822399998957 0.48705422569614076 0.47728382999511476
0.3463916649998282 0.49193942354665365 0.48216902784562765
0.3465820500000518 0.4938935026868587 0.4851001465559355
0.3467821949998324 0.48998534440644836 0.4811919882755251
0.346968932999971 0.4929164631167562 0.47142159257449934
0.3471563180000885 0.4880312652662433 0.47142159257449934
0.34734368599993104 0.495847581827064 0.46946751343429405
0.3475302570000167 0.486077186126038 0.47728382999511476
0.3477186239997536 0.48900830483634583 0.5280898876404494
0.3485448319997886 0.495847581827064 0.5466536394723986
0.34879417999991347 0.4909623839765511 0.5603321934538348
0.3490743970000949 0.4909623839765511 0.5661944308744504
0.34927413400009755 0.486077186126038 0.5622862725940401
0.3494702979996873 0.48900830483634583 0.5652173913043479
0.34967116500001794 0.48412310698583294 0.5486077186126037
0.3498995679997279 0.486077186126038 0.533952125061065
0.3501446010000109 0.4880312652662433 0.5114802149487054
0.35036998599980507 0.49682462139716654 0.4753297508549097
0.35075881300008405 0.48705422569614076 0.46262823644357587
0.35107882600004814 0.49877870053737183 0.4557889594528579
0.35132435900004566 0.495847581827064 0.44699560332193444
0.3515554109999357 0.4929164631167562 0.42940889106008795
0.351761721999992 0.5007327796775769 0.42256961406936977
0.35196353299988914 0.49682462139716654 0.4059599413776258
0.35216260399965904 0.4929164631167562 0.412799218368344
0.35235776699983035 0.5065950170981925 0.4157303370786516
0.35254643100006433 0.5036638983878847 0.4255007327796776
0.35273448299994925 0.5036638983878847 0.44406448461162684
0.3529763679998723 0.49682462139716654 0.45969711773326827
0.35320712299972 0.5046409379579873 0.4763067904250122
0.3533948419999433 0.5085490962383976 0.49193942354665365
0.35358261700002913 0.5036638983878847 0.48998534440644836
0.3537705769999775 0.5105031753786029 0.4938935026868587
0.35395836999987296 0.5114802149487054 0.4929164631167562
0.35414631100002225 0.5183194919394236 0.4831460674157304
0.3543337520000023 0.512457254518808 0.48412310698583294
0.3545318229998884 0.5105031753786029 0.47142159257449934
0.35471970899970984 0.5095261358085001 0.46946751343429405
0.35490772399998605 0.5075720566682951 0.46946751343429405
0.35509577599987097 0.5105031753786029 0.4782608695652173
0.3552836250000837 0.5007327796775769 0.4851001465559355
0.3554802700000437 0.5017098192476794 0.5056179775280898
0.3556880440000896 0.49682462139716654 0.5144113336590133
0.3565814359999422 0.4948705422569615 0.5515388373229115
0.3573056830000496 0.48998534440644836 0.5271128480703469
0.3579517089997353 0.49193942354665365 0.5105031753786029
0.3581594839997706 0.48998534440644836 0.5056179775280898
0.35834948100000474 0.4938935026868587 0.49877870053737183
0.35853862499971 0.4929164631167562 0.4851001465559355
0.3587275669997325 0.49193942354665365 0.4811919882755251
0.35891830399987157 0.4929164631167562 0.4665363947239862
0.3591056709997247 0.48900830483634583 0.4636052760136786
0.3592931499997576 0.4909623839765511 0.4450415241817294
0.3594808689999809 0.4909623839765511 0.44211040547142155
0.3596688659999927 0.486077186126038 0.44406448461162684
0.35985689900007856 0.4851001465559355 0.4460185637518319
0.36004428499973073 0.48705422569614076 0.4382022471910112
0.3602330039998378 0.48705422569614076 0.441133365901319
0.3604195749999235 0.48705422569614076 0.43722520762090866
0.3606061639998188 0.486077186126038 0.44406448461162684
0.36079384599997866 0.486077186126038 0.4460185637518319
0.36100869499978216 0.4880312652662433 0.4509037616023448
0.36119572899997365 0.48412310698583294 0.45676599902296044
0.36138287399990077 0.48216902784562765 0.46165119687347334
0.36157005599989134 0.4831460674157304 0.46165119687347334
0.36175675599997703 0.48412310698583294 0.467513434294089
0.3619450309997774 0.48705422569614076 0.4733756717147044
0.36213245299995833 0.4880312652662433 0.46946751343429405
0.36231932100008635 0.4929164631167562 0.4684904738641915
0.36250627999970675 0.4909623839765511 0.4704445530043966
0.3626933329996973 0.48998534440644836 0.4782608695652173
0.36288131099991006 0.486077186126038 0.4880312652662433
0.363072086000102 0.48900830483634583 0.48216902784562765
0.3632597309997436 0.4909623839765511 0.4880312652662433
0.36344733899977655 0.486077186126038 0.4948705422569615
0.3636354279997249 0.48216902784562765 0.512457254518808
0.3638227769997684 0.4880312652662433 0.5183194919394236
0.3640096069998435 0.4851001465559355 0.5378602833414754
0.3641986220000035 0.4831460674157304 0.5554469956033219
0.36439091500005816 0.48900830483634583 0.5681485100146555
0.36457839300010164 0.48705422569614076 0.5642403517342451
0.36476618699998653 0.4811919882755251 0.5583781143136297
0.36495864600010464 0.4851001465559355 0.5378602833414754
0.3651468099997146 0.4880312652662433 0.5251587689301416
0.3653345099996841 0.4851001465559355 0.5007327796775769
0.36552202599978045 0.4831460674157304 0.48998534440644836
0.36570887399966523 0.4811919882755251 0.4929164631167562
0.36589711199985686 0.4831460674157304 0.4938935026868587
0.3661085339999772 0.4851001465559355 0.5017098192476794
0.3662956610000947 0.4909623839765511 0.5114802149487054
0.36648328699993726 0.4851001465559355 0.5251587689301416
0.36666991399988547 0.4851001465559355 0.5359062042012701
0.3668577439998444 0.4831460674157304 0.5456765999022961
0.36705038899981446 0.49193942354665365 0.5534929164631168
0.36723792199973104 0.4880312652662433 0.5564240351734244
0.3674250489998485 0.48705422569614076 0.5593551538837322
0.367612526999892 0.4880312652662433 0.5515388373229115
0.367799616999946 0.48998534440644836 0.5417684416218858
0.36798718699992605 0.4909623839765511 0.5153883732291158
0.36818879499969626 0.4948705422569615 0.48705422569614076
0.3686327139998866 0.4978016609672691 0.47142159257449934
0.3688636359997872 0.49877870053737183 0.46946751343429405
0.36905898399982107 0.5026868588177822 0.46165119687347334
0.36924838799995996 0.5075720566682951 0.4587200781631655
0.3694363300000987 0.5105031753786029 0.457743038593063
0.36962406699967687 0.5026868588177822 0.45969711773326827
0.36981397099998503 0.5007327796775769 0.46165119687347334
0.3700027089998912 0.5026868588177822 0.47142159257449934
0.3701919459999772 0.5046409379579873 0.47923790913532005
0.37037949899968226 0.5026868588177822 0.4880312652662433
0.3705668469997363 0.5065950170981925 0.5007327796775769
0.3707543259997692 0.5105031753786029 0.5095261358085001
0.3709419520000665 0.49975574010747437 0.5183194919394236
0.3711308189999727 0.49975574010747437 0.5251587689301416
0.37131894599997395 0.49877870053737183 0.5290669272105519
0.3715062759997636 0.495847581827064 0.5359062042012701
0.3716934579997542 0.49682462139716654 0.5359062042012701
0.37188025099976585 0.495847581827064 0.5349291646311676
0.3720671369997035 0.49682462139716654 0.5378602833414754
0.372254707999673 0.4948705422569615 0.5280898876404494
0.37244174199986446 0.4978016609672691 0.5280898876404494
0.3726286269998127 0.49682462139716654 0.5271128480703469
0.37283416099990063 0.4938935026868587 0.5173424523693209
0.3730229719999443 0.495847581827064 0.5114802149487054
0.3732104689997868 0.5007327796775769 0.49975574010747437
0.373397317999661 0.5036638983878847 0.47239863214460187
0.37372481200009133 0.5046409379579873 0.44894968246213973
0.37392040199983967 0.5036638983878847 0.4333170493404983
0.3741106759998729 0.5065950170981925 0.4235466536394723
0.3743110059999708 0.5065950170981925 0.42452369320957506
0.3745002989999193 0.5085490962383976 0.4382022471910112
0.37473562900004254 0.5065950170981925 0.44406448461162684
0.37492545899976903 0.5046409379579873 0.4528578407425501
0.3751133440000558 0.5007327796775769 0.4587200781631655
0.3753023409999514 0.49975574010747437 0.467513434294089
0.3754898749998574 0.5007327796775769 0.4782608695652173
0.3756771309999749 0.5007327796775769 0.4929164631167562
0.3758642949997011 0.49975574010747437 0.5114802149487054
0.3760515320000195 0.4929164631167562 0.5290669272105519
0.3762383809998937 0.49193942354665365 0.5378602833414754
0.37642678499969406 0.4929164631167562 0.5476306790425012
0.37661406000006536 0.49193942354665365 0.5476306790425012
0.3768014449997281 0.4948705422569615 0.5544699560332194
0.37700981199986927 0.48998534440644836 0.5486077186126037
0.3771973459997753 0.4938935026868587 0.5525158768930141
0.37738539900010437 0.4938935026868587 0.5554469956033219
0.37757346899979893 0.49193942354665365 0.5554469956033219
0.37776055899985295 0.4929164631167562 0.5574010747435272
0.37794838899981187 0.4880312652662433 0.5446995603321934
0.3781476079998356 0.48998534440644836 0.5359062042012701
0.37833658599993214 0.49682462139716654 0.5134342940889105
0.37852521300010267 0.4938935026868587 0.4802149487054226
0.37872213499986174 0.4929164631167562 0.4382022471910112
0.3789408719999301 0.4948705422569615 0.4176844162188569
0.37915327599966986 0.5056179775280898 0.4079140205178309
0.379351160999704 0.49877870053737183 0.39912066438690763
0.3795418059999065 0.495847581827064 0.39912066438690763
0.379752950999773 0.4929164631167562 0.40889106008793363
0.379943540000113 0.48900830483634583 0.4255007327796776
0.3801307409999026 0.4938935026868587 0.4430874450415241
0.38031773800003066 0.5007327796775769 0.46165119687347334
0.3805352529998345 0.495847581827064 0.4831460674157304
0.3807272489998468 0.49193942354665365 0.5017098192476794
0.3809441529997457 0.4978016609672691 0.512457254518808
0.38113537199978964 0.48900830483634583 0.5163654127992183
0.3813257580000027 0.49193942354665365 0.524181729360039
0.3815151989997503 0.4909623839765511 0.5310210063507572
0.38170539900011136 0.48998534440644836 0.5319980459208598
0.3818950259997109 0.4948705422569615 0.533952125061065
0.382085318999998 0.4880312652662433 0.5359062042012701
0.3822750009999254 0.48900830483634583 0.5359062042012701
0.3824648489999163 0.4909623839765511 0.5251587689301416
0.3827008449998175 0.4880312652662433 0.512457254518808
0.3829043979999369 0.4880312652662433 0.49975574010747437
0.38309465399970577 0.48705422569614076 0.4880312652662433
0.3832848729998659 0.48900830483634583 0.47142159257449934
0.38347614699978294 0.4880312652662433 0.467513434294089
0.38366668099979506 0.48900830483634583 0.45969711773326827
0.3838580669998919 0.4880312652662433 0.4587200781631655
0.38404858200010494 0.48998534440644836 0.4684904738641915
0.384237930999916 0.4948705422569615 0.47435271128480694
0.3844279639997694 0.4880312652662433 0.47728382999511476
0.3846171649997814 0.4909623839765511 0.48412310698583294
0.38480673599997317 0.48998534440644836 0.4938935026868587
0.3850153799999134 0.48412310698583294 0.5065950170981925
0.3852053589998832 0.48412310698583294 0.5192965315095261
0.38539468899989515 0.48412310698583294 0.5261358085002443
0.3855844999998226 0.48900830483634583 0.533952125061065
0.38577445999999327 0.4763067904250122 0.5349291646311676
0.3859643269997832 0.4880312652662433 0.5290669272105519
0.38615495399972133 0.48412310698583294 0.5290669272105519
0.3863445059996593 0.4811919882755251 0.5280898876404494
0.38653513200006273 0.4851001465559355 0.524181729360039
0.38672514800009594 0.4811919882755251 0.5134342940889105
0.3869152550000763 0.48705422569614076 0.49877870053737183
0.38710523400004604 0.4851001465559355 0.49682462139716654
0.38729519299977255 0.4909623839765511 0.4909623839765511
0.3874867089998588 0.4909623839765511 0.486077186126038
0.3876762800000506 0.4929164631167562 0.495847581827064
0.3878660539999146 0.48900830483634583 0.5046409379579873
0.3880561440000747 0.4948705422569615 0.5183194919394236
0.38824526999997033 0.49193942354665365 0.5232046897899365
0.38843500699977085 0.4909623839765511 0.5280898876404494
0.38862400399966646 0.4929164631167562 0.5163654127992183
0.3888257789999443 0.49682462139716654 0.5007327796775769
0.3890203860000838 0.5026868588177822 0.4733756717147044
0.38921051299985265 0.5026868588177822 0.44894968246213973
0.3894005649999599 0.5036638983878847 0.4430874450415241
0.38959176599973944 0.5085490962383976 0.44406448461162684
0.3897810399998889 0.4978016609672691 0.4587200781631655
0.3899707959999432 0.5017098192476794 0.47239863214460187
0.3901610709999659 0.5017098192476794 0.48412310698583294
0.3903509749998193 0.4978016609672691 0.4938935026868587
0.3905414349997045 0.5017098192476794 0.5046409379579873
0.3907325979998859 0.5026868588177822 0.5105031753786029
0.390932557999804 0.5036638983878847 0.5114802149487054
0.3911232209998161 0.5046409379579873 0.5144113336590133
0.3913130699997964 0.5036638983878847 0.5202735710796287
0.39150430700010475 0.5046409379579873 0.5173424523693209
0.3916943409999476 0.5095261358085001 0.5163654127992183
0.39189192999992883 0.5026868588177822 0.5144113336590133
0.392082149000089 0.5017098192476794 0.512457254518808
0.39227209099999527 0.5017098192476794 0.5212506106497312
0.3924619579997852 0.5036638983878847 0.5300439667806547
0.3926513619999241 0.5007327796775769 0.5446995603321934
0.3928428399999575 0.5075720566682951 0.5427454811919883
0.39303309599972636 0.5017098192476794 0.5446995603321934
0.39322220399981234 0.5026868588177822 0.5378602833414754
0.3934117750000041 0.49682462139716654 0.5329750854909623
0.39360114200007956 0.5036638983878847 0.5349291646311676
0.3945983469998282 0.4948705422569615 0.5466536394723986
0.39479634400004215 0.4938935026868587 0.5466536394723986
0.3949889699997584 0.48998534440644836 0.5466536394723986
0.3951789859997916 0.48998534440644836 0.5544699560332194
0.39537066799994136 0.4929164631167562 0.5476306790425012
0.39556120099996406 0.49193942354665365 0.5368832437713726
0.3957518459997118 0.4978016609672691 0.5105031753786029
0.3959416580000834 0.49193942354665365 0.4929164631167562
0.3961320620001061 0.4909623839765511 0.4782608695652173
0.3963228369998433 0.4938935026868587 0.4665363947239862
0.39651224099998217 0.4948705422569615 0.4636052760136786
0.39670240399982504 0.4978016609672691 0.4538348803126526
0.3969275300000845 0.4938935026868587 0.4430874450415241
0.39711771199972645 0.495847581827064 0.4255007327796776
0.3973070980000557 0.4978016609672691 0.4079140205178309
0.39749672399966585 0.4978016609672691 0.4040058622374205
0.3976875729999847 0.495847581827064 0.39912066438690763
0.39789323600007265 0.5017098192476794 0.4186614557889594
0.39810491799971714 0.49682462139716654 0.4352711284807034
0.3983153209996999 0.4948705422569615 0.441133365901319
0.39852200299992546 0.49682462139716654 0.44699560332193444
0.39873709199991936 0.495847581827064 0.4460185637518319
0.3989418289997957 0.4909623839765511 0.4401563263312165
0.3991417150000416 0.4880312652662433 0.4352711284807034
0.39933543400002236 0.4909623839765511 0.4333170493404983
0.3995428749999519 0.4851001465559355 0.43429408891060084
0.3998080179999306 0.48412310698583294 0.4460185637518319
0.40011621699977695 0.48998534440644836 0.4655593551538837
0.4003974339998422 0.48412310698583294 0.4802149487054226
0.40063915199971234 0.48216902784562765 0.4938935026868587
0.4009299619997364 0.4880312652662433 0.5105031753786029
0.40115134699999544 0.4811919882755251 0.5261358085002443
0.40136641799972494 0.4811919882755251 0.5261358085002443
0.40157267399990815 0.47923790913532005 0.5349291646311676
0.4017726520000906 0.4802149487054226 0.5456765999022961
0.40196849999983897 0.47923790913532005 0.5525158768930141
0.4021677929999896 0.4811919882755251 0.5486077186126037
0.4023789009997927 0.4782608695652173 0.5583781143136297
0.4025808789997427 0.48900830483634583 0.5515388373229115
0.4028263010000046 0.4831460674157304 0.5574010747435272
0.4030283160000181 0.48216902784562765 0.5642403517342451
0.40324125600000116 0.4831460674157304 0.5554469956033219
0.4038291169999866 0.4851001465559355 0.5056179775280898
0.405017689000033 0.48900830483634583 0.4802149487054226
0.40538612799991824 0.4909623839765511 0.4733756717147044
0.4056354750000537 0.49877870053737183 0.46946751343429405
0.4067010310000114 0.48900830483634583 0.524181729360039
0.4070591179997791 0.48998534440644836 0.5261358085002443
0.40734601999974984 0.4909623839765511 0.5359062042012701
0.4075746829998934 0.48998534440644836 0.5525158768930141
0.4091887479999059 0.495847581827064 0.4948705422569615
0.40961533399968175 0.495847581827064 0.4733756717147044
0.4098247369997807 0.495847581827064 0.4587200781631655
0.4100194749998991 0.49877870053737183 0.4382022471910112
0.4102447119998942 0.49877870053737183 0.4352711284807034
0.4104365789999065 0.49877870053737183 0.4303859306301905
0.4106263349999608 0.5007327796775769 0.44406448461162684
0.41086758999972517 0.5046409379579873 0.4528578407425501
0.4110647349998544 0.49877870053737183 0.4587200781631655
0.4112530649999826 0.49877870053737183 0.46458231558378116
0.4114430429999629 0.49877870053737183 0.4665363947239862
0.411632076999922 0.5065950170981925 0.47435271128480694
0.41182011099999727 0.5065950170981925 0.4684904738641915
0.41200834899973415 0.5046409379579873 0.47239863214460187
0.41219643799968253 0.5085490962383976 0.47923790913532005
0.4123841390000962 0.5017098192476794 0.48900830483634583
0.4125725059998331 0.5017098192476794 0.4978016609672691
0.41276020599980257 0.49877870053737183 0.5056179775280898
0.4129695920000813 0.4978016609672691 0.5095261358085001
0.4131592549997549 0.49877870053737183 0.5095261358085001
0.4133475849998831 0.49682462139716654 0.49975574010747437
0.41355995200001416 0.5036638983878847 0.5007327796775769
0.4137497080000685 0.5007327796775769 0.49193942354665365
0.4139379079997525 0.495847581827064 0.48900830483634583
0.4141265159996692 0.49877870053737183 0.4909623839765511
0.41431499500004065 0.49975574010747437 0.49975574010747437
0.4145259729998543 0.5007327796775769 0.5017098192476794
0.414714265999919 0.5046409379579873 0.5036638983878847
0.41490178100002595 0.49975574010747437 0.5026868588177822
0.41509083299979466 0.49682462139716654 0.4929164631167562
0.415278792999743 0.495847581827064 0.4851001465559355
0.4154668080000192 0.4938935026868587 0.47239863214460187
0.41565365699989343 0.4909623839765511 0.4655593551538837
0.41584121000005325 0.4909623839765511 0.4538348803126526
0.41603477999979077 0.48998534440644836 0.4557889594528579
0.4162284250000994 0.4929164631167562 0.467513434294089
0.41643312499991225 0.4948705422569615 0.4763067904250122
0.4166270109999459 0.4909623839765511 0.4938935026868587
0.41684313699988707 0.4909623839765511 0.5202735710796287
0.41704583699993236 0.49193942354665365 0.5251587689301416
0.4172641850000218 0.48900830483634583 0.5280898876404494
0.4174541079996743 0.4938935026868587 0.5251587689301416
0.41764462299988736 0.48998534440644836 0.5212506106497312
0.4178329719998146 0.4948705422569615 0.5065950170981925
0.41802059900010136 0.49193942354665365 0.49877870053737183
0.41820907700002863 0.495847581827064 0.48900830483634583
0.41839712899991355 0.49877870053737183 0.47435271128480694
0.4185856069998408 0.49682462139716654 0.47239863214460187
0.41877297499968336 0.495847581827064 0.4802149487054226
0.41896054600010757 0.4948705422569615 0.48705422569614076
0.4191509499996755 0.4978016609672691 0.4978016609672691
0.41933972400011044 0.4978016609672691 0.5105031753786029
0.41952747999994244 0.495847581827064 0.5075720566682951
0.41971473600005993 0.4929164631167562 0.49975574010747437
0.41990221500009284 0.4909623839765511 0.48998534440644836
0.4200897860000623 0.49193942354665365 0.47728382999511476
0.420277244999852 0.4880312652662433 0.47435271128480694
0.42046437199996944 0.4938935026868587 0.4782608695652173
0.4206516459998966 0.48900830483634583 0.4880312652662433
0.42085016200007885 0.48705422569614076 0.5153883732291158
0.4210377139997945 0.4929164631167562 0.5183194919394236
0.4212253400000918 0.486077186126038 0.5300439667806547
0.42141411500006143 0.486077186126038 0.5349291646311676
0.4216242229999807 0.48216902784562765 0.5427454811919883
0.4218180529996971 0.48412310698583294 0.5486077186126037
0.42200741999977254 0.4831460674157304 0.5583781143136297
0.4221948429999429 0.48216902784562765 0.5632633121641426
0.42238257999997586 0.4802149487054226 0.5652173913043479
0.4225794290000522 0.48216902784562765 0.5622862725940401
0.4227669439997044 0.4831460674157304 0.5534929164631168
0.42295436699987476 0.48705422569614076 0.5446995603321934
0.4231419749999077 0.49193942354665365 0.5271128480703469
0.42332910100003573 0.48900830483634583 0.5183194919394236
0.4235167829997408 0.4978016609672691 0.5085490962383976
0.42370446499990067 0.486077186126038 0.5065950170981925
0.4238918510000076 0.48705422569614076 0.5036638983878847
0.4240786999998818 0.486077186126038 0.5085490962383976
0.42427034399997865 0.48705422569614076 0.5163654127992183
0.42445765599995866 0.4929164631167562 0.5261358085002443
0.4246455419997801 0.4851001465559355 0.5359062042012701
0.42484403799971915 0.48705422569614076 0.5427454811919883
0.4250317940000059 0.48998534440644836 0.5417684416218858
0.42521977299975333 0.486077186126038 0.5300439667806547
0.4254076399997757 0.49193942354665365 0.5144113336590133
0.42559615499976644 0.4948705422569615 0.48412310698583294
0.42578331899994737 0.486077186126038 0.4636052760136786
0.4259708340000543 0.4831460674157304 0.4430874450415241
0.42615842399982284 0.4851001465559355 0.4333170493404983
0.4263463829997818 0.4831460674157304 0.42256961406936977
0.42653412099980414 0.4811919882755251 0.43624816805080613
0.42672256199966796 0.48216902784562765 0.45969711773326827
0.4269103179999547 0.47923790913532005 0.48412310698583294
0.42709835200003 0.48216902784562765 0.5065950170981925
0.4272860339997351 0.48216902784562765 0.5183194919394236
0.42750482699966597 0.48900830483634583 0.5329750854909623
0.42769376799969905 0.486077186126038 0.5300439667806547
0.4278813569999329 0.48900830483634583 0.5271128480703469
0.42806914999982837 0.4909623839765511 0.5153883732291158
0.42825710999977673 0.49193942354665365 0.5036638983878847
0.42844510699978855 0.49877870053737183 0.4851001465559355
0.428633937000086 0.4929164631167562 0.4655593551538837
0.4288453959998151 0.49682462139716654 0.4430874450415241
0.4290586520000943 0.4978016609672691 0.4284318514899854
0.42925092699988454 0.4978016609672691 0.4186614557889594
0.42943947899993873 0.5007327796775769 0.4079140205178309
0.4296454939999421 0.5026868588177822 0.403028822667318
0.42984256499994444 0.5017098192476794 0.403028822667318
0.4300308209999457 0.5105031753786029 0.4059599413776258
0.43021853999971427 0.5056179775280898 0.4157303370786516
0.4304059070000221 0.5046409379579873 0.4284318514899854
0.4305932560000656 0.5036638983878847 0.4509037616023448
0.43078043800005617 0.5017098192476794 0.457743038593063
0.43096835999995164 0.5026868588177822 0.4880312652662433
0.43193754799995077 0.4978016609672691 0.486077186126038
0.43216058100006194 0.495847581827064 0.4880312652662433
0.4323706139998649 0.4938935026868587 0.49193942354665365
0.43262627700005396 0.49975574010747437 0.5056179775280898
0.4329536969999026 0.4978016609672691 0.49193942354665365
0.4335037060000104 0.495847581827064 0.48705422569614076
0.43389714399972945 0.5026868588177822 0.49682462139716654
0.4341467509998438 0.495847581827064 0.5114802149487054
0.4343754879996595 0.4978016609672691 0.5095261358085001
0.43458302099998036 0.5036638983878847 0.5046409379579873
0.43765383999971164 0.4948705422569615 0.5290669272105519
