0 0.4831460674157304 0.49877870053737183
0.00032843700000739773 0.4851001465559355 0.495847581827064
0.0005369319997043931 0.4851001465559355 0.4909623839765511
0.0007370759999503207 0.48412310698583294 0.48900830483634583
0.0009554039997965447 0.4802149487054226 0.4929164631167562
0.0011588069996832928 0.48705422569614076 0.48900830483634583
0.0013508759998330788 0.48705422569614076 0.4851001465559355
0.001539593999950739 0.4851001465559355 0.4909623839765511
0.0017282379999414843 0.48900830483634583 0.48705422569614076
0.0019182709997949132 0.486077186126038 0.4909623839765511
0.0021097660001032637 0.4909623839765511 0.49682462139716654
0.0022990759998720023 0.48705422569614076 0.4948705422569615
0.0024870170000212966 0.48900830483634583 0.4948705422569615
0.002675179000107164 0.4909623839765511 0.5007327796775769
0.002863544999854639 0.4948705422569615 0.49193942354665365
0.0030507259998557856 0.4851001465559355 0.48900830483634583
0.003238443000100233 0.48705422569614076 0.49193942354665365
0.0034522719997767126 0.48705422569614076 0.48900830483634583
0.0036410079997040157 0.4909623839765511 0.4929164631167562
0.0038294669998322206 0.48900830483634583 0.48900830483634583
0.004017018000013195 0.48900830483634583 0.48705422569614076
0.004204290999950899 0.4929164631167562 0.486077186126038
0.004391916999793466 0.4929164631167562 0.48705422569614076
0.00457931999972061 0.4880312652662433 0.4909623839765511
0.0047666669997852296 0.48705422569614076 0.48900830483634583
0.004954236999765271 0.49877870053737183 0.48900830483634583
0.005141306000041368 0.4909623839765511 0.48900830483634583
0.005328671999905055 0.4929164631167562 0.4909623839765511
0.005516593999800534 0.4948705422569615 0.4909623839765511
0.0057041269997171185 0.4929164631167562 0.49193942354665365
0.00589130699972884 0.486077186126038 0.4978016609672691
0.006078784999772324 0.486077186126038 0.5017098192476794
0.006267354000101477 0.48705422569614076 0.5007327796775769
0.006457404999764549 0.486077186126038 0.4978016609672691
0.006644752999818593 0.4831460674157304 0.49975574010747437
0.006831693000094674 0.48705422569614076 0.49975574010747437
0.007018521999725635 0.4929164631167562 0.4938935026868587
0.007205203000012261 0.486077186126038 0.495847581827064
0.00739466100003483 0.48900830483634583 0.5056179775280898
0.007582824000110122 0.48900830483634583 0.49682462139716654
0.0077769300000909425 0.4909623839765511 0.495847581827064
0.007970814999680442 0.48998534440644836 0.4929164631167562
0.008159531999808678 0.4880312652662433 0.5007327796775769
0.008347490999767615 0.49682462139716654 0.49877870053737183
0.008534652999969694 0.4938935026868587 0.4938935026868587
0.00872118600000249 0.49193942354665365 0.4938935026868587
0.008908643999802734 0.4938935026868587 0.495847581827064
0.00909608499978276 0.4938935026868587 0.49975574010747437
0.009300042999711877 0.49682462139716654 0.5046409379579873
0.009487741999691934 0.5007327796775769 0.49877870053737183
0.00967473799983054 0.4929164631167562 0.49682462139716654
0.00986208499989516 0.48998534440644836 0.49877870053737183
0.010049265999896306 0.4929164631167562 0.4978016609672691
0.010236927999812906 0.48998534440644836 0.5017098192476794
0.010424293999676593 0.49682462139716654 0.4929164631167562
0.010611604999667179 0.4978016609672691 0.4880312652662433
0.010798193000027823 0.49877870053737183 0.4880312652662433
0.010984539999753906 0.49877870053737183 0.4909623839765511
0.011171665999881952 0.49975574010747437 0.48412310698583294
0.011403270999835513 0.49975574010747437 0.48412310698583294
0.011593636999805312 0.5007327796775769 0.48216902784562765
0.011781485000028624 0.5017098192476794 0.48900830483634583
0.011969055000008666 0.4978016609672691 0.48412310698583294
0.01215617999969254 0.4978016609672691 0.486077186126038
0.012346063999757462 0.49877870053737183 0.48705422569614076
0.012536077999811823 0.49682462139716654 0.49193942354665365
0.012723943999844778 0.49877870053737183 0.4948705422569615
0.012910735999867029 0.5017098192476794 0.4929164631167562
0.013098009999794158 0.495847581827064 0.486077186126038
0.013284764999752952 0.4938935026868587 0.4880312652662433
0.01347174200009249 0.49877870053737183 0.49193942354665365
0.013658570999723452 0.49877870053737183 0.48705422569614076
0.013851788000010856 0.4938935026868587 0.48900830483634583
0.014042246999906638 0.49682462139716654 0.48705422569614076
0.014229891000013595 0.4948705422569615 0.4851001465559355
0.014416849000099319 0.49877870053737183 0.48412310698583294
0.01460362299985718 0.4938935026868587 0.48216902784562765
0.014792136999858485 0.49682462139716654 0.48216902784562765
0.014979076999679819 0.495847581827064 0.4802149487054226
0.0151660169999559 0.4948705422569615 0.4763067904250122
0.015366438000000926 0.4948705422569615 0.4811919882755251
0.01555300800009718 0.4978016609672691 0.4802149487054226
0.015739577999738685 0.4948705422569615 0.4753297508549097
0.015925258999686775 0.4929164631167562 0.47239863214460187
0.016112179999709042 0.48998534440644836 0.47923790913532005
0.016298934999667836 0.48998534440644836 0.4831460674157304
0.016485912000007374 0.49193942354665365 0.4831460674157304
0.016672370999913255 0.4909623839765511 0.48705422569614076
0.01685997699996733 0.495847581827064 0.4811919882755251
0.017046861999915564 0.48998534440644836 0.486077186126038
0.017233412999758002 0.4880312652662433 0.4851001465559355
0.017423649999727786 0.4909623839765511 0.4802149487054226
0.01761184899987711 0.4880312652662433 0.486077186126038
0.01780056699999477 0.49193942354665365 0.4880312652662433
0.017990765999911673 0.4929164631167562 0.495847581827064
0.018178890999934083 0.4929164631167562 0.49877870053737183
0.018366182999670855 0.49193942354665365 0.4948705422569615
0.018553289999999834 0.4909623839765511 0.495847581827064
0.018740303999948082 0.4929164631167562 0.49682462139716654
0.018927725999674294 0.49193942354665365 0.4948705422569615
0.019115350999982184 0.49682462139716654 0.49193942354665365
0.01930327199988824 0.48998534440644836 0.4929164631167562
0.01949152699990009 0.48900830483634583 0.49193942354665365
0.01968672599969068 0.4880312652662433 0.4929164631167562
0.019875239999691985 0.48900830483634583 0.49193942354665365
0.020062328999756573 0.48705422569614076 0.48900830483634583
0.020249231999969197 0.48216902784562765 0.49193942354665365
0.020436004999737634 0.48900830483634583 0.495847581827064
0.020623538000108965 0.4948705422569615 0.49193942354665365
0.020810978000099567 0.495847581827064 0.4929164631167562
0.020999751000090328 0.486077186126038 0.4929164631167562
0.021187616999668535 0.4851001465559355 0.49682462139716654
0.02137561299969093 0.48705422569614076 0.49682462139716654
0.02156277499989301 0.48900830483634583 0.5007327796775769
0.021750511999925948 0.48900830483634583 0.49975574010747437
0.021938063000106922 0.4851001465559355 0.5026868588177822
0.02212576200008698 0.4909623839765511 0.5046409379579873
0.02231338699994012 0.48705422569614076 0.5036638983878847
0.022500642000068183 0.486077186126038 0.5056179775280898
0.022688026999730937 0.486077186126038 0.5065950170981925
0.022875373999795556 0.4880312652662433 0.5075720566682951
0.02306246199987072 0.4909623839765511 0.5056179775280898
0.02324960599980841 0.49193942354665365 0.5075720566682951
0.023455971999737812 0.49193942354665365 0.5026868588177822
0.023646800999813422 0.48998534440644836 0.5065950170981925
0.02383785199981503 0.4880312652662433 0.4978016609672691
0.024028568999710842 0.48900830483634583 0.49682462139716654
0.02421923199972298 0.48705422569614076 0.4938935026868587
0.024412893999851804 0.4909623839765511 0.49975574010747437
0.02460366700006489 0.48900830483634583 0.4929164631167562
0.024795088999781 0.48705422569614076 0.49682462139716654
0.024985620999814273 0.4851001465559355 0.4929164631167562
0.025176654000006238 0.48705422569614076 0.4929164631167562
0.025373631000093155 0.486077186126038 0.4909623839765511
0.025563885999872582 0.4831460674157304 0.48998534440644836
0.025754695999694377 0.48412310698583294 0.4929164631167562
0.02594500599980165 0.48900830483634583 0.4880312652662433
0.026135890999739786 0.48705422569614076 0.4909623839765511
0.026325904999794147 0.49193942354665365 0.48705422569614076
0.026515677999668696 0.486077186126038 0.48705422569614076
0.026705359000061435 0.48998534440644836 0.48900830483634583
0.026895576999777404 0.4851001465559355 0.4782608695652173
0.027086423999662657 0.48900830483634583 0.4851001465559355
0.027277770999717177 0.4948705422569615 0.4802149487054226
0.027469247999761137 0.486077186126038 0.4811919882755251
0.02765981799984729 0.48705422569614076 0.4851001465559355
0.027850016999764193 0.4938935026868587 0.4909623839765511
0.028040512999723433 0.4909623839765511 0.49193942354665365
0.028230526999777794 0.4938935026868587 0.49877870053737183
0.02842107800006488 0.4948705422569615 0.4978016609672691
0.028611665999960678 0.4929164631167562 0.5026868588177822
0.028801717000078497 0.4938935026868587 0.5095261358085001
0.02899213899991082 0.4929164631167562 0.512457254518808
0.029182652999679703 0.4880312652662433 0.5095261358085001
0.029372760000114795 0.4909623839765511 0.5105031753786029
0.0295627919999788 0.4948705422569615 0.5163654127992183
0.029754213999694912 0.4948705422569615 0.5085490962383976
0.02994522800008781 0.4929164631167562 0.5036638983878847
0.030135723000057624 0.5007327796775769 0.5046409379579873
0.030326329999752488 0.495847581827064 0.5017098192476794
0.030516436999732832 0.5065950170981925 0.49975574010747437
0.030707209999945917 0.4938935026868587 0.5026868588177822
0.030897391000053176 0.49877870053737183 0.4978016609672691
0.031088163999811513 0.4978016609672691 0.49877870053737183
0.03127917799974966 0.5056179775280898 0.49877870053737183
0.03146974799983582 0.5007327796775769 0.495847581827064
0.03165992799995365 0.49682462139716654 0.4978016609672691
0.03185507199987114 0.49877870053737183 0.4948705422569615
0.03204523399972459 0.4948705422569615 0.4909623839765511
0.032235284999842406 0.49877870053737183 0.4880312652662433
0.0324260399997911 0.4978016609672691 0.48900830483634583
0.03261668400000417 0.5026868588177822 0.48998534440644836
0.032807678999688505 0.49682462139716654 0.4851001465559355
0.032998138000039035 0.4948705422569615 0.4909623839765511
0.03318893000005119 0.4938935026868587 0.4909623839765511
0.03338427700009561 0.49975574010747437 0.4909623839765511
0.03357475399980103 0.49193942354665365 0.4929164631167562
0.03376532399988719 0.495847581827064 0.4978016609672691
0.033955559999867546 0.49877870053737183 0.49877870053737183
0.03414609299989024 0.4938935026868587 0.5046409379579873
0.034336624999923515 0.4909623839765511 0.5085490962383976
0.03452721299981931 0.4909623839765511 0.5065950170981925
0.034717819999968924 0.49193942354665365 0.5065950170981925
0.03490788999988581 0.49193942354665365 0.5056179775280898
0.03509892200008835 0.49193942354665365 0.5036638983878847
0.03529065900011119 0.4929164631167562 0.49877870053737183
0.03548089500009155 0.4938935026868587 0.5026868588177822
0.035671390000061365 0.4938935026868587 0.4938935026868587
0.035861515999840776 0.4909623839765511 0.49193942354665365
0.036051881999810576 0.4978016609672691 0.4948705422569615
0.03624208099972748 0.4948705422569615 0.4831460674157304
0.0364321869997184 0.495847581827064 0.48705422569614076
0.03662212700010059 0.4929164631167562 0.48216902784562765
0.03682130800007144 0.4929164631167562 0.48216902784562765
0.03702504400007456 0.4948705422569615 0.47923790913532005
0.037225094999939756 0.49877870053737183 0.47435271128480694
0.03743631199995434 0.4929164631167562 0.47923790913532005
0.03764008500002092 0.4929164631167562 0.47435271128480694
0.037844154999675084 0.49193942354665365 0.47435271128480694
0.03805326099973172 0.48998534440644836 0.4684904738641915
0.038255201000083616 0.49193942354665365 0.47239863214460187
0.03845799200007605 0.4909623839765511 0.4733756717147044
0.038669172000027174 0.4880312652662433 0.47435271128480694
0.03887718599980872 0.4948705422569615 0.47239863214460187
0.039079495999885694 0.486077186126038 0.47728382999511476
0.0392884539996885 0.4929164631167562 0.4782608695652173
0.03947985700006029 0.4948705422569615 0.47728382999511476
0.039670833999934985 0.48900830483634583 0.4753297508549097
0.03986170000007405 0.495847581827064 0.4763067904250122
0.04005243599976893 0.49193942354665365 0.4733756717147044
0.0402458389999083 0.486077186126038 0.4831460674157304
0.04044011199994202 0.486077186126038 0.48216902784562765
0.04063301499991212 0.48998534440644836 0.4880312652662433
0.04082399199978681 0.4880312652662433 0.4851001465559355
0.04101817299988397 0.48412310698583294 0.4929164631167562
0.04121192799993878 0.4880312652662433 0.49877870053737183
0.04140188599967587 0.486077186126038 0.5026868588177822
0.04159312299998419 0.48412310698583294 0.5026868588177822
0.04179758100008257 0.486077186126038 0.5065950170981925
0.041989205999925616 0.48705422569614076 0.5075720566682951
0.04218029399999068 0.48412310698583294 0.5065950170981925
0.042370455999844125 0.4851001465559355 0.5056179775280898
0.04256117399972936 0.4948705422569615 0.5075720566682951
0.04275152199988952 0.4880312652662433 0.5056179775280898
0.04294244299990169 0.48705422569614076 0.5105031753786029
0.04313269799968111 0.49193942354665365 0.5007327796775769
0.043324749000021257 0.4851001465559355 0.4978016609672691
0.04351550399996995 0.4851001465559355 0.5026868588177822
0.04370586999993975 0.4880312652662433 0.5056179775280898
0.04389612399972975 0.4929164631167562 0.512457254518808
0.04408665699975245 0.4880312652662433 0.5075720566682951
0.044290114999967045 0.4880312652662433 0.5085490962383976
0.044480795999788825 0.486077186126038 0.5065950170981925
0.04467249499975878 0.48998534440644836 0.5105031753786029
0.04486336099989785 0.4880312652662433 0.5075720566682951
0.045054170999719645 0.48900830483634583 0.49877870053737183
0.04524455599994326 0.486077186126038 0.5007327796775769
0.04543568100007178 0.48705422569614076 0.49877870053737183
0.04562673200007339 0.4909623839765511 0.495847581827064
0.04581702399991627 0.48900830483634583 0.4909623839765511
0.04600811199998134 0.4909623839765511 0.48900830483634583
0.04619905199979257 0.49193942354665365 0.48998534440644836
0.04638991799993164 0.49682462139716654 0.48412310698583294
0.046580358000028355 0.4929164631167562 0.47728382999511476
0.046770816999924136 0.4948705422569615 0.4753297508549097
0.04696177499999976 0.48998534440644836 0.4763067904250122
0.04715247400008593 0.49193942354665365 0.47728382999511476
0.047356265999951574 0.4938935026868587 0.47923790913532005
0.04754731699995318 0.495847581827064 0.4763067904250122
0.047737239000070986 0.4929164631167562 0.4802149487054226
0.047926548999839724 0.4938935026868587 0.4831460674157304
0.04811659999995754 0.5026868588177822 0.4880312652662433
0.04830668799968407 0.48998534440644836 0.48705422569614076
0.04849672099999225 0.49193942354665365 0.4909623839765511
0.04868775299974004 0.49193942354665365 0.48998534440644836
0.048882822999985365 0.49193942354665365 0.49682462139716654
0.04907446700008222 0.4929164631167562 0.4929164631167562
0.04926588799980891 0.49877870053737183 0.4938935026868587
0.04945653200002198 0.4948705422569615 0.48998534440644836
0.04964667500007636 0.4938935026868587 0.4948705422569615
0.04983743000002505 0.4929164631167562 0.4938935026868587
0.05003738899995369 0.5007327796775769 0.4929164631167562
0.050227550999807136 0.4909623839765511 0.4909623839765511
0.05042110199974559 0.4929164631167562 0.4880312652662433
0.050628226999833714 0.48998534440644836 0.4938935026868587
0.05083431399998517 0.4948705422569615 0.4880312652662433
0.05102567999983876 0.4929164631167562 0.4880312652662433
0.05121637999991435 0.49682462139716654 0.49682462139716654
0.051412559999789664 0.495847581827064 0.4880312652662433
0.05160401900002398 0.4880312652662433 0.486077186126038
0.05179497700009961 0.49193942354665365 0.4880312652662433
0.05198508400007995 0.4938935026868587 0.486077186126038
0.052175560999785375 0.4929164631167562 0.486077186126038
0.05236583399982919 0.4880312652662433 0.48412310698583294
0.05255647800004226 0.495847581827064 0.486077186126038
0.05274656599976879 0.49975574010747437 0.48705422569614076
0.05293726499985496 0.49682462139716654 0.4880312652662433
0.05312853899977199 0.495847581827064 0.48412310698583294
0.05331890499974179 0.49877870053737183 0.48412310698583294
0.05350984500000777 0.5026868588177822 0.4811919882755251
0.0537004140001045 0.4929164631167562 0.4753297508549097
0.053891299000042636 0.495847581827064 0.4782608695652173
0.0540823870001077 0.49877870053737183 0.4753297508549097
0.05427334499972858 0.4978016609672691 0.47923790913532005
0.05446395199987819 0.495847581827064 0.4782608695652173
0.054654058999858535 0.4978016609672691 0.4880312652662433
0.054844887999934144 0.4938935026868587 0.48900830483634583
0.055035438999766484 0.495847581827064 0.4880312652662433
0.055225007999979425 0.48998534440644836 0.4909623839765511
0.055416021999917575 0.4948705422569615 0.4938935026868587
0.05560681399992973 0.4948705422569615 0.495847581827064
0.05579710599977261 0.4938935026868587 0.49975574010747437
0.05598682399977406 0.4909623839765511 0.5007327796775769
0.05617718999974386 0.4978016609672691 0.5007327796775769
0.056367499999851134 0.4929164631167562 0.5017098192476794
0.056572902999960206 0.48998534440644836 0.495847581827064
0.05676575000006778 0.49682462139716654 0.49877870053737183
0.056956672000069375 0.495847581827064 0.49975574010747437
0.05714725999996517 0.4948705422569615 0.49975574010747437
0.057337643999744614 0.49682462139716654 0.49877870053737183
0.05752773199992589 0.4909623839765511 0.4978016609672691
0.05771837599968421 0.4948705422569615 0.5007327796775769
0.05790924199982328 0.49193942354665365 0.5017098192476794
0.05810871899984704 0.49877870053737183 0.5017098192476794
0.05829963999985921 0.48998534440644836 0.5105031753786029
0.05848959900004047 0.48705422569614076 0.5134342940889105
0.05868000200007373 0.4851001465559355 0.5075720566682951
0.0588700529997368 0.4909623839765511 0.5085490962383976
0.0590604189997066 0.48900830483634583 0.5085490962383976
0.059251284999845666 0.4851001465559355 0.5046409379579873
0.059741957999904116 0.4831460674157304 0.5007327796775769
0.05993712100007542 0.4811919882755251 0.49877870053737183
0.060127689999717404 0.48412310698583294 0.5046409379579873
0.06031853800004683 0.4929164631167562 0.495847581827064
0.060509810999974434 0.48900830483634583 0.4938935026868587
0.0607000289996904 0.48412310698583294 0.4909623839765511
0.06089035800005149 0.48412310698583294 0.4880312652662433
0.06108046400004241 0.48412310698583294 0.48900830483634583
0.061271107999800734 0.486077186126038 0.4909623839765511
0.06146164099982343 0.4851001465559355 0.486077186126038
0.061651487999824894 0.48998534440644836 0.4909623839765511
0.06184170599999561 0.4851001465559355 0.48900830483634583
0.062040552999860665 0.48705422569614076 0.4948705422569615
0.062235289000000193 0.48412310698583294 0.4851001465559355
0.06242735899968466 0.48900830483634583 0.48705422569614076
0.06261718799987648 0.4880312652662433 0.4909623839765511
0.06280768299984629 0.48705422569614076 0.4909623839765511
0.06299769699990065 0.4880312652662433 0.49682462139716654
0.06318822999992335 0.48705422569614076 0.48900830483634583
0.06338235499970324 0.4880312652662433 0.48998534440644836
0.0635723139998845 0.48412310698583294 0.48705422569614076
0.06376258699992832 0.48705422569614076 0.48705422569614076
0.0639583419997507 0.48900830483634583 0.4909623839765511
0.06414850400005889 0.486077186126038 0.4938935026868587
0.06433859199978542 0.48705422569614076 0.49877870053737183
0.0645286799999667 0.486077186126038 0.49975574010747437
0.06471854599976723 0.4831460674157304 0.49877870053737183
0.06490824499996961 0.4880312652662433 0.5085490962383976
0.06509907400004522 0.4938935026868587 0.5036638983878847
0.06528945899981409 0.48900830483634583 0.5036638983878847
0.06548043599968878 0.48705422569614076 0.49975574010747437
0.06567181999980676 0.4909623839765511 0.5026868588177822
0.06586289000006218 0.4909623839765511 0.5007327796775769
0.0660537559997465 0.4880312652662433 0.49877870053737183
0.06624445499983267 0.4929164631167562 0.495847581827064
0.0664583939997101 0.48900830483634583 0.5007327796775769
0.06667292599968278 0.486077186126038 0.5065950170981925
0.066864902999896 0.48216902784562765 0.5046409379579873
0.06705686199984484 0.4880312652662433 0.5026868588177822
0.06724728299968774 0.4909623839765511 0.4978016609672691
0.06745931499972357 0.486077186126038 0.5036638983878847
0.06765008899992608 0.48900830483634583 0.4909623839765511
0.06784293600003366 0.4880312652662433 0.49193942354665365
0.0680353389998345 0.49193942354665365 0.4948705422569615
0.06822714899999482 0.4909623839765511 0.4880312652662433
0.06841746000009152 0.4909623839765511 0.4880312652662433
0.06860765900000843 0.4938935026868587 0.49193942354665365
0.06879798799991477 0.4909623839765511 0.4909623839765511
0.06899924199979068 0.4938935026868587 0.4929164631167562
0.06919001599999319 0.49193942354665365 0.49682462139716654
0.06938027099977262 0.4948705422569615 0.4938935026868587
0.06957054399981644 0.49682462139716654 0.49682462139716654
0.06976057699966987 0.4948705422569615 0.5017098192476794
0.0699507569997877 0.4938935026868587 0.4948705422569615
0.07014104900008533 0.4929164631167562 0.48900830483634583
0.0703313219996744 0.49682462139716654 0.4880312652662433
0.07052191100001437 0.495847581827064 0.486077186126038
0.07071197999994183 0.49682462139716654 0.486077186126038
0.07090247599990107 0.49193942354665365 0.486077186126038
0.071091916000114 0.4938935026868587 0.4831460674157304
0.07128765199968257 0.4938935026868587 0.4811919882755251
0.07147786999985328 0.4978016609672691 0.47923790913532005
0.07166771699985475 0.4978016609672691 0.4782608695652173
0.0718580650000149 0.5007327796775769 0.47923790913532005
0.07204828199974145 0.4938935026868587 0.4753297508549097
0.07223855599977469 0.49877870053737183 0.4782608695652173
0.0724292179997974 0.5017098192476794 0.47923790913532005
0.07261993599968264 0.4929164631167562 0.4811919882755251
0.07281078300002264 0.5036638983878847 0.47923790913532005
0.07300085299993953 0.5036638983878847 0.4802149487054226
0.07319164499995168 0.4978016609672691 0.4831460674157304
0.07338208500004839 0.4929164631167562 0.4811919882755251
0.07357328399984908 0.49877870053737183 0.48998534440644836
0.0737637239999458 0.5046409379579873 0.4929164631167562
0.07395418199985215 0.4978016609672691 0.48900830483634583
0.07414415899984306 0.49877870053737183 0.49193942354665365
0.0743342659998234 0.4978016609672691 0.4929164631167562
0.07452470599992012 0.49975574010747437 0.49682462139716654
0.07472221999978501 0.49975574010747437 0.5036638983878847
0.07491291899987118 0.49682462139716654 0.5007327796775769
0.07510319299990442 0.495847581827064 0.5046409379579873
0.07529452099970513 0.4978016609672691 0.5075720566682951
0.07548498000005566 0.5007327796775769 0.5046409379579873
0.075675752999814 0.4948705422569615 0.4978016609672691
0.0758668039998156 0.49682462139716654 0.495847581827064
0.07605665199980649 0.4929164631167562 0.4929164631167562
0.07624722099990322 0.4929164631167562 0.486077186126038
0.07643808700004229 0.49682462139716654 0.4851001465559355
0.07662810100009665 0.4909623839765511 0.486077186126038
0.07681752300004518 0.49193942354665365 0.486077186126038
0.07700727800011009 0.49193942354665365 0.4880312652662433
0.0771976809996886 0.4929164631167562 0.48900830483634583
0.07738749100008135 0.49193942354665365 0.48216902784562765
0.0775779870000406 0.4929164631167562 0.48705422569614076
0.07776742699979877 0.4938935026868587 0.48412310698583294
0.07795814499968401 0.4948705422569615 0.4831460674157304
0.07815054699995017 0.4929164631167562 0.48412310698583294
0.07834091299991996 0.4929164631167562 0.48900830483634583
0.07853148300000612 0.4948705422569615 0.48412310698583294
0.0787211449996903 0.48900830483634583 0.4802149487054226
0.07891121500006193 0.48998534440644836 0.47923790913532005
0.07910120999986248 0.49193942354665365 0.4831460674157304
0.07929185400007555 0.495847581827064 0.4811919882755251
0.07948181299980206 0.4909623839765511 0.4763067904250122
0.07967258600001514 0.48705422569614076 0.4753297508549097
0.07986278499993205 0.4880312652662433 0.47728382999511476
0.08005339200008166 0.48900830483634583 0.47435271128480694
0.08024379500011491 0.48705422569614076 0.4753297508549097
0.08043349399986255 0.48705422569614076 0.4763067904250122
0.08062352699971598 0.48900830483634583 0.4802149487054226
0.08081428199966467 0.48998534440644836 0.4811919882755251
0.08100487000001522 0.48705422569614076 0.48216902784562765
0.0812008469997636 0.48705422569614076 0.48705422569614076
0.08139134199973341 0.48216902784562765 0.4851001465559355
0.08158272699984082 0.48412310698583294 0.48705422569614076
0.08177309299981061 0.4909623839765511 0.4880312652662433
0.08196342099972753 0.486077186126038 0.4880312652662433
0.08215386099982425 0.4802149487054226 0.48998534440644836
0.08234406099973057 0.48705422569614076 0.48998534440644836
0.08253470399995422 0.486077186126038 0.48900830483634583
0.08272534799971254 0.486077186126038 0.486077186126038
0.0829249919997892 0.4880312652662433 0.486077186126038
0.08311563500001284 0.48900830483634583 0.48900830483634583
0.08330594600010954 0.4909623839765511 0.48998534440644836
0.08349590399984663 0.48900830483634583 0.4880312652662433
0.08368580699971062 0.486077186126038 0.48705422569614076
0.08387643199966988 0.4880312652662433 0.49877870053737183
0.08406698299995696 0.4880312652662433 0.4978016609672691
0.08425710899973637 0.48998534440644836 0.49682462139716654
0.08444747499970617 0.4851001465559355 0.4938935026868587
0.08463765499982401 0.486077186126038 0.5007327796775769
0.08482765100006873 0.48705422569614076 0.5026868588177822
0.08501866500000688 0.4880312652662433 0.5026868588177822
0.08520856799987087 0.4909623839765511 0.5065950170981925
0.08539847099973485 0.48705422569614076 0.5026868588177822
0.08558881799990559 0.4880312652662433 0.5075720566682951
0.08577899900001285 0.4948705422569615 0.5134342940889105
0.08596916099986629 0.48998534440644836 0.5075720566682951
0.08615926799984663 0.4929164631167562 0.5056179775280898
0.086349503999827 0.48900830483634583 0.5026868588177822
0.08654007399991315 0.4880312652662433 0.5007327796775769
0.08672986600004151 0.49193942354665365 0.5007327796775769
0.0869197689999055 0.49193942354665365 0.5036638983878847
0.08710972700009734 0.4909623839765511 0.5007327796775769
0.08730103800007782 0.495847581827064 0.4978016609672691
0.0874903109997831 0.48998534440644836 0.49877870053737183
0.08768102899966834 0.4978016609672691 0.49877870053737183
0.08787135800002943 0.49193942354665365 0.49682462139716654
0.08806209399972431 0.4938935026868587 0.4938935026868587
0.08825240399983159 0.4909623839765511 0.4909623839765511
0.08844234399975903 0.49193942354665365 0.4880312652662433
0.08863159900010942 0.4929164631167562 0.48705422569614076
0.0888212059999205 0.4948705422569615 0.4880312652662433
0.08901094199973159 0.486077186126038 0.48705422569614076
0.0892015489998812 0.4929164631167562 0.4909623839765511
0.08939104399996722 0.4938935026868587 0.4909623839765511
0.08958131800000046 0.4929164631167562 0.4909623839765511
0.0897710169997481 0.4938935026868587 0.4938935026868587
0.08996140099998229 0.4909623839765511 0.49877870053737183
0.09015169299982517 0.48998534440644836 0.4948705422569615
0.09034143000008044 0.495847581827064 0.4978016609672691
0.09053181399985988 0.49682462139716654 0.49877870053737183
0.09072188399977676 0.4948705422569615 0.5017098192476794
0.09091811999996935 0.49682462139716654 0.4938935026868587
0.09110892999979114 0.49193942354665365 0.49975574010747437
0.09129979599993021 0.4938935026868587 0.49975574010747437
0.09148934699987876 0.49877870053737183 0.5017098192476794
0.09167949099992256 0.49682462139716654 0.5026868588177822
0.09186980100002984 0.4948705422569615 0.4978016609672691
0.09205937099977746 0.48998534440644836 0.49682462139716654
0.09224944099969434 0.4948705422569615 0.49975574010747437
0.09243878799998129 0.49975574010747437 0.49975574010747437
0.0926287469997078 0.49682462139716654 0.49975574010747437
0.09281870499989964 0.4938935026868587 0.5075720566682951
0.09300851599982707 0.4929164631167562 0.5026868588177822
0.09319873300000836 0.4929164631167562 0.49975574010747437
0.09339369200006331 0.4929164631167562 0.495847581827064
0.09358383499966294 0.4938935026868587 0.49975574010747437
0.09377429400001347 0.49682462139716654 0.4948705422569615
0.09396428999980344 0.4938935026868587 0.4938935026868587
0.09415409999974145 0.49193942354665365 0.495847581827064
0.09434392899993327 0.4938935026868587 0.48900830483634583
0.09453396099979727 0.4929164631167562 0.4880312652662433
0.09472358699986216 0.4938935026868587 0.49877870053737183
0.09491356399985307 0.49877870053737183 0.4929164631167562
0.09510424399968542 0.48900830483634583 0.4802149487054226
0.09529477699970812 0.4938935026868587 0.4851001465559355
0.09548475399969902 0.4948705422569615 0.48216902784562765
0.09567473099968993 0.4938935026868587 0.4851001465559355
0.09586465299980773 0.49193942354665365 0.48216902784562765
0.09605492599985155 0.4909623839765511 0.47923790913532005
0.09624479200010683 0.48998534440644836 0.4831460674157304
0.09643452799991792 0.4909623839765511 0.4782608695652173
0.09663124600001538 0.495847581827064 0.4753297508549097
0.09683337099977507 0.4909623839765511 0.4782608695652173
0.09703866199970435 0.48705422569614076 0.4763067904250122
0.09740454299981138 0.4880312652662433 0.48216902784562765
0.09765179599980911 0.4880312652662433 0.48998534440644836
0.09786249499984478 0.4851001465559355 0.486077186126038
0.09806419400001687 0.486077186126038 0.48412310698583294
0.0982673190001151 0.4880312652662433 0.4851001465559355
0.09847122099972694 0.486077186126038 0.48705422569614076
0.09866699499980314 0.4831460674157304 0.4880312652662433
0.09886474899985842 0.486077186126038 0.48412310698583294
0.09906859600005191 0.48705422569614076 0.486077186126038
0.09929420199978267 0.4880312652662433 0.48216902784562765
0.09949810499983869 0.48900830483634583 0.4909623839765511
0.09970909999992728 0.486077186126038 0.486077186126038
0.09991327999978239 0.48998534440644836 0.4929164631167562
0.1001192569997329 0.48412310698583294 0.48998534440644836
0.10033460399972682 0.4851001465559355 0.5017098192476794
0.10057032099985008 0.48412310698583294 0.4978016609672691
0.1008211109997319 0.4802149487054226 0.49877870053737183
0.10104331000002276 0.48412310698583294 0.5026868588177822
0.10124647199972969 0.48412310698583294 0.49975574010747437
0.10145194799997626 0.4880312652662433 0.5007327796775769
0.10172301600005085 0.4851001465559355 0.495847581827064
0.10193764099994951 0.4851001465559355 0.49877870053737183
0.10213287699980356 0.48412310698583294 0.4929164631167562
0.10232835399983742 0.4811919882755251 0.49193942354665365
0.10252055299997664 0.48216902784562765 0.4851001465559355
0.10271436299990455 0.48412310698583294 0.4880312652662433
0.10291041399977985 0.48705422569614076 0.4948705422569615
0.10311200199976156 0.48412310698583294 0.48705422569614076
0.10332282999979725 0.48412310698583294 0.48216902784562765
0.10352284400005374 0.4851001465559355 0.48900830483634583
0.10372846900008881 0.48705422569614076 0.4831460674157304
0.1039316129999861 0.48705422569614076 0.4831460674157304
0.10413060800010498 0.49193942354665365 0.4782608695652173
0.10433539899986499 0.4880312652662433 0.4782608695652173
0.10457478299986178 0.4880312652662433 0.48705422569614076
0.10480588800010082 0.4831460674157304 0.48705422569614076
0.1050384939999276 0.4880312652662433 0.4851001465559355
0.10527369200008252 0.486077186126038 0.48900830483634583
0.10551066800007902 0.486077186126038 0.4948705422569615
0.10571651500004009 0.4938935026868587 0.48998534440644836
0.1059303249999175 0.4880312652662433 0.49877870053737183
0.10612917199978256 0.4909623839765511 0.49975574010747437
0.10633185300002879 0.4948705422569615 0.5007327796775769
0.10653481100007411 0.48900830483634583 0.5046409379579873
0.1067736199997853 0.4851001465559355 0.49682462139716654
0.10701196699983484 0.486077186126038 0.4978016609672691
0.10725514599971575 0.4851001465559355 0.4978016609672691
0.10760167499984163 0.4851001465559355 0.5017098192476794
0.1078193180001108 0.49193942354665365 0.5017098192476794
0.10802090600009251 0.4948705422569615 0.5075720566682951
0.1082215679998626 0.48900830483634583 0.5046409379579873
0.10842197100009798 0.4909623839765511 0.4978016609672691
0.10864033600000766 0.4909623839765511 0.49877870053737183
0.10884486799977822 0.49193942354665365 0.49877870053737183
0.10904502999983379 0.4978016609672691 0.49877870053737183
0.10924410000006901 0.48900830483634583 0.5007327796775769
0.10944646500001909 0.486077186126038 0.5036638983878847
0.1096442200000638 0.4929164631167562 0.5046409379579873
0.10984121499996036 0.49877870053737183 0.5046409379579873
0.1100340259999939 0.49682462139716654 0.5075720566682951
0.11022453999976278 0.4929164631167562 0.5056179775280898
0.11041559099976439 0.49682462139716654 0.5075720566682951
0.11060571600000912 0.49682462139716654 0.5075720566682951
0.11079580399973565 0.4978016609672691 0.5065950170981925
0.11098648500001218 0.5007327796775769 0.4978016609672691
0.11117796200005614 0.4978016609672691 0.49975574010747437
0.11139256799970099 0.495847581827064 0.49975574010747437
0.11158306400011497 0.4978016609672691 0.4909623839765511
0.11177387399993677 0.49975574010747437 0.4831460674157304
0.11197322099997109 0.49877870053737183 0.4851001465559355
0.11217684599978384 0.49975574010747437 0.4811919882755251
0.11238061899985041 0.5026868588177822 0.48412310698583294
0.11258337399976881 0.4929164631167562 0.47435271128480694
0.11277762800000346 0.4929164631167562 0.47923790913532005
0.11297558699970978 0.4929164631167562 0.47435271128480694
0.1132156919998124 0.4929164631167562 0.4704445530043966
0.11341928000001644 0.4948705422569615 0.4753297508549097
0.11362455299968133 0.49877870053737183 0.4665363947239862
0.11383393699998123 0.4948705422569615 0.4704445530043966
0.11407663499994669 0.4938935026868587 0.46946751343429405
0.11434707299986258 0.495847581827064 0.4684904738641915
0.11460932599993612 0.48998534440644836 0.46946751343429405
0.11483965399975204 0.4978016609672691 0.4704445530043966
0.11506266800006415 0.4948705422569615 0.47239863214460187
0.1153018099998917 0.4978016609672691 0.4753297508549097
0.11549667600002067 0.4938935026868587 0.4733756717147044
0.11568926399968404 0.4929164631167562 0.4733756717147044
0.11588372300002447 0.4938935026868587 0.4802149487054226
0.1160778109997409 0.4978016609672691 0.4802149487054226
0.11627547299985963 0.4929164631167562 0.47239863214460187
0.11647117199981949 0.48900830483634583 0.47239863214460187
0.11666446399976849 0.4938935026868587 0.47435271128480694
0.1168553479997172 0.4909623839765511 0.4831460674157304
0.11704800999996223 0.49193942354665365 0.4782608695652173
0.11727720899989436 0.4909623839765511 0.486077186126038
0.1175334429999566 0.48998534440644836 0.486077186126038
0.11773243900006491 0.4909623839765511 0.486077186126038
0.11795787799974278 0.486077186126038 0.49877870053737183
0.11822927899993374 0.48705422569614076 0.49682462139716654
0.11847927300004812 0.4909623839765511 0.49682462139716654
0.11870561999967322 0.48900830483634583 0.4938935026868587
0.1189254850000907 0.4851001465559355 0.4978016609672691
0.11915729399970587 0.4811919882755251 0.495847581827064
0.1194907310000417 0.48412310698583294 0.48998534440644836
0.11978974299972833 0.48705422569614076 0.4948705422569615
0.12006927299989911 0.4880312652662433 0.495847581827064
0.12031661899982282 0.48900830483634583 0.5085490962383976
0.1205954459996974 0.4831460674157304 0.5046409379579873
0.12088142099992183 0.48705422569614076 0.5105031753786029
0.12114498899973114 0.4880312652662433 0.5173424523693209
0.12140798299969902 0.4909623839765511 0.524181729360039
0.12162879199968302 0.486077186126038 0.5183194919394236
0.1218333619999612 0.4831460674157304 0.5163654127992183
0.12203369000008024 0.4909623839765511 0.5144113336590133
0.122233167000104 0.48998534440644836 0.5144113336590133
0.12242771799992624 0.48900830483634583 0.512457254518808
0.12262437999970643 0.49193942354665365 0.512457254518808
0.12282219000007899 0.4880312652662433 0.5017098192476794
0.12301801900002829 0.4880312652662433 0.5017098192476794
0.12321384799997759 0.4851001465559355 0.4978016609672691
0.1234361019996868 0.48900830483634583 0.4929164631167562
0.12363500499986912 0.4948705422569615 0.4929164631167562
0.12382838899975468 0.4831460674157304 0.495847581827064
0.12402258799966148 0.48900830483634583 0.4938935026868587
0.12421782399997028 0.4851001465559355 0.495847581827064
0.12441817199987781 0.48412310698583294 0.4978016609672691
0.12461566699994364 0.47923790913532005 0.4978016609672691
0.12481618099991465 0.4782608695652173 0.5075720566682951
0.12501867599985417 0.48412310698583294 0.5036638983878847
0.1252154310000151 0.48216902784562765 0.5046409379579873
0.12541546300008122 0.48705422569614076 0.5056179775280898
0.12561110699971323 0.48705422569614076 0.5017098192476794
0.12583315699976083 0.48216902784562765 0.5046409379579873
0.1260352449999118 0.48412310698583294 0.5026868588177822
0.12623088899999857 0.49193942354665365 0.5007327796775769
0.1264189029998306 0.48900830483634583 0.495847581827064
0.12660882399995899 0.4880312652662433 0.495847581827064
0.12683667100009188 0.49877870053737183 0.4909623839765511
0.1270242769996912 0.4880312652662433 0.486077186126038
0.12721142100008365 0.4880312652662433 0.486077186126038
0.12740745399969455 0.486077186126038 0.48705422569614076
0.1275953379999919 0.4909623839765511 0.49193942354665365
0.1277821670000776 0.4948705422569615 0.4851001465559355
0.12797032899970873 0.4880312652662433 0.4782608695652173
0.12815864000003785 0.4880312652662433 0.4831460674157304
0.12834570999984862 0.49193942354665365 0.4851001465559355
0.12853474199982884 0.48998534440644836 0.4880312652662433
0.128721829999904 0.48998534440644836 0.48216902784562765
0.1289097710000533 0.49193942354665365 0.48900830483634583
0.12909711799966317 0.4938935026868587 0.48705422569614076
0.12928450299978067 0.49682462139716654 0.48705422569614076
0.12947118300007787 0.4929164631167562 0.48900830483634583
0.12965877199985698 0.4948705422569615 0.48998534440644836
0.1298464149999745 0.4938935026868587 0.4880312652662433
0.130034780999722 0.4929164631167562 0.48900830483634583
0.13022198099997695 0.4938935026868587 0.4831460674157304
0.13041416099986236 0.49682462139716654 0.4851001465559355
0.13060274999998 0.49877870053737183 0.4851001465559355
0.1307900229999177 0.49682462139716654 0.4831460674157304
0.1309769999998025 0.49682462139716654 0.4831460674157304
0.13116432900005748 0.4978016609672691 0.48412310698583294
0.13136610199990173 0.4978016609672691 0.4909623839765511
0.1315542459997232 0.5046409379579873 0.48900830483634583
0.13174155599972437 0.49682462139716654 0.4880312652662433
0.13192921900008514 0.4948705422569615 0.4909623839765511
0.13212295499988613 0.49877870053737183 0.48900830483634583
0.13231713499999387 0.4938935026868587 0.486077186126038
0.13251794600000721 0.4938935026868587 0.48900830483634583
0.13271473699978742 0.4948705422569615 0.48998534440644836
0.13290278799968291 0.49682462139716654 0.49877870053737183
0.13309163599979001 0.4929164631167562 0.48900830483634583
0.1332927789999303 0.4929164631167562 0.48900830483634583
0.13348081200001616 0.495847581827064 0.4909623839765511
0.13367008499972144 0.4938935026868587 0.49193942354665365
0.13386747000004107 0.4909623839765511 0.486077186126038
0.13407137200010766 0.495847581827064 0.49193942354665365
0.13428188599982605 0.49975574010747437 0.4909623839765511
0.13447993699992367 0.4948705422569615 0.4909623839765511
0.13467515499996807 0.4929164631167562 0.48998534440644836
0.13489970499995252 0.4929164631167562 0.4831460674157304
0.13511855199976708 0.486077186126038 0.4831460674157304
0.1353438979999737 0.4909623839765511 0.4831460674157304
0.13557176299991625 0.49193942354665365 0.48412310698583294
0.1357736099998874 0.486077186126038 0.47435271128480694
0.1359735319997526 0.4929164631167562 0.4763067904250122
0.13617330499982927 0.48998534440644836 0.4782608695652173
0.13637846699975853 0.495847581827064 0.4851001465559355
0.1365895730000375 0.4929164631167562 0.4851001465559355
0.13678858699995544 0.49193942354665365 0.4851001465559355
0.1369872119998945 0.4938935026868587 0.4880312652662433
0.13719220699977086 0.4929164631167562 0.486077186126038
0.1373887019999529 0.4929164631167562 0.49193942354665365
0.13758484599975418 0.4938935026868587 0.495847581827064
0.13778463800008467 0.4948705422569615 0.4929164631167562
0.1379789659999915 0.49193942354665365 0.4938935026868587
0.13818225799968786 0.4909623839765511 0.4938935026868587
0.13838454899996577 0.4880312652662433 0.4948705422569615
0.13858234100007394 0.486077186126038 0.4880312652662433
0.13877670700003364 0.49682462139716654 0.48998534440644836
0.13897473899987745 0.48900830483634583 0.49193942354665365
0.13921362299970497 0.486077186126038 0.4909623839765511
0.13945515399973374 0.495847581827064 0.4880312652662433
0.13964835299975675 0.4880312652662433 0.4831460674157304
0.13983692300007533 0.48705422569614076 0.4831460674157304
0.14002401099969575 0.4851001465559355 0.4831460674157304
0.1402112659998238 0.48998534440644836 0.4831460674157304
0.1403992800001106 0.4909623839765511 0.4782608695652173
0.14058883100005914 0.486077186126038 0.48412310698583294
0.140776048999669 0.4880312652662433 0.48705422569614076
0.14096298899994508 0.48216902784562765 0.486077186126038
0.14115383699981976 0.4851001465559355 0.486077186126038
0.14134229499995854 0.4880312652662433 0.48412310698583294
0.14153527200005556 0.4851001465559355 0.4851001465559355
0.1417266569997082 0.48705422569614076 0.4851001465559355
0.14191387499977282 0.486077186126038 0.48998534440644836
0.14210090699998545 0.49193942354665365 0.4811919882755251
0.1422878660000606 0.48412310698583294 0.4782608695652173
0.14247480599988194 0.4851001465559355 0.4733756717147044
0.1426742829999057 0.4851001465559355 0.47142159257449934
0.14286451899988606 0.4831460674157304 0.47142159257449934
0.14305201499973919 0.4831460674157304 0.4665363947239862
0.1432399729997087 0.48412310698583294 0.4733756717147044
0.14348059699977966 0.4802149487054226 0.4851001465559355
0.14366851899967514 0.48900830483634583 0.48900830483634583
0.1438565139997081 0.48216902784562765 0.4948705422569615
0.1440441209997516 0.4851001465559355 0.49877870053737183
0.14423150599986911 0.4851001465559355 0.5036638983878847
0.14441898299992317 0.4802149487054226 0.5095261358085001
0.14460601499968107 0.48216902784562765 0.5153883732291158
0.14479295499995715 0.4831460674157304 0.5095261358085001
0.14497993299983136 0.4802149487054226 0.5114802149487054
0.1451713359997484 0.4831460674157304 0.5075720566682951
0.14535831300008795 0.4802149487054226 0.5095261358085001
0.1455454560000362 0.48216902784562765 0.5134342940889105
0.14573295199988934 0.48216902784562765 0.5153883732291158
0.14592698499973267 0.4851001465559355 0.5134342940889105
0.14611492499989254 0.4831460674157304 0.5144113336590133
0.14630219799983024 0.4851001465559355 0.5173424523693209
0.14648965700007466 0.48216902784562765 0.512457254518808
0.14667737399986436 0.48412310698583294 0.512457254518808
0.14686501799997131 0.48705422569614076 0.5144113336590133
0.14705227300009938 0.48900830483634583 0.5114802149487054
0.14727178699968135 0.49682462139716654 0.5075720566682951
0.14746585600005346 0.48998534440644836 0.5075720566682951
0.1476535739998326 0.4948705422569615 0.5056179775280898
0.14784106999968571 0.49877870053737183 0.5075720566682951
0.1480285279999407 0.49682462139716654 0.5075720566682951
0.1482156719998784 0.4978016609672691 0.5085490962383976
0.1484022049999112 0.5007327796775769 0.5056179775280898
0.14859012599981725 0.495847581827064 0.5056179775280898
0.1487843619997875 0.4978016609672691 0.5046409379579873
0.14897730199982107 0.4978016609672691 0.5017098192476794
0.14917803799971807 0.4948705422569615 0.49877870053737183
0.14939327399997637 0.49682462139716654 0.495847581827064
0.14959426899986283 0.49682462139716654 0.48998534440644836
0.14979304300004515 0.495847581827064 0.4929164631167562
0.1499937419998787 0.4909623839765511 0.48900830483634583
0.150191181000082 0.49877870053737183 0.4831460674157304
0.15038475099981952 0.495847581827064 0.48412310698583294
0.1506762629996956 0.4929164631167562 0.4851001465559355
0.150898868999775 0.49682462139716654 0.4851001465559355
0.1511333260000356 0.49877870053737183 0.48998534440644836
0.15142618999971091 0.495847581827064 0.48998534440644836
0.15167914699986795 0.5056179775280898 0.4938935026868587
0.15188973399972383 0.49682462139716654 0.49193942354665365
0.1521538019997024 0.4978016609672691 0.49682462139716654
0.15235164899968368 0.5085490962383976 0.5017098192476794
0.15255614499983494 0.4978016609672691 0.5046409379579873
0.15276936200007185 0.4978016609672691 0.49975574010747437
0.15298222699993858 0.49877870053737183 0.5007327796775769
0.15318255600004704 0.49877870053737183 0.5026868588177822
0.15338697700008197 0.49975574010747437 0.49682462139716654
0.15358538000009503 0.5056179775280898 0.5007327796775769
0.15379215299981297 0.49877870053737183 0.5007327796775769
0.15398622199973033 0.49877870053737183 0.4948705422569615
0.15418201400007092 0.4978016609672691 0.49975574010747437
0.1543776019998404 0.49877870053737183 0.49682462139716654
0.1545704499999374 0.49682462139716654 0.49682462139716654
0.15476483399970675 0.5007327796775769 0.495847581827064
0.15496627399988938 0.4948705422569615 0.4948705422569615
0.15517441699967094 0.495847581827064 0.49682462139716654
0.15546609500006525 0.49193942354665365 0.49682462139716654
0.15566586799968718 0.4948705422569615 0.495847581827064
0.1558951590000106 0.4929164631167562 0.4851001465559355
0.15609474699977 0.49193942354665365 0.48216902784562765
0.15629281699966668 0.48998534440644836 0.48900830483634583
0.15648564599996462 0.48998534440644836 0.4782608695652173
0.15667395599984957 0.4880312652662433 0.47239863214460187
0.15686187799974505 0.49193942354665365 0.4802149487054226
0.15704900299988367 0.4880312652662433 0.467513434294089
0.15723677599999064 0.49193942354665365 0.4753297508549097
0.15742453099983322 0.48900830483634583 0.47728382999511476
0.1576146190000145 0.4909623839765511 0.4763067904250122
0.15780161499969836 0.48998534440644836 0.4851001465559355
0.15799075899985837 0.4880312652662433 0.48216902784562765
0.15817756899969027 0.486077186126038 0.4811919882755251
0.15836615699981849 0.486077186126038 0.4851001465559355
0.15855328299994653 0.48900830483634583 0.4851001465559355
0.15874137099990548 0.48900830483634583 0.48216902784562765
0.1589569949996985 0.48900830483634583 0.48216902784562765
0.1591469169998163 0.4880312652662433 0.4831460674157304
0.15935670799990476 0.4851001465559355 0.48705422569614076
0.1595448889997897 0.48998534440644836 0.495847581827064
0.1597335699998439 0.4909623839765511 0.4880312652662433
0.15992069499998252 0.4851001465559355 0.4909623839765511
0.16010813499997312 0.4851001465559355 0.4909623839765511
0.16029579699988972 0.4831460674157304 0.4909623839765511
0.1604947189998711 0.48412310698583294 0.48998534440644836
0.16068332499980897 0.4851001465559355 0.4929164631167562
0.16087046899974666 0.4831460674157304 0.4938935026868587
0.16105724299995927 0.4831460674157304 0.4929164631167562
0.16124460899982296 0.4851001465559355 0.49193942354665365
0.16143275200010976 0.4851001465559355 0.49877870053737183
0.1616201550000369 0.486077186126038 0.48998534440644836
0.1618070589997842 0.4851001465559355 0.4880312652662433
0.1620191279998835 0.486077186126038 0.49193942354665365
0.1622093819996735 0.49193942354665365 0.4851001465559355
0.1623959149997063 0.4929164631167562 0.48998534440644836
0.16258407699979216 0.4831460674157304 0.4831460674157304
0.16277098000000478 0.48412310698583294 0.4811919882755251
0.16295766099983666 0.48216902784562765 0.4802149487054226
0.16314443500004927 0.48412310698583294 0.4782608695652173
0.16333493000001909 0.4851001465559355 0.4753297508549097
0.16352414799985127 0.48216902784562765 0.4733756717147044
0.16371294000009584 0.4831460674157304 0.467513434294089
0.16390069499993842 0.4811919882755251 0.4636052760136786
0.1640910050000457 0.486077186126038 0.46262823644357587
0.16429646300002787 0.4802149487054226 0.46262823644357587
0.16450490299985177 0.48216902784562765 0.46165119687347334
0.16470974999992904 0.48216902784562765 0.46262823644357587
0.16490317099987806 0.486077186126038 0.47728382999511476
0.1650995189997957 0.48216902784562765 0.47435271128480694
0.16529364400003033 0.4831460674157304 0.4763067904250122
0.16550228699998115 0.48216902784562765 0.4831460674157304
0.16570070799980385 0.48412310698583294 0.48705422569614076
0.16590248100010285 0.4811919882755251 0.49193942354665365
0.16611469899999065 0.4811919882755251 0.49877870053737183
0.16632104599966624 0.4802149487054226 0.5056179775280898
0.1665273739999975 0.4831460674157304 0.5075720566682951
0.16672327700007372 0.48412310698583294 0.5105031753786029
0.16691577299980054 0.48705422569614076 0.5163654127992183
0.16710760199975994 0.4851001465559355 0.5114802149487054
0.16733472599980814 0.48216902784562765 0.5153883732291158
0.16754347999994934 0.4831460674157304 0.5095261358085001
0.16775375299994266 0.48900830483634583 0.5075720566682951
0.16797319199986305 0.49193942354665365 0.5075720566682951
0.16819428000007974 0.4929164631167562 0.5065950170981925
0.16841784899997947 0.4880312652662433 0.5036638983878847
0.16863260299987815 0.4880312652662433 0.49975574010747437
0.16899200199986808 0.4909623839765511 0.5065950170981925
0.16927016199997524 0.49193942354665365 0.5075720566682951
0.16952104499978304 0.4929164631167562 0.5036638983878847
0.16974809499970434 0.4929164631167562 0.5085490962383976
0.16996316499989916 0.495847581827064 0.5065950170981925
0.17017001199974402 0.4909623839765511 0.5085490962383976
0.17037346999995862 0.4909623839765511 0.5085490962383976
0.17058303899966631 0.4948705422569615 0.5026868588177822
0.17077807099985876 0.49682462139716654 0.5046409379579873
0.17097147399999812 0.4978016609672691 0.49975574010747437
0.1711662479997358 0.4978016609672691 0.5017098192476794
0.17142555600003107 0.49975574010747437 0.49877870053737183
0.17162029299970527 0.49877870053737183 0.5007327796775769
0.17185762000008253 0.495847581827064 0.4978016609672691
0.1720587820000219 0.49877870053737183 0.5026868588177822
0.17225125899994964 0.4978016609672691 0.5065950170981925
0.17243869899994024 0.49682462139716654 0.4978016609672691
0.17262608400005774 0.5007327796775769 0.4978016609672691
0.1728137649997734 0.49975574010747437 0.5026868588177822
0.17300101999990147 0.495847581827064 0.48900830483634583
0.17318908900006136 0.49682462139716654 0.4929164631167562
0.17337697399989338 0.495847581827064 0.486077186126038
0.17356524699971487 0.4948705422569615 0.486077186126038
0.17375285399975837 0.4978016609672691 0.4831460674157304
0.1739404239997384 0.4929164631167562 0.4851001465559355
0.17412860400008867 0.4938935026868587 0.4880312652662433
0.17431615599980432 0.49193942354665365 0.4851001465559355
0.1745037069999853 0.495847581827064 0.4831460674157304
0.17469094299985954 0.4929164631167562 0.4782608695652173
0.17487847599977613 0.495847581827064 0.4753297508549097
0.1750660079997033 0.49877870053737183 0.4733756717147044
0.17525370799967277 0.4909623839765511 0.4704445530043966
0.17545918399991933 0.4929164631167562 0.47142159257449934
0.17564730999993117 0.49682462139716654 0.4763067904250122
0.17583508300003814 0.4938935026868587 0.4684904738641915
0.17602320800006055 0.4929164631167562 0.4704445530043966
0.17624231399986456 0.4929164631167562 0.4753297508549097
0.1764342729998134 0.4909623839765511 0.47435271128480694
0.17662193499973 0.49975574010747437 0.4684904738641915
0.1768090789996677 0.4948705422569615 0.4684904738641915
0.1769962969997323 0.4880312652662433 0.47728382999511476
0.17718393999984983 0.48998534440644836 0.4811919882755251
0.1773720470000626 0.486077186126038 0.47923790913532005
0.1775778020000871 0.4909623839765511 0.47728382999511476
0.1777649079999719 0.48900830483634583 0.4851001465559355
0.17795197799978268 0.48900830483634583 0.4851001465559355
0.17813928899977327 0.4909623839765511 0.4909623839765511
0.17832650599984845 0.4909623839765511 0.48900830483634583
0.1785139089997756 0.4948705422569615 0.4753297508549097
0.17870199799972397 0.48900830483634583 0.4753297508549097
0.1788887339998837 0.48705422569614076 0.4733756717147044
0.17907606299968393 0.4851001465559355 0.4733756717147044
0.179278205999708 0.48705422569614076 0.4753297508549097
0.17947355399974185 0.48900830483634583 0.4782608695652173
0.17966462300000785 0.48900830483634583 0.48412310698583294
0.179855193000094 0.48900830483634583 0.486077186126038
0.18004559599967251 0.4909623839765511 0.4948705422569615
0.18023681399972702 0.4909623839765511 0.4929164631167562
0.1804280309997921 0.48998534440644836 0.49193942354665365
0.18061997099994187 0.48705422569614076 0.49877870053737183
0.18083054099997753 0.49193942354665365 0.5007327796775769
0.18101816599983067 0.48705422569614076 0.5046409379579873
0.18120525399990584 0.486077186126038 0.49975574010747437
0.18139236099978007 0.4909623839765511 0.5026868588177822
0.18157981900003506 0.48998534440644836 0.5046409379579873
0.18176920399992014 0.4851001465559355 0.5065950170981925
0.1819672179999543 0.4851001465559355 0.5105031753786029
0.18218110199995863 0.48998534440644836 0.5202735710796287
0.18238605999977153 0.48412310698583294 0.5085490962383976
0.18259272199975385 0.4851001465559355 0.5232046897899365
0.1828128279998964 0.48216902784562765 0.5173424523693209
0.18301724899993133 0.4909623839765511 0.5212506106497312
0.1832102999997005 0.4811919882755251 0.5144113336590133
0.18393861599997763 0.4851001465559355 0.5085490962383976
0.18448832600006426 0.48900830483634583 0.5065950170981925
0.1851215520000551 0.48705422569614076 0.4948705422569615
0.1853408799997851 0.48998534440644836 0.4938935026868587
0.18558116999975027 0.4880312652662433 0.4851001465559355
0.18581999799971527 0.486077186126038 0.48412310698583294
0.18629237599998305 0.48900830483634583 0.4802149487054226
0.18648770499976308 0.4909623839765511 0.48412310698583294
0.18671036599971558 0.48900830483634583 0.47923790913532005
0.18690386199978093 0.486077186126038 0.4802149487054226
0.1870928019998246 0.48705422569614076 0.4831460674157304
0.18732159299997875 0.4851001465559355 0.4851001465559355
0.18751616200006538 0.4880312652662433 0.48900830483634583
0.18773306499997489 0.48900830483634583 0.4851001465559355
0.18792120799980694 0.4880312652662433 0.486077186126038
0.18810942599975533 0.48705422569614076 0.4851001465559355
0.18829673699974592 0.4880312652662433 0.48412310698583294
0.18848456599971541 0.49193942354665365 0.4782608695652173
0.18867213499970603 0.48998534440644836 0.4733756717147044
0.18885959399995045 0.495847581827064 0.47435271128480694
0.1890464409998458 0.48900830483634583 0.46946751343429405
0.1892339930000162 0.49682462139716654 0.47239863214460187
0.18942132199981643 0.49682462139716654 0.4733756717147044
0.1896084099998916 0.4938935026868587 0.47435271128480694
0.18979618299999856 0.495847581827064 0.49193942354665365
0.19001799299985578 0.49682462139716654 0.4831460674157304
0.19020643299973017 0.49682462139716654 0.4851001465559355
0.19039394699984769 0.49682462139716654 0.48705422569614076
0.19058171999995466 0.49877870053737183 0.4880312652662433
0.1907687719999558 0.49877870053737183 0.48705422569614076
0.19095593399970312 0.49877870053737183 0.4880312652662433
0.19114289299977827 0.49877870053737183 0.4831460674157304
0.1913321659999383 0.5007327796775769 0.4851001465559355
0.1915215869998974 0.5007327796775769 0.48900830483634583
0.1917091939999409 0.5065950170981925 0.48412310698583294
0.1918968009999844 0.5007327796775769 0.4909623839765511
0.19208411099998557 0.5026868588177822 0.4880312652662433
0.19227142199997616 0.49975574010747437 0.4880312652662433
0.1924593429998822 0.5017098192476794 0.4978016609672691
0.19264656099994681 0.5046409379579873 0.49877870053737183
0.19283468599996922 0.5046409379579873 0.4909623839765511
0.1930223669996849 0.49682462139716654 0.4929164631167562
0.19321056699982364 0.4929164631167562 0.4929164631167562
0.19339782099996228 0.4938935026868587 0.4978016609672691
0.19358518699982596 0.4929164631167562 0.48998534440644836
0.19377958999984912 0.49975574010747437 0.48900830483634583
0.1939671410000301 0.49193942354665365 0.48900830483634583
0.19415408199984086 0.49193942354665365 0.48900830483634583
0.19434146599996893 0.4929164631167562 0.49682462139716654
0.1945536829998673 0.49193942354665365 0.4978016609672691
0.19474177199981568 0.48998534440644836 0.4909623839765511
0.1949292859999332 0.4929164631167562 0.49682462139716654
0.1951163369999449 0.48998534440644836 0.4938935026868587
0.19530481399988275 0.4880312652662433 0.49975574010747437
0.19549386499966204 0.4929164631167562 0.5007327796775769
0.19569315699982326 0.4880312652662433 0.5007327796775769
0.19588089299986677 0.49193942354665365 0.5026868588177822
0.1960683520001112 0.4909623839765511 0.5007327796775769
0.19625849499971082 0.48998534440644836 0.5026868588177822
0.1964458059997014 0.4929164631167562 0.49877870053737183
0.1966339870000411 0.4948705422569615 0.4948705422569615
0.19682153799976732 0.4880312652662433 0.4929164631167562
0.19700879299989538 0.48998534440644836 0.49193942354665365
0.19719654799973796 0.48900830483634583 0.4909623839765511
0.19738732099995104 0.48705422569614076 0.4909623839765511
0.19757442799982528 0.4851001465559355 0.4929164631167562
0.1977616270000908 0.48900830483634583 0.4978016609672691
0.19794867800010252 0.4851001465559355 0.495847581827064
0.19814539599974523 0.48216902784562765 0.4978016609672691
0.19833420599979945 0.4851001465559355 0.49975574010747437
0.1985214609999275 0.48705422569614076 0.49193942354665365
0.1987083829999392 0.4851001465559355 0.48900830483634583
0.1988952120000249 0.48705422569614076 0.4909623839765511
0.19908244799989916 0.4880312652662433 0.49193942354665365
0.19928253599982781 0.4851001465559355 0.4880312652662433
0.19947190199991383 0.4880312652662433 0.4880312652662433
0.199658768000063 0.48705422569614076 0.48705422569614076
0.19984846699981063 0.4880312652662433 0.486077186126038
0.20004505499991865 0.4938935026868587 0.4909623839765511
0.20040134300006684 0.4909623839765511 0.4978016609672691
0.20062037499974394 0.48900830483634583 0.4978016609672691
0.20088301699979638 0.48412310698583294 0.5056179775280898
0.20109795700000177 0.48412310698583294 0.4909623839765511
0.20129813699986698 0.4851001465559355 0.4929164631167562
0.2014980399999331 0.486077186126038 0.4909623839765511
0.20171429399988483 0.48900830483634583 0.4909623839765511
0.20195084399983898 0.4811919882755251 0.48900830483634583
0.2021873759999835 0.4831460674157304 0.4880312652662433
0.20240977799994653 0.48216902784562765 0.48216902784562765
0.20260981000001266 0.4831460674157304 0.4831460674157304
0.20280169499983458 0.48412310698583294 0.48216902784562765
0.20298909799976173 0.4802149487054226 0.4782608695652173
0.20317735299977357 0.486077186126038 0.4811919882755251
0.20343582799978321 0.4880312652662433 0.48216902784562765
0.2036350640000819 0.4851001465559355 0.4782608695652173
0.20383191099972464 0.486077186126038 0.4802149487054226
0.2040250179998111 0.4851001465559355 0.4909623839765511
0.20425284599969018 0.4909623839765511 0.49193942354665365
0.2044438039997658 0.48900830483634583 0.4909623839765511
0.20463144799987276 0.486077186126038 0.4978016609672691
0.20481957299989517 0.486077186126038 0.5017098192476794
0.20500679099995978 0.4880312652662433 0.5017098192476794
0.20519399099976 0.4880312652662433 0.5065950170981925
0.20538122700008898 0.4909623839765511 0.5085490962383976
0.20556892600006904 0.4831460674157304 0.5056179775280898
0.20578155099974538 0.486077186126038 0.5095261358085001
0.20596875000001091 0.4880312652662433 0.5105031753786029
0.20615646799979004 0.4851001465559355 0.5144113336590133
0.20634374199971717 0.48705422569614076 0.5095261358085001
0.20653112599984524 0.486077186126038 0.5065950170981925
0.20672076999971978 0.486077186126038 0.5095261358085001
0.2069087279996893 0.48998534440644836 0.5144113336590133
0.2070961869999337 0.48998534440644836 0.5075720566682951
0.20729325599995718 0.48998534440644836 0.5114802149487054
0.2074812339997152 0.48705422569614076 0.5183194919394236
0.2076691369998116 0.48705422569614076 0.512457254518808
0.20785644699981276 0.4880312652662433 0.5163654127992183
0.20804357199995138 0.49193942354665365 0.5105031753786029
0.20823097499987853 0.48998534440644836 0.512457254518808
0.20841858199992203 0.4880312652662433 0.5095261358085001
0.20860702199979642 0.4880312652662433 0.512457254518808
0.2087939620000725 0.48900830483634583 0.5085490962383976
0.20898127300006308 0.48998534440644836 0.5036638983878847
0.20916839799974696 0.4909623839765511 0.5007327796775769
0.20935680100001264 0.48900830483634583 0.5007327796775769
0.2095448340000985 0.48900830483634583 0.4948705422569615
0.2097333480000998 0.48705422569614076 0.4938935026868587
0.20992052900010094 0.48998534440644836 0.48998534440644836
0.21010794999983773 0.4880312652662433 0.4831460674157304
0.21029533499995523 0.48998534440644836 0.48412310698583294
0.21048253399976602 0.4880312652662433 0.48705422569614076
0.210670084999947 0.4909623839765511 0.4782608695652173
0.2108688949997486 0.49682462139716654 0.47728382999511476
0.21105790899991916 0.49877870053737183 0.4782608695652173
0.2112452569999732 0.49877870053737183 0.4811919882755251
0.2114565480001147 0.4948705422569615 0.4851001465559355
0.2116447660000631 0.49975574010747437 0.4811919882755251
0.21183270599976822 0.4978016609672691 0.48216902784562765
0.21202031299981172 0.4948705422569615 0.47923790913532005
0.21220712300009836 0.49682462139716654 0.4753297508549097
0.212403692999942 0.49682462139716654 0.4733756717147044
0.21259131799979514 0.4978016609672691 0.47239863214460187
0.2127784059998703 0.4938935026868587 0.47142159257449934
0.21296569800006182 0.49682462139716654 0.4753297508549097
0.2131526749999466 0.4938935026868587 0.4851001465559355
0.2133392079999794 0.495847581827064 0.4831460674157304
0.21352614799980074 0.4938935026868587 0.486077186126038
0.213712717999897 0.4948705422569615 0.48705422569614076
0.21389962100010962 0.49877870053737183 0.4938935026868587
0.2140895789998467 0.49682462139716654 0.486077186126038
0.214296333999755 0.49975574010747437 0.4909623839765511
0.2144972369997049 0.4929164631167562 0.486077186126038
0.21471265699983633 0.4938935026868587 0.4909623839765511
0.214915597000072 0.4948705422569615 0.4929164631167562
0.21511442599967268 0.4948705422569615 0.486077186126038
0.21532617999992 0.4948705422569615 0.48412310698583294
0.21552993499972217 0.4929164631167562 0.4909623839765511
0.21573231899992606 0.4938935026868587 0.47923790913532005
0.21596764700007043 0.4978016609672691 0.4763067904250122
0.2162081409996972 0.4909623839765511 0.4763067904250122
0.2164155440000286 0.48705422569614076 0.47435271128480694
0.2173767429999316 0.4948705422569615 0.47923790913532005
0.2179755069996645 0.4909623839765511 0.48216902784562765
0.2182052799998928 0.49877870053737183 0.4802149487054226
0.21841514500010817 0.48998534440644836 0.486077186126038
0.21865528799980893 0.4880312652662433 0.4831460674157304
0.21887120900009904 0.495847581827064 0.4831460674157304
0.21908666599983917 0.486077186126038 0.47923790913532005
0.21934847500006072 0.4880312652662433 0.4782608695652173
0.2203301750000719 0.48998534440644836 0.48412310698583294
0.2213272250000955 0.49193942354665365 0.48216902784562765
0.2215534049996677 0.48900830483634583 0.4880312652662433
0.2217952510000032 0.48998534440644836 0.4909623839765511
0.22205444900009752 0.4929164631167562 0.5007327796775769
0.222258833000069 0.48998534440644836 0.4938935026868587
0.22244868100005988 0.4880312652662433 0.4948705422569615
0.222637880000093 0.4831460674157304 0.4929164631167562
0.22282589399992503 0.486077186126038 0.4978016609672691
0.22301294499993674 0.4851001465559355 0.49682462139716654
0.22320073699984277 0.48705422569614076 0.5007327796775769
0.22346439800003282 0.48705422569614076 0.49877870053737183
0.22365433799996026 0.4831460674157304 0.5056179775280898
0.22384314800001448 0.48705422569614076 0.5056179775280898
0.22407004999968194 0.4851001465559355 0.5036638983878847
0.22426054600009593 0.4851001465559355 0.5065950170981925
0.22444957800007614 0.4851001465559355 0.5085490962383976
0.22463699999980236 0.4880312652662433 0.5065950170981925
0.22482390300001498 0.4880312652662433 0.5065950170981925
0.22501138000006904 0.4948705422569615 0.5056179775280898
0.22519895000004908 0.48705422569614076 0.5046409379579873
0.22538626000005024 0.49193942354665365 0.5036638983878847
0.22557321899967064 0.4851001465559355 0.5056179775280898
0.22576019600001018 0.4880312652662433 0.5105031753786029
0.2259476919998633 0.48900830483634583 0.5075720566682951
0.22613564999983282 0.486077186126038 0.5065950170981925
0.2263319789999514 0.48705422569614076 0.5036638983878847
0.2265208819999316 0.4851001465559355 0.5046409379579873
0.22672365500011438 0.4880312652662433 0.5026868588177822
0.22691166899994641 0.4909623839765511 0.5007327796775769
0.2270985909999581 0.4909623839765511 0.5075720566682951
0.22728638299986414 0.495847581827064 0.5056179775280898
0.22747463699988657 0.48998534440644836 0.5085490962383976
0.22766150300003574 0.4938935026868587 0.5065950170981925
0.2278488879996985 0.4938935026868587 0.5075720566682951
0.2280363469999429 0.49682462139716654 0.49975574010747437
0.22822389799966913 0.49193942354665365 0.5017098192476794
0.2284110599998712 0.4938935026868587 0.49877870053737183
0.22859853699992527 0.49682462139716654 0.49193942354665365
0.22878645899982075 0.49682462139716654 0.4880312652662433
0.22897384299994883 0.495847581827064 0.48412310698583294
0.22916230200007703 0.495847581827064 0.4811919882755251
0.2293496489996869 0.4978016609672691 0.47728382999511476
0.22953729299979386 0.4978016609672691 0.47435271128480694
0.2297248629997739 0.49682462139716654 0.4753297508549097
0.22991184000011344 0.49877870053737183 0.4733756717147044
0.23009870599980786 0.4938935026868587 0.47728382999511476
0.23028586800000994 0.49682462139716654 0.4763067904250122
0.2304729560000851 0.49682462139716654 0.48216902784562765
0.23066535899988594 0.4938935026868587 0.4802149487054226
0.23085459599997193 0.495847581827064 0.4811919882755251
0.23104192499977216 0.49682462139716654 0.486077186126038
0.23124069799996505 0.4948705422569615 0.4851001465559355
0.23144441499971435 0.4948705422569615 0.48900830483634583
0.23163168900009623 0.4948705422569615 0.48998534440644836
0.23182075799968516 0.495847581827064 0.48900830483634583
0.23202147599977252 0.4978016609672691 0.4909623839765511
0.23220884200009095 0.4938935026868587 0.48998534440644836
0.23239628200008156 0.4938935026868587 0.4880312652662433
0.23258294400011437 0.49877870053737183 0.48998534440644836
0.23276956900008372 0.5017098192476794 0.4909623839765511
0.23296108399972582 0.5046409379579873 0.4948705422569615
0.2331493940000655 0.4938935026868587 0.48705422569614076
0.23333898200007752 0.495847581827064 0.4948705422569615
0.2335355889999846 0.49975574010747437 0.4929164631167562
0.23373887999969156 0.4978016609672691 0.4948705422569615
0.2339597639997919 0.5026868588177822 0.49975574010747437
0.23415518499996324 0.49975574010747437 0.49975574010747437
0.23434403300007034 0.5017098192476794 0.5056179775280898
0.2345308250000926 0.5007327796775769 0.5017098192476794
0.23471837599981882 0.5007327796775769 0.5056179775280898
0.23490653799990469 0.49975574010747437 0.5046409379579873
0.23509438599967325 0.495847581827064 0.5007327796775769
0.23530506599990986 0.49193942354665365 0.5017098192476794
0.2354943759996786 0.4938935026868587 0.4978016609672691
0.23568209399991247 0.4929164631167562 0.495847581827064
0.23586982999995598 0.4929164631167562 0.4938935026868587
0.23605719599981967 0.4929164631167562 0.495847581827064
0.23624465500006409 0.49877870053737183 0.49682462139716654
0.2364319280000018 0.4978016609672691 0.48998534440644836
0.23661933099992893 0.4938935026868587 0.4929164631167562
0.23680680899997242 0.4948705422569615 0.49193942354665365
0.23699567499988916 0.4929164631167562 0.4909623839765511
0.23718366999992213 0.4909623839765511 0.48900830483634583
0.23737099899972236 0.4938935026868587 0.4811919882755251
0.23759567899969625 0.4880312652662433 0.4811919882755251
0.2377851930000361 0.48900830483634583 0.47923790913532005
0.23797442999966734 0.4880312652662433 0.4753297508549097
0.23816233299976375 0.48900830483634583 0.4684904738641915
0.23835034700005053 0.48705422569614076 0.4655593551538837
0.23857278600007703 0.486077186126038 0.46262823644357587
0.2387617819999832 0.4851001465559355 0.4636052760136786
0.23894925900003727 0.4851001465559355 0.46458231558378116
0.2391368099997635 0.4831460674157304 0.4655593551538837
0.23932597199973316 0.48216902784562765 0.46946751343429405
0.2395151339997028 0.4831460674157304 0.4733756717147044
0.23970270399968285 0.4831460674157304 0.47435271128480694
0.23989121799968416 0.48216902784562765 0.4782608695652173
0.2400907129999723 0.4831460674157304 0.4811919882755251
0.24027865399966686 0.4851001465559355 0.4831460674157304
0.24046583399967858 0.4831460674157304 0.4802149487054226
0.2406531259998701 0.49193942354665365 0.4880312652662433
0.24084030699987125 0.4851001465559355 0.4909623839765511
0.24102735799988295 0.48705422569614076 0.4948705422569615
0.24121513199997935 0.48900830483634583 0.4948705422569615
0.24140181299981123 0.48900830483634583 0.49682462139716654
0.2415889750000133 0.4851001465559355 0.49877870053737183
0.24177632200007793 0.4851001465559355 0.49877870053737183
0.24196365099987815 0.4851001465559355 0.49877870053737183
0.24215447999995376 0.4851001465559355 0.49877870053737183
0.24234125399971163 0.486077186126038 0.4978016609672691
0.24252828599992426 0.48998534440644836 0.49975574010747437
0.24271598599989375 0.4880312652662433 0.495847581827064
0.2429035179998209 0.4851001465559355 0.495847581827064
0.24309062499969514 0.49682462139716654 0.49682462139716654
0.24329286100009995 0.48900830483634583 0.49975574010747437
0.2434817270000167 0.4851001465559355 0.5026868588177822
0.24366853699984858 0.4851001465559355 0.5026868588177822
0.2438561999997546 0.486077186126038 0.5017098192476794
0.2440438250000625 0.4851001465559355 0.5085490962383976
0.24423022800010585 0.4880312652662433 0.5095261358085001
0.24441781599989554 0.48998534440644836 0.5036638983878847
0.24460534899981212 0.4851001465559355 0.5065950170981925
0.24479315899998255 0.48412310698583294 0.5007327796775769
0.24498793299972021 0.4831460674157304 0.5007327796775769
0.24518537199992352 0.4909623839765511 0.49877870053737183
0.24537360899967098 0.4851001465559355 0.5017098192476794
0.2455612519997885 0.486077186126038 0.495847581827064
0.2457490259998849 0.48705422569614076 0.49877870053737183
0.24593615100002353 0.48900830483634583 0.5046409379579873
0.24612359100001413 0.48900830483634583 0.49975574010747437
0.2463104389998989 0.4880312652662433 0.5007327796775769
0.24649739699998463 0.4909623839765511 0.5007327796775769
0.24668467099991176 0.4929164631167562 0.5056179775280898
0.24687166600006094 0.4929164631167562 0.4948705422569615
0.24705869899980826 0.49193942354665365 0.49193942354665365
0.2472480279998308 0.48998534440644836 0.48900830483634583
0.24746142999993026 0.48998534440644836 0.48705422569614076
0.2476584629998797 0.48900830483634583 0.48412310698583294
0.24788480899997012 0.48900830483634583 0.48412310698583294
0.24808808199986743 0.48998534440644836 0.4811919882755251
0.24831257699997877 0.48900830483634583 0.486077186126038
0.24851814599969657 0.486077186126038 0.48216902784562765
0.24871345699966696 0.4880312652662433 0.4831460674157304
0.24992331699968418 0.48900830483634583 0.4811919882755251
0.2501771629999894 0.4938935026868587 0.4753297508549097
0.25044100900004196 0.4948705422569615 0.4782608695652173
0.2506860220000817 0.49682462139716654 0.48216902784562765
0.25090849799971693 0.49193942354665365 0.48216902784562765
0.2515935379997245 0.4948705422569615 0.4851001465559355
0.2522830220000287 0.4938935026868587 0.48412310698583294
0.2525530519997119 0.49682462139716654 0.4831460674157304
0.25279845399973055 0.495847581827064 0.47728382999511476
0.2530228010000428 0.4948705422569615 0.47435271128480694
0.25335079299975405 0.4948705422569615 0.4851001465559355
0.25358715799984566 0.49193942354665365 0.48216902784562765
0.2538510409999617 0.4978016609672691 0.48998534440644836
0.25409064599989506 0.49877870053737183 0.5036638983878847
0.25460574499993527 0.495847581827064 0.5153883732291158
0.2548134260000552 0.4948705422569615 0.5134342940889105
0.2550163840001005 0.4929164631167562 0.5114802149487054
0.25520756400010214 0.4948705422569615 0.5153883732291158
0.2554205409996939 0.4938935026868587 0.5153883732291158
0.2556091659998856 0.49193942354665365 0.512457254518808
0.25579642100001365 0.4938935026868587 0.524181729360039
0.255986306000068 0.4938935026868587 0.5105031753786029
0.2561733570000797 0.4909623839765511 0.5134342940889105
0.256362407999859 0.4909623839765511 0.5095261358085001
0.2565505329998814 0.4929164631167562 0.5065950170981925
0.25673832499978744 0.48900830483634583 0.5007327796775769
0.2569267099997887 0.49193942354665365 0.49877870053737183
0.2571151499996631 0.49193942354665365 0.49682462139716654
0.2573028299998441 0.4948705422569615 0.4948705422569615
0.25749110400010977 0.4909623839765511 0.48900830483634583
0.25767869199989946 0.4929164631167562 0.4929164631167562
0.25786576199971023 0.49193942354665365 0.4929164631167562
0.25805405399978554 0.48998534440644836 0.486077186126038
0.25824156799990305 0.4880312652662433 0.48705422569614076
0.25842915599969274 0.4880312652662433 0.4851001465559355
0.2586170959998526 0.49193942354665365 0.4909623839765511
0.25880422099999123 0.486077186126038 0.4802149487054226
0.2589919019997069 0.48998534440644836 0.4811919882755251
0.2591804159997082 0.48900830483634583 0.47923790913532005
0.2593750229998477 0.48900830483634583 0.4763067904250122
0.25959612899987405 0.4909623839765511 0.48705422569614076
0.25978456899974844 0.48998534440644836 0.4802149487054226
0.2599721199999294 0.4880312652662433 0.48705422569614076
0.2601596710001104 0.49193942354665365 0.4811919882755251
0.2603467589997308 0.48705422569614076 0.4831460674157304
0.2605336990000069 0.48900830483634583 0.486077186126038
0.26072088000000804 0.4938935026868587 0.4802149487054226
0.2609081719997448 0.48705422569614076 0.4851001465559355
0.2610953159996825 0.48216902784562765 0.4831460674157304
0.2612825339997471 0.48216902784562765 0.486077186126038
0.26146951100008664 0.4802149487054226 0.4880312652662433
0.2616576549999081 0.4802149487054226 0.49682462139716654
0.26184539099995163 0.48412310698583294 0.4938935026868587
0.26203294199967786 0.4802149487054226 0.49193942354665365
0.2622200119999434 0.4831460674157304 0.4938935026868587
0.26240715599988107 0.486077186126038 0.4948705422569615
0.2625943739999457 0.47923790913532005 0.4880312652662433
0.26278636899996854 0.48216902784562765 0.4929164631167562
0.26297430899967367 0.4782608695652173 0.48900830483634583
0.26316191599971717 0.47923790913532005 0.4948705422569615
0.2633717999997316 0.48412310698583294 0.49193942354665365
0.26355838800009224 0.48412310698583294 0.4948705422569615
0.26374619899979734 0.4811919882755251 0.4929164631167562
0.26393369399966105 0.48412310698583294 0.4978016609672691
0.26412165300007473 0.4851001465559355 0.49975574010747437
0.26431088899971655 0.4929164631167562 0.5007327796775769
0.26449918099979186 0.4851001465559355 0.5065950170981925
0.26468651000004684 0.4880312652662433 0.5046409379579873
0.26487535699970977 0.49193942354665365 0.512457254518808
0.2650626119998378 0.48900830483634583 0.5056179775280898
0.2652491639996697 0.4938935026868587 0.5056179775280898
0.26543664099972375 0.48900830483634583 0.5085490962383976
0.26562341399994693 0.48998534440644836 0.5026868588177822
0.26581142799977897 0.49193942354665365 0.5017098192476794
0.26601234899999326 0.48705422569614076 0.4978016609672691
0.2662023630000476 0.48900830483634583 0.4978016609672691
0.26639000699969984 0.49193942354665365 0.4948705422569615
0.2665778919999866 0.49193942354665365 0.4938935026868587
0.2667653129997234 0.49193942354665365 0.4880312652662433
0.2669590119999157 0.4880312652662433 0.49193942354665365
0.26747577800006184 0.48705422569614076 0.4948705422569615
0.2676857179999388 0.4909623839765511 0.48998534440644836
0.26791021300005013 0.4909623839765511 0.4929164631167562
0.2680998749997343 0.4909623839765511 0.4909623839765511
0.2682883329998731 0.4948705422569615 0.4909623839765511
0.2684761810000964 0.48900830483634583 0.48900830483634583
0.26866389899987553 0.49193942354665365 0.4929164631167562
0.26885094999988723 0.4938935026868587 0.4978016609672691
0.2690392599997722 0.49682462139716654 0.49682462139716654
0.2692356259999542 0.4938935026868587 0.4948705422569615
0.2694232879998708 0.49682462139716654 0.49877870053737183
0.2696143579996715 0.5026868588177822 0.4938935026868587
0.2698018910000428 0.4948705422569615 0.495847581827064
0.26998890499999106 0.4948705422569615 0.4978016609672691
0.2701764190001086 0.4929164631167562 0.495847581827064
0.2703638220000357 0.4929164631167562 0.4948705422569615
0.27055085499978304 0.4948705422569615 0.49682462139716654
0.2707378869999957 0.49682462139716654 0.49193942354665365
0.2709256240000286 0.49682462139716654 0.49877870053737183
0.2711130640000192 0.4948705422569615 0.4948705422569615
0.27130557800001043 0.4978016609672691 0.4978016609672691
0.2714945180000541 0.4978016609672691 0.4978016609672691
0.2716815690000658 0.4929164631167562 0.4948705422569615
0.271868454000014 0.4929164631167562 0.4909623839765511
0.27205500499985646 0.4948705422569615 0.4880312652662433
0.2722438709997732 0.4929164631167562 0.4831460674157304
0.2724318109999331 0.49877870053737183 0.4802149487054226
0.27262102899976526 0.4938935026868587 0.4763067904250122
0.2728085059998193 0.495847581827064 0.47435271128480694
0.2729956489997676 0.4929164631167562 0.47142159257449934
0.273183551999864 0.5026868588177822 0.47728382999511476
0.27337034399988625 0.49193942354665365 0.4684904738641915
0.2735577469998134 0.4929164631167562 0.47239863214460187
0.2737456499999098 0.4948705422569615 0.47435271128480694
0.27393366499973126 0.4938935026868587 0.4811919882755251
0.2741216419999546 0.49682462139716654 0.47728382999511476
0.2743096929998501 0.5026868588177822 0.48412310698583294
0.27449761399975614 0.4929164631167562 0.4880312652662433
0.2746843320001062 0.4938935026868587 0.48900830483634583
0.27487182799995935 0.4948705422569615 0.49193942354665365
0.2750593789996856 0.4929164631167562 0.49193942354665365
0.2752469859997291 0.48900830483634583 0.4909623839765511
0.2754579439997542 0.4978016609672691 0.4978016609672691
0.2756493279998722 0.4948705422569615 0.48998534440644836
0.2758579159999499 0.4938935026868587 0.48900830483634583
0.2760490599998775 0.495847581827064 0.4909623839765511
0.2762388890000693 0.4938935026868587 0.4909623839765511
0.27642958799970074 0.49877870053737183 0.49975574010747437
0.276619768999808 0.49682462139716654 0.4978016609672691
0.276809800999672 0.5026868588177822 0.5085490962383976
0.2770002779998322 0.49682462139716654 0.49975574010747437
0.27719097699991835 0.4948705422569615 0.5017098192476794
0.27738158400006796 0.49682462139716654 0.5007327796775769
0.27757956100003867 0.49193942354665365 0.5036638983878847
0.2777858899999046 0.49193942354665365 0.49975574010747437
0.2779866259998016 0.4948705422569615 0.49877870053737183
0.27818295399993076 0.49877870053737183 0.49877870053737183
0.2783852089996799 0.48998534440644836 0.5026868588177822
0.27857529699986117 0.48998534440644836 0.49877870053737183
0.27876568100009536 0.48998534440644836 0.49877870053737183
0.2789563989999806 0.4851001465559355 0.4938935026868587
0.2791472649996649 0.48900830483634583 0.49682462139716654
0.27935322299981635 0.49193942354665365 0.49682462139716654
0.2795469600000615 0.48998534440644836 0.49193942354665365
0.2797366219997457 0.4909623839765511 0.4938935026868587
0.2799269140000433 0.49193942354665365 0.48900830483634583
0.28011690899984387 0.4938935026868587 0.48900830483634583
0.280307922999782 0.48900830483634583 0.4831460674157304
0.2804981039998893 0.48998534440644836 0.486077186126038
0.2806901549997747 0.48705422569614076 0.4802149487054226
0.2808942980000211 0.4880312652662433 0.48900830483634583
0.28109534899977007 0.4880312652662433 0.4851001465559355
0.28130112200005897 0.486077186126038 0.486077186126038
0.28152472800002215 0.4948705422569615 0.4851001465559355
0.28172648300005676 0.4880312652662433 0.48216902784562765
0.28192853399968953 0.48998534440644836 0.48412310698583294
0.282190767999964 0.486077186126038 0.47923790913532005
0.28244302199982485 0.48705422569614076 0.4753297508549097
0.2828116239998053 0.48412310698583294 0.4704445530043966
0.2832476879998467 0.48705422569614076 0.47435271128480694
0.283618789999764 0.4909623839765511 0.47923790913532005
0.28385017399978096 0.48412310698583294 0.48705422569614076
0.28411550100008753 0.48705422569614076 0.4851001465559355
0.28433438499996555 0.4880312652662433 0.48705422569614076
0.2845550279998861 0.48412310698583294 0.49193942354665365
0.28480241099987325 0.4851001465559355 0.48998534440644836
0.28506199799994647 0.48216902784562765 0.4938935026868587
0.28533436199995776 0.4851001465559355 0.4948705422569615
0.2855764480000289 0.486077186126038 0.49877870053737183
0.28580762799992954 0.48216902784562765 0.49682462139716654
0.286067937000098 0.48412310698583294 0.495847581827064
0.2863975219997883 0.48412310698583294 0.4978016609672691
0.28673012499984907 0.4880312652662433 0.5036638983878847
0.2869383059996835 0.48998534440644836 0.5017098192476794
0.28712765299997045 0.4929164631167562 0.5007327796775769
0.2873218340000676 0.48705422569614076 0.5065950170981925
0.28751316299985774 0.48998534440644836 0.5036638983878847
0.28770082499977434 0.4909623839765511 0.5085490962383976
0.2878887459996804 0.4909623839765511 0.5017098192476794
0.2880762979998508 0.4909623839765511 0.5046409379579873
0.2882634969996616 0.4880312652662433 0.5007327796775769
0.2884505479996733 0.4938935026868587 0.49682462139716654
0.28863758099987535 0.4909623839765511 0.4938935026868587
0.288824484000088 0.4909623839765511 0.4880312652662433
0.28901249799992 0.4929164631167562 0.4938935026868587
0.2891991050000797 0.4929164631167562 0.48900830483634583
0.2893859339997107 0.4909623839765511 0.4851001465559355
0.2895731139997224 0.4948705422569615 0.48900830483634583
0.289760424999713 0.49975574010747437 0.4880312652662433
0.2899503459998414 0.4929164631167562 0.4929164631167562
0.2901372309997896 0.4948705422569615 0.48705422569614076
0.2903249669998331 0.4929164631167562 0.4938935026868587
0.29051209299996117 0.4948705422569615 0.48998534440644836
0.29069906999984596 0.49193942354665365 0.49193942354665365
0.2908859169997413 0.49682462139716654 0.4909623839765511
0.29107389399996464 0.49877870053737183 0.4948705422569615
0.2912727419998191 0.5007327796775769 0.495847581827064
0.2914622559997042 0.4948705422569615 0.4938935026868587
0.2916498069998852 0.4938935026868587 0.495847581827064
0.291837005999696 0.495847581827064 0.5056179775280898
0.29202550199988764 0.49682462139716654 0.5026868588177822
0.29224018200011415 0.4978016609672691 0.4978016609672691
0.29242795499976637 0.4978016609672691 0.4978016609672691
0.2926164319997042 0.49877870053737183 0.49682462139716654
0.29280396500007555 0.5007327796775769 0.5007327796775769
0.29299155299986523 0.5046409379579873 0.4909623839765511
0.2931798639997396 0.49877870053737183 0.4929164631167562
0.29336774800003695 0.495847581827064 0.48705422569614076
0.29355535500008045 0.49682462139716654 0.4909623839765511
0.2937429619996692 0.49682462139716654 0.4909623839765511
0.2939425869999468 0.4948705422569615 0.486077186126038
0.29413145299986354 0.495847581827064 0.4880312652662433
0.29431850399987525 0.495847581827064 0.48705422569614076
0.2945055360000879 0.5007327796775769 0.48900830483634583
0.29469260599989866 0.5017098192476794 0.49193942354665365
0.2948796199998469 0.4978016609672691 0.4831460674157304
0.29506691200003843 0.4929164631167562 0.47923790913532005
0.29525457499994445 0.49682462139716654 0.4811919882755251
0.2954530329998306 0.4929164631167562 0.4782608695652173
0.29564045400002215 0.4938935026868587 0.4753297508549097
0.2958281349997378 0.49682462139716654 0.47923790913532005
0.2960149639998235 0.4938935026868587 0.4831460674157304
0.2962018859998352 0.49682462139716654 0.4851001465559355
0.2963890480000373 0.4938935026868587 0.4831460674157304
0.296575970000049 0.4948705422569615 0.486077186126038
0.29676383600008194 0.49193942354665365 0.48412310698583294
0.2969507939997129 0.4909623839765511 0.48900830483634583
0.29713730799994664 0.48998534440644836 0.48412310698583294
0.2973250999998527 0.48998534440644836 0.48412310698583294
0.29751213300005475 0.495847581827064 0.48705422569614076
0.297699147000003 0.48900830483634583 0.48705422569614076
0.2978869579997081 0.48900830483634583 0.4909623839765511
0.29807506399993144 0.486077186126038 0.48900830483634583
0.2982632079997529 0.4880312652662433 0.48900830483634583
0.29845079599999735 0.4880312652662433 0.48900830483634583
0.29863869900009377 0.48900830483634583 0.48900830483634583
0.29883297299966216 0.4851001465559355 0.48998534440644836
0.29902815300010843 0.48705422569614076 0.4938935026868587
0.2992384819999643 0.48998534440644836 0.48900830483634583
0.29949547599971993 0.4851001465559355 0.4880312652662433
0.299702489000083 0.49193942354665365 0.4938935026868587
0.2999046139998427 0.4851001465559355 0.49975574010747437
0.300107128000036 0.4880312652662433 0.49682462139716654
0.30029817900003763 0.4880312652662433 0.495847581827064
0.30048898899985943 0.48998534440644836 0.49877870053737183
0.3006843919997664 0.48998534440644836 0.495847581827064
0.30087418399989474 0.4880312652662433 0.49877870053737183
0.30106369799977983 0.486077186126038 0.495847581827064
0.30125408300000345 0.495847581827064 0.5026868588177822
0.3014447629998358 0.486077186126038 0.5065950170981925
0.30163586999969993 0.4851001465559355 0.5065950170981925
0.3018272730000717 0.4909623839765511 0.5026868588177822
0.3020539529998132 0.48998534440644836 0.5017098192476794
0.3022445040001003 0.4929164631167562 0.5056179775280898
0.30243570299990097 0.49193942354665365 0.5065950170981925
0.30262712500007183 0.4929164631167562 0.49877870053737183
0.30281676799995694 0.48705422569614076 0.4948705422569615
0.30300787499982107 0.486077186126038 0.4909623839765511
0.30319879699982266 0.49193942354665365 0.48900830483634583
0.30339592199970866 0.4880312652662433 0.4909623839765511
0.3035863430000063 0.48705422569614076 0.48412310698583294
0.3037765609997223 0.4851001465559355 0.48412310698583294
0.30396679699970264 0.48900830483634583 0.48216902784562765
0.3041571260000637 0.486077186126038 0.48216902784562765
0.30434710300005463 0.4909623839765511 0.4851001465559355
0.3045468020000044 0.4831460674157304 0.4831460674157304
0.30473742699996365 0.4851001465559355 0.4811919882755251
0.30492786700006036 0.4831460674157304 0.4811919882755251
0.30512408499998855 0.48705422569614076 0.4811919882755251
0.305314117999842 0.48900830483634583 0.4782608695652173
0.30550420600002326 0.4851001465559355 0.4782608695652173
0.3056952199999614 0.4851001465559355 0.4802149487054226
0.30588540100006867 0.48900830483634583 0.48216902784562765
0.3060762289997001 0.4880312652662433 0.4763067904250122
0.3062666139999237 0.4929164631167562 0.48412310698583294
0.30645733199980896 0.49193942354665365 0.4851001465559355
0.30664777199990567 0.486077186126038 0.486077186126038
0.3068388779997804 0.4909623839765511 0.4929164631167562
0.30702974399991945 0.486077186126038 0.495847581827064
0.30722151800000574 0.48900830483634583 0.4978016609672691
0.307412364999891 0.48900830483634583 0.5026868588177822
0.3076028049999877 0.4880312652662433 0.5085490962383976
0.3077935040000739 0.4909623839765511 0.5085490962383976
0.3079838700000437 0.4948705422569615 0.5056179775280898
0.3081733469998653 0.48900830483634583 0.5085490962383976
0.30836384299982456 0.48998534440644836 0.5065950170981925
0.30855404199974146 0.4929164631167562 0.5075720566682951
0.30874481499995454 0.48998534440644836 0.5085490962383976
0.30893484799980797 0.4909623839765511 0.5085490962383976
0.30912502899991523 0.4909623839765511 0.5056179775280898
0.30931513499990615 0.4909623839765511 0.5007327796775769
0.3095051309996961 0.49682462139716654 0.5007327796775769
0.30969555199999377 0.4929164631167562 0.4929164631167562
0.309886269999879 0.4909623839765511 0.4929164631167562
0.3100906730001043 0.48900830483634583 0.4929164631167562
0.310281557000053 0.48998534440644836 0.48705422569614076
0.3104720709998219 0.49193942354665365 0.48998534440644836
0.31066219700005604 0.4909623839765511 0.4909623839765511
0.3108553590000156 0.4880312652662433 0.4880312652662433
0.3110573909998493 0.48998534440644836 0.4938935026868587
0.3112943109999833 0.48998534440644836 0.4880312652662433
0.31150225100009266 0.49682462139716654 0.49193942354665365
0.31169282099972406 0.49193942354665365 0.4831460674157304
0.3118828719998419 0.4929164631167562 0.4811919882755251
0.3120733860000655 0.4929164631167562 0.47142159257449934
0.31226293700001406 0.4929164631167562 0.467513434294089
0.31245283999987805 0.4929164631167562 0.46458231558378116
0.31264290999979494 0.4948705422569615 0.4636052760136786
0.31283325699996567 0.5007327796775769 0.46262823644357587
0.31302367799980857 0.495847581827064 0.467513434294089
0.3132158589996834 0.4948705422569615 0.47239863214460187
0.31340559499994924 0.4978016609672691 0.47728382999511476
0.3135955729999296 0.4938935026868587 0.4831460674157304
0.31378579000011086 0.495847581827064 0.4880312652662433
0.31397747099981643 0.4929164631167562 0.48900830483634583
0.3141919289996622 0.49682462139716654 0.4948705422569615
0.31439859100009926 0.4938935026868587 0.5007327796775769
0.3145994189999328 0.4929164631167562 0.495847581827064
0.31481739599985303 0.5007327796775769 0.5056179775280898
0.3150353169999107 0.4929164631167562 0.5017098192476794
0.31525132999968264 0.4929164631167562 0.49877870053737183
0.3154759919998469 0.49682462139716654 0.5026868588177822
0.3156901160000416 0.49682462139716654 0.5036638983878847
0.3159219999997731 0.4909623839765511 0.4978016609672691
0.316222585000105 0.4880312652662433 0.4948705422569615
0.31653846700010035 0.486077186126038 0.495847581827064
0.31678920200010907 0.48998534440644836 0.4929164631167562
0.3169929380001122 0.49193942354665365 0.4802149487054226
0.31720946999985244 0.4880312652662433 0.4763067904250122
0.31750664799983497 0.49193942354665365 0.4851001465559355
0.3177250499998081 0.4909623839765511 0.4763067904250122
0.31795895200002633 0.48705422569614076 0.4753297508549097
0.31821351999997205 0.48705422569614076 0.47142159257449934
0.3185019019997526 0.48900830483634583 0.4733756717147044
0.3188068399999793 0.4938935026868587 0.4753297508549097
0.3191012590000355 0.495847581827064 0.4811919882755251
0.31944264000003386 0.4929164631167562 0.4880312652662433
0.31988085200009664 0.4929164631167562 0.49877870053737183
0.32008081000003585 0.49877870053737183 0.5085490962383976
0.32026954599996316 0.4978016609672691 0.5075720566682951
0.3204588200001126 0.5026868588177822 0.5065950170981925
0.3206469449996803 0.4938935026868587 0.5065950170981925
0.3208337930000198 0.49193942354665365 0.5046409379579873
0.32102308399998947 0.4938935026868587 0.5065950170981925
0.3212124869996842 0.4948705422569615 0.5075720566682951
0.32139998299999206 0.48998534440644836 0.5056179775280898
0.32158851599979243 0.49877870053737183 0.5075720566682951
0.3217757709999205 0.4948705422569615 0.512457254518808
0.3219628219999322 0.4929164631167562 0.5065950170981925
0.322149705999891 0.4909623839765511 0.5026868588177822
0.32233666499996616 0.48998534440644836 0.5056179775280898
0.3225242159996924 0.49193942354665365 0.5105031753786029
0.32271832299966263 0.48900830483634583 0.5017098192476794
0.3229215030000887 0.49682462139716654 0.5007327796775769
0.323113942999953 0.49682462139716654 0.4978016609672691
0.32330625299982785 0.4909623839765511 0.4948705422569615
0.32350022999980865 0.48998534440644836 0.49877870053737183
0.323690021999937 0.49682462139716654 0.49975574010747437
0.32387703599988527 0.48705422569614076 0.5085490962383976
0.3240645129999393 0.4880312652662433 0.5056179775280898
0.32425230499984536 0.48705422569614076 0.5134342940889105
0.3244392449996667 0.4929164631167562 0.5105031753786029
0.32462683399990055 0.48900830483634583 0.5212506106497312
0.32481490300006044 0.4880312652662433 0.5105031753786029
0.32500215799973375 0.4929164631167562 0.5192965315095261
0.32518915399987236 0.4929164631167562 0.512457254518808
0.3253764460000639 0.48998534440644836 0.5105031753786029
0.32556379299967375 0.48900830483634583 0.5056179775280898
0.3257509189998018 0.4880312652662433 0.49682462139716654
0.32593833999999333 0.49682462139716654 0.5036638983878847
0.32612527999981467 0.48705422569614076 0.4851001465559355
0.3263125720000062 0.4938935026868587 0.48216902784562765
0.3264994940000179 0.48705422569614076 0.47923790913532005
0.3266872669996701 0.4851001465559355 0.47923790913532005
0.3268741520000731 0.48998534440644836 0.4811919882755251
0.32706090600004245 0.4880312652662433 0.47728382999511476
0.32724849499982156 0.48900830483634583 0.47923790913532005
0.327445878999697 0.48705422569614076 0.48216902784562765
0.32763376299999436 0.48900830483634583 0.48216902784562765
0.3278214259999004 0.4909623839765511 0.4802149487054226
0.32804180999983146 0.48998534440644836 0.48216902784562765
0.328229452999949 0.49975574010747437 0.4851001465559355
0.32841715299991847 0.4909623839765511 0.4851001465559355
0.3286042219997398 0.49193942354665365 0.49193942354665365
0.32879156999979386 0.48998534440644836 0.486077186126038
0.3289797140000701 0.4938935026868587 0.4938935026868587
0.329166745999828 0.4929164631167562 0.4880312652662433
0.32935368600010406 0.4938935026868587 0.4880312652662433
0.32954058899986194 0.4909623839765511 0.4880312652662433
0.3297268440001062 0.49682462139716654 0.49682462139716654
0.329913599000065 0.49975574010747437 0.4938935026868587
0.3301003359997594 0.4948705422569615 0.5026868588177822
0.3302968499997405 0.495847581827064 0.5007327796775769
0.33048688200005927 0.48998534440644836 0.5046409379579873
0.33067432200004987 0.4929164631167562 0.49877870053737183
0.33086200299976554 0.48998534440644836 0.5007327796775769
0.3310501840001052 0.49682462139716654 0.49877870053737183
0.33123671599969384 0.48998534440644836 0.4948705422569615
0.33142556399980094 0.49877870053737183 0.4929164631167562
0.3316138000000137 0.4938935026868587 0.49682462139716654
0.33180085100002543 0.495847581827064 0.4938935026868587
0.3319893099996989 0.4938935026868587 0.4938935026868587
0.33218310199981715 0.4929164631167562 0.4948705422569615
0.33238615299978846 0.495847581827064 0.4880312652662433
0.33258337000006577 0.4938935026868587 0.49193942354665365
0.3327804769996874 0.4938935026868587 0.4811919882755251
0.3329717689998688 0.49877870053737183 0.4811919882755251
0.3331589489998805 0.49682462139716654 0.4782608695652173
0.33334685199997693 0.4978016609672691 0.4831460674157304
0.33353368100006264 0.5007327796775769 0.4811919882755251
0.33372041799975705 0.495847581827064 0.4753297508549097
0.33390724699984276 0.5046409379579873 0.4851001465559355
0.33409451999978046 0.4978016609672691 0.49193942354665365
0.3342836819997501 0.4948705422569615 0.48900830483634583
0.3344731970000794 0.4938935026868587 0.49193942354665365
0.3346601739999642 0.4938935026868587 0.49975574010747437
0.33484663199988063 0.48998534440644836 0.49975574010747437
0.33503392400007215 0.4938935026868587 0.49877870053737183
0.33522082699983 0.49682462139716654 0.5017098192476794
0.335415785999885 0.4929164631167562 0.5026868588177822
0.3356028369998967 0.4909623839765511 0.5026868588177822
0.3357902949996969 0.495847581827064 0.5017098192476794
0.336011494000104 0.4938935026868587 0.5046409379579873
0.3362717289996908 0.4909623839765511 0.48998534440644836
0.33649414899991825 0.48998534440644836 0.48998534440644836
0.33668836700007887 0.49193942354665365 0.4831460674157304
0.33691110299969296 0.4880312652662433 0.48900830483634583
0.33712380099996153 0.5007327796775769 0.4851001465559355
0.3373140189996775 0.4909623839765511 0.4802149487054226
0.33750266299966825 0.4909623839765511 0.47923790913532005
0.33769119499993394 0.49193942354665365 0.4763067904250122
0.3378786170001149 0.4880312652662433 0.4753297508549097
0.3385404349996861 0.4851001465559355 0.4831460674157304
0.33875694800008205 0.48705422569614076 0.49193942354665365
0.3389464809997662 0.48998534440644836 0.486077186126038
0.3391368650000004 0.4831460674157304 0.4802149487054226
0.33932841699970595 0.48705422569614076 0.4851001465559355
0.33951681999997163 0.48900830483634583 0.48412310698583294
0.3397038519997295 0.4851001465559355 0.48705422569614076
0.3398907920000056 0.48900830483634583 0.47923790913532005
0.3400774179999644 0.4909623839765511 0.48412310698583294
0.34026517199981754 0.486077186126038 0.47435271128480694
0.34045214999969176 0.486077186126038 0.47435271128480694
0.34063921899996785 0.4851001465559355 0.47142159257449934
0.3408274559997153 0.48705422569614076 0.4753297508549097
0.3410148959997059 0.4851001465559355 0.47239863214460187
0.3412021320000349 0.4851001465559355 0.47239863214460187
0.3413900349996766 0.48412310698583294 0.46946751343429405
0.34157653100010066 0.4831460674157304 0.4684904738641915
0.3417640630000278 0.486077186126038 0.47239863214460187
0.3419505779997962 0.4851001465559355 0.47728382999511476
0.34213860999989265 0.4831460674157304 0.47728382999511476
0.34232525399966107 0.48705422569614076 0.49193942354665365
0.34251178699969387 0.486077186126038 0.495847581827064
0.34269809699981124 0.4929164631167562 0.4938935026868587
0.3428872039999078 0.48705422569614076 0.5036638983878847
0.3430905319996782 0.49193942354665365 0.5036638983878847
0.34328273199980686 0.4880312652662433 0.5065950170981925
0.34347281999998813 0.4851001465559355 0.512457254518808
0.34365985299973545 0.4831460674157304 0.5144113336590133
0.34384729299972605 0.48900830483634583 0.5134342940889105
0.3440346769998541 0.48900830483634583 0.5153883732291158
0.3442241359998661 0.4880312652662433 0.5153883732291158
0.3445662019998963 0.4831460674157304 0.522227650219834
0.3447832709998693 0.4880312652662433 0.5134342940889105
0.3449725259997649 0.486077186126038 0.5153883732291158
0.3451602059999459 0.48412310698583294 0.5134342940889105
0.3453471839998201 0.4831460674157304 0.5202735710796287
0.3455377159998534 0.4851001465559355 0.5105031753786029
0.34572987799992916 0.4802149487054226 0.5134342940889105
0.34591757799989864 0.48412310698583294 0.5114802149487054
0.3461049620000267 0.48412310698583294 0.5095261358085001
0.34629175400004897 0.486077186126038 0.5095261358085001
0.3464784719999443 0.48412310698583294 0.5114802149487054
0.3466657639996811 0.48998534440644836 0.5085490962383976
0.34685279699988314 0.486077186126038 0.5114802149487054
0.34703960699971503 0.49193942354665365 0.5095261358085001
0.3472335279998333 0.48705422569614076 0.5007327796775769
0.3474310050000895 0.48900830483634583 0.49975574010747437
0.347637425999892 0.48900830483634583 0.4909623839765511
0.3478397179997046 0.4938935026868587 0.49975574010747437
0.34803612099995007 0.486077186126038 0.4909623839765511
0.3482356899999104 0.48900830483634583 0.48705422569614076
0.34850251699981527 0.4851001465559355 0.48998534440644836
0.3486974759998702 0.48900830483634583 0.48900830483634583
0.34896911799978625 0.4938935026868587 0.4880312652662433
0.3491878719996748 0.49682462139716654 0.4909623839765511
0.34938497799976176 0.48900830483634583 0.49193942354665365
0.3495809549999649 0.48900830483634583 0.48900830483634583
0.349827059999825 0.48900830483634583 0.48216902784562765
0.3500265190000391 0.4880312652662433 0.4851001465559355
0.35022575499988307 0.49193942354665365 0.47728382999511476
0.3504278059999706 0.4929164631167562 0.48216902784562765
0.3506868740000755 0.5007327796775769 0.4831460674157304
0.35093407199974536 0.49682462139716654 0.4909623839765511
0.35114006699996025 0.5017098192476794 0.4880312652662433
0.3513910980000219 0.49975574010747437 0.486077186126038
0.3515906489997178 0.495847581827064 0.48900830483634583
0.35178845900009037 0.49877870053737183 0.4851001465559355
0.3520103430000745 0.5036638983878847 0.48900830483634583
0.35220948599999247 0.495847581827064 0.4831460674157304
0.3524144630000592 0.49682462139716654 0.47923790913532005
0.3526500319999286 0.4948705422569615 0.47728382999511476
0.35291804400003457 0.49682462139716654 0.47239863214460187
0.35315933499987295 0.49975574010747437 0.47239863214460187
0.35339258799967865 0.5017098192476794 0.47239863214460187
0.35364732299967727 0.5017098192476794 0.4763067904250122
0.3539077800000996 0.5065950170981925 0.48412310698583294
0.3541049049999856 0.5046409379579873 0.4851001465559355
0.35430273399970247 0.5007327796775769 0.4811919882755251
0.35450404399989566 0.49682462139716654 0.48412310698583294
0.354705520999687 0.4948705422569615 0.47923790913532005
0.354914294000082 0.5007327796775769 0.47923790913532005
0.3551131039998836 0.4938935026868587 0.48412310698583294
0.3553317840001 0.49877870053737183 0.47923790913532005
0.3555611299998418 0.48900830483634583 0.4782608695652173
0.3557911069997317 0.4948705422569615 0.4802149487054226
0.35603089699998236 0.48705422569614076 0.4811919882755251
0.3562459479999234 0.48900830483634583 0.4909623839765511
0.35644914699969377 0.48412310698583294 0.495847581827064
0.35666832700007944 0.48900830483634583 0.5046409379579873
0.35691069199992853 0.49682462139716654 0.512457254518808
0.35713133499984906 0.48900830483634583 0.5105031753786029
0.3573252189999039 0.48998534440644836 0.512457254518808
0.3575177879997682 0.4880312652662433 0.512457254518808
0.3577133949997915 0.4880312652662433 0.5163654127992183
0.3579020019997188 0.486077186126038 0.5163654127992183
0.35809440499997436 0.49682462139716654 0.5173424523693209
0.3582916219997969 0.4880312652662433 0.5095261358085001
0.35849182099991594 0.48705422569614076 0.5075720566682951
0.3586898169996857 0.48705422569614076 0.5046409379579873
0.3588828309998462 0.48900830483634583 0.49975574010747437
0.3591272690000551 0.4831460674157304 0.4948705422569615
0.3594118549999621 0.48412310698583294 0.4636052760136786
0.3602212249998047 0.4851001465559355 0.46946751343429405
0.36047040499988725 0.48998534440644836 0.47728382999511476
0.3606967139999142 0.48412310698583294 0.47435271128480694
0.360923819999698 0.48412310698583294 0.47142159257449934
0.36198709199970835 0.4802149487054226 0.47142159257449934
0.36249567200002275 0.48412310698583294 0.47435271128480694
0.3627288889997544 0.4831460674157304 0.4753297508549097
0.3629584209998029 0.486077186126038 0.47728382999511476
0.36318111899981886 0.48216902784562765 0.48412310698583294
0.3634714830000121 0.4811919882755251 0.48900830483634583
0.3636859779999213 0.4851001465559355 0.49193942354665365
0.36388619499985 0.48705422569614076 0.49193942354665365
0.3640765800000736 0.4851001465559355 0.49682462139716654
0.36426455699984217 0.486077186126038 0.4938935026868587
0.3644553859999178 0.4851001465559355 0.49975574010747437
0.36464330699982384 0.4909623839765511 0.49975574010747437
0.3648601909999343 0.48412310698583294 0.5056179775280898
0.36504816799970286 0.48900830483634583 0.5085490962383976
0.36523584899987327 0.4851001465559355 0.5114802149487054
0.3654260109997267 0.4880312652662433 0.5153883732291158
0.36561365499983367 0.4880312652662433 0.5202735710796287
0.3658004469998559 0.48900830483634583 0.5261358085002443
0.3659912569996777 0.486077186126038 0.5251587689301416
0.36619401200005086 0.486077186126038 0.522227650219834
0.3664038769998115 0.4929164631167562 0.5271128480703469
0.3666009099997609 0.48705422569614076 0.5261358085002443
0.3667890719998468 0.49193942354665365 0.5319980459208598
0.3669772899997952 0.48900830483634583 0.5251587689301416
0.3671644709997963 0.48998534440644836 0.5280898876404494
0.36737892900009683 0.4938935026868587 0.524181729360039
0.3675666280000769 0.4909623839765511 0.5192965315095261
0.36775391999981366 0.4909623839765511 0.522227650219834
0.3679409530000157 0.48998534440644836 0.5192965315095261
0.36813139300011244 0.4880312652662433 0.5192965315095261
0.3683191850000185 0.4929164631167562 0.522227650219834
0.36850710599992453 0.4909623839765511 0.5085490962383976
0.3686953609999364 0.4929164631167562 0.5036638983878847
0.3688829679999799 0.49193942354665365 0.49975574010747437
0.3690704259997801 0.49193942354665365 0.49877870053737183
0.3692582549997496 0.495847581827064 0.4978016609672691
0.3694453620000786 0.4929164631167562 0.4909623839765511
0.36963376499988954 0.49193942354665365 0.4880312652662433
0.3698209089998272 0.495847581827064 0.4811919882755251
0.37000831199975437 0.49193942354665365 0.4782608695652173
0.37019569599988245 0.495847581827064 0.4753297508549097
0.3703827109998201 0.4909623839765511 0.4665363947239862
0.37056983599995874 0.4938935026868587 0.4665363947239862
0.3707572389998859 0.495847581827064 0.4606741573033708
0.3709439750000456 0.4938935026868587 0.4587200781631655
0.3711316750000151 0.4938935026868587 0.4557889594528579
0.37136511399967276 0.495847581827064 0.4636052760136786
0.37155723899968507 0.49877870053737183 0.46458231558378116
0.37174638199985566 0.4948705422569615 0.4655593551538837
0.37193339699979333 0.4909623839765511 0.4733756717147044
0.3721206139998685 0.4909623839765511 0.4684904738641915
0.37230812899997545 0.4948705422569615 0.4782608695652173
0.3724954199997228 0.4929164631167562 0.4811919882755251
0.3726853419998406 0.4929164631167562 0.48998534440644836
0.3728845040000124 0.4978016609672691 0.4929164631167562
0.3730721289998655 0.49682462139716654 0.49682462139716654
0.37325929200005703 0.4909623839765511 0.5017098192476794
0.37344837999989977 0.495847581827064 0.49975574010747437
0.3736351529996682 0.4938935026868587 0.4978016609672691
0.37382279699977516 0.4978016609672691 0.4929164631167562
0.3740104779999456 0.4948705422569615 0.49682462139716654
0.3741974360000313 0.49682462139716654 0.48900830483634583
0.3743841909999901 0.49877870053737183 0.48900830483634583
0.37457068699995943 0.49682462139716654 0.4909623839765511
0.37475773799997114 0.4929164631167562 0.4909623839765511
0.37494517799996174 0.4948705422569615 0.4880312652662433
0.3751332110000476 0.4938935026868587 0.486077186126038
0.375323909999679 0.4938935026868587 0.486077186126038
0.3755120719997649 0.4938935026868587 0.48900830483634583
0.375699345999692 0.4938935026868587 0.48900830483634583
0.3758865639997566 0.49682462139716654 0.48900830483634583
0.37607500400008576 0.495847581827064 0.4851001465559355
0.37626157299973784 0.49877870053737183 0.4851001465559355
0.37644919900003515 0.49682462139716654 0.4851001465559355
0.3766363609997825 0.5007327796775769 0.4851001465559355
0.37682467099966743 0.495847581827064 0.4851001465559355
0.37701222299983783 0.4948705422569615 0.48900830483634583
0.37719949599977554 0.49682462139716654 0.4909623839765511
0.37738673200010453 0.49193942354665365 0.4938935026868587
0.37757420899970384 0.4978016609672691 0.4929164631167562
0.37776205699992715 0.4929164631167562 0.4909623839765511
0.3779540890000135 0.4948705422569615 0.49193942354665365
0.3781432149999091 0.4909623839765511 0.4880312652662433
0.37833435799984727 0.4929164631167562 0.486077186126038
0.37859644499985734 0.4880312652662433 0.48705422569614076
0.37883879099990736 0.4909623839765511 0.495847581827064
0.37903152699982456 0.4909623839765511 0.4938935026868587
0.37922104099970966 0.486077186126038 0.4938935026868587
0.3794153329999972 0.48998534440644836 0.49193942354665365
0.37960632899967095 0.4909623839765511 0.49193942354665365
0.3797968059998311 0.48412310698583294 0.49193942354665365
0.3799898009997378 0.4909623839765511 0.4880312652662433
0.38017959299986614 0.4938935026868587 0.48900830483634583
0.3803700519997619 0.4938935026868587 0.4929164631167562
0.3805615100000068 0.4938935026868587 0.486077186126038
0.3807597089999035 0.4851001465559355 0.4851001465559355
0.38099483299993153 0.486077186126038 0.48900830483634583
0.3811976990000403 0.486077186126038 0.49193942354665365
0.38141371299980165 0.4909623839765511 0.48998534440644836
0.38162759599981655 0.4851001465559355 0.49193942354665365
0.3818351659997461 0.49193942354665365 0.49682462139716654
0.38203466100003425 0.48705422569614076 0.48900830483634583
0.3822278049997294 0.4938935026868587 0.49682462139716654
0.3824655029998212 0.4831460674157304 0.49975574010747437
0.38269088600009127 0.4880312652662433 0.5017098192476794
0.3829017699999895 0.4851001465559355 0.5017098192476794
0.38312739499997406 0.4851001465559355 0.512457254518808
0.38342797999985123 0.4851001465559355 0.5105031753786029
0.3837371949998669 0.486077186126038 0.5163654127992183
0.3841223159997753 0.486077186126038 0.5134342940889105
0.3843816619996687 0.48900830483634583 0.5075720566682951
0.38458226800003104 0.486077186126038 0.49975574010747437
0.38478400399981183 0.4880312652662433 0.49193942354665365
0.3850327209997886 0.4880312652662433 0.48998534440644836
0.3852212349997899 0.48998534440644836 0.48900830483634583
0.3854244710000785 0.4880312652662433 0.48705422569614076
0.3856114479999633 0.4851001465559355 0.48705422569614076
0.3857990179999433 0.4880312652662433 0.48216902784562765
0.38598597600002904 0.4880312652662433 0.4811919882755251
0.3861726939999244 0.4880312652662433 0.4811919882755251
0.3863600790000419 0.48900830483634583 0.47142159257449934
0.38654738900004304 0.4851001465559355 0.4733756717147044
0.3867342919998009 0.48900830483634583 0.47239863214460187
0.38692158399999244 0.48900830483634583 0.4704445530043966
0.38710869099986667 0.48705422569614076 0.4782608695652173
0.387315796999701 0.49193942354665365 0.4763067904250122
0.38750521900010426 0.48998534440644836 0.4782608695652173
0.3876928439999574 0.495847581827064 0.47923790913532005
0.387880191000022 0.4851001465559355 0.48900830483634583
0.38806685400004426 0.4909623839765511 0.486077186126038
0.3882547200000772 0.4909623839765511 0.48998534440644836
0.38844134500004657 0.49193942354665365 0.48900830483634583
0.3886288409998997 0.49682462139716654 0.48705422569614076
0.3888161879999643 0.49877870053737183 0.48998534440644836
0.3890087019999555 0.4948705422569615 0.4880312652662433
0.38921864199983247 0.4929164631167562 0.4851001465559355
0.3894368960000065 0.4938935026868587 0.48216902784562765
0.3896639459999278 0.4948705422569615 0.4802149487054226
0.38988381099989056 0.49877870053737183 0.48998534440644836
0.39014365699995324 0.495847581827064 0.486077186126038
0.3903810589999921 0.49682462139716654 0.48216902784562765
0.3906132570000409 0.4938935026868587 0.486077186126038
0.39083947399967656 0.49877870053737183 0.48412310698583294
0.3910532659997443 0.4948705422569615 0.4880312652662433
0.39125213099987377 0.495847581827064 0.49682462139716654
0.3914793849999114 0.49877870053737183 0.49682462139716654
0.3916902319997462 0.5046409379579873 0.5007327796775769
0.3919050609997612 0.49975574010747437 0.5026868588177822
0.3921265740000308 0.49682462139716654 0.5114802149487054
0.39234692099989843 0.495847581827064 0.5085490962383976
0.3928705749999608 0.5017098192476794 0.5095261358085001
0.3931460320000042 0.5036638983878847 0.5173424523693209
0.3933365089997096 0.49877870053737183 0.5114802149487054
0.3935237820001021 0.49975574010747437 0.5095261358085001
0.3937104259998705 0.49975574010747437 0.5085490962383976
0.3938999399997556 0.4978016609672691 0.5114802149487054
0.3940875469997991 0.5017098192476794 0.5017098192476794
0.39427531999990606 0.4978016609672691 0.5036638983878847
0.39446251899971685 0.5046409379579873 0.4948705422569615
0.39464975600003527 0.495847581827064 0.49193942354665365
0.39483778799967695 0.4978016609672691 0.4948705422569615
0.39502432099970974 0.49682462139716654 0.49193942354665365
0.3952125020000494 0.4929164631167562 0.48705422569614076
0.3954093859997556 0.4978016609672691 0.486077186126038
0.39559623400009514 0.5017098192476794 0.48900830483634583
0.39578372899995884 0.4929164631167562 0.48705422569614076
0.39597105799975907 0.49877870053737183 0.486077186126038
0.3961583319996862 0.48998534440644836 0.4880312652662433
0.3963452899997719 0.4909623839765511 0.48998534440644836
0.39653308199967796 0.48998534440644836 0.48900830483634583
0.3967245959997854 0.4909623839765511 0.48705422569614076
0.39691140700006144 0.4880312652662433 0.4909623839765511
0.3970984019997559 0.48900830483634583 0.4851001465559355
0.3973157860000356 0.4929164631167562 0.47923790913532005
0.3975045779998254 0.4909623839765511 0.4763067904250122
0.3976914439999746 0.495847581827064 0.4763067904250122
0.3978784209998594 0.4938935026868587 0.47923790913532005
0.3980665089998183 0.4929164631167562 0.4802149487054226
0.3982543749998513 0.49193942354665365 0.486077186126038
0.3984410929997466 0.48998534440644836 0.48705422569614076
0.39862871900004393 0.4909623839765511 0.48900830483634583
0.39881728799991834 0.48900830483634583 0.4909623839765511
0.39902063499994256 0.48900830483634583 0.48998534440644836
0.39921309400006066 0.4851001465559355 0.495847581827064
0.39940744099976655 0.48900830483634583 0.4978016609672691
0.39960389999987456 0.48705422569614076 0.5036638983878847
0.39980232099969726 0.48900830483634583 0.49975574010747437
0.40001100099971154 0.4802149487054226 0.5046409379579873
0.4002112190000844 0.4831460674157304 0.5026868588177822
0.4004019919998427 0.48216902784562765 0.5046409379579873
0.4005896539997593 0.48705422569614076 0.5036638983878847
0.4007775939999192 0.486077186126038 0.5065950170981925
0.40096533099995213 0.486077186126038 0.5056179775280898
0.4011521970001013 0.4851001465559355 0.5036638983878847
0.40133937800010244 0.4851001465559355 0.5056179775280898
0.40152590999969107 0.48705422569614076 0.49877870053737183
0.40171255399991423 0.48412310698583294 0.5017098192476794
0.40190151299975696 0.48412310698583294 0.5036638983878847
0.40208884200001194 0.4851001465559355 0.5075720566682951
0.40227583699970637 0.4909623839765511 0.5105031753786029
0.4024637029997393 0.48900830483634583 0.5105031753786029
0.4026511429997299 0.4880312652662433 0.5065950170981925
0.4028382500000589 0.4831460674157304 0.5065950170981925
0.4030252089996793 0.4851001465559355 0.5036638983878847
0.4032126120000612 0.4811919882755251 0.5026868588177822
0.4034062739997353 0.486077186126038 0.4978016609672691
0.4035938070001066 0.486077186126038 0.5026868588177822
0.4037812279998434 0.4929164631167562 0.49877870053737183
0.40396840899984454 0.4831460674157304 0.4929164631167562
0.40415540499998315 0.4880312652662433 0.49193942354665365
0.4043424189999314 0.48705422569614076 0.48998534440644836
0.40452971099966817 0.4909623839765511 0.4948705422569615
0.4047175769997011 0.486077186126038 0.4909623839765511
0.40490440599978683 0.48705422569614076 0.495847581827064
0.40509108600008403 0.48705422569614076 0.48900830483634583
0.4052782300000217 0.48705422569614076 0.48900830483634583
0.40546641099990666 0.4880312652662433 0.4929164631167562
0.405653221999728 0.4880312652662433 0.49682462139716654
0.4058406619997186 0.48705422569614076 0.49682462139716654
0.40602774999979374 0.4880312652662433 0.495847581827064
0.4062139309999111 0.4880312652662433 0.49682462139716654
0.4064015189997008 0.4909623839765511 0.4978016609672691
0.40658868099990286 0.49682462139716654 0.4938935026868587
0.4067763620000733 0.495847581827064 0.49877870053737183
0.40698483899996063 0.4938935026868587 0.48900830483634583
0.4071726489996763 0.49193942354665365 0.48412310698583294
0.40737775499974305 0.4948705422569615 0.48216902784562765
0.4075650099998711 0.4909623839765511 0.4831460674157304
0.40775235799992515 0.4978016609672691 0.48412310698583294
0.40794033499969373 0.4909623839765511 0.48412310698583294
0.4081270530000438 0.4909623839765511 0.4851001465559355
0.40831440000010844 0.4909623839765511 0.4909623839765511
0.4085014509996654 0.495847581827064 0.49193942354665365
0.4086879289998251 0.49975574010747437 0.4929164631167562
0.408874423999805 0.4929164631167562 0.48412310698583294
0.4090608460001022 0.4938935026868587 0.48412310698583294
0.4092473410000821 0.4948705422569615 0.4851001465559355
0.4094432259998939 0.4948705422569615 0.4811919882755251
0.40963548099989566 0.4948705422569615 0.4782608695652173
0.40982286500002374 0.4938935026868587 0.4704445530043966
0.41001028699974995 0.4938935026868587 0.4684904738641915
0.4101980969999204 0.4938935026868587 0.4665363947239862
0.41038555599971005 0.4938935026868587 0.46262823644357587
0.41057338499967955 0.5036638983878847 0.46262823644357587
0.4107599539997864 0.495847581827064 0.4636052760136786
0.41094748699970296 0.49193942354665365 0.45969711773326827
0.4111435189997792 0.49193942354665365 0.46458231558378116
0.4113713659999121 0.4909623839765511 0.4704445530043966
0.41161937900005796 0.4978016609672691 0.47728382999511476
0.4118096520001018 0.4929164631167562 0.4782608695652173
0.41199772199979634 0.4929164631167562 0.48216902784562765
0.4121848839999984 0.4929164631167562 0.4880312652662433
0.4123721569999361 0.48900830483634583 0.4880312652662433
0.41256259700003284 0.4929164631167562 0.48900830483634583
0.41275018599981195 0.4929164631167562 0.4909623839765511
0.4129371069998342 0.4929164631167562 0.4909623839765511
0.4131250289997297 0.49682462139716654 0.4880312652662433
0.4133121539998683 0.49682462139716654 0.48998534440644836
0.41349911299994346 0.4938935026868587 0.4938935026868587
0.413686756000061 0.49682462139716654 0.48998534440644836
0.41387375199974485 0.49877870053737183 0.48900830483634583
0.41406089599968254 0.49193942354665365 0.48998534440644836
0.41425496500005465 0.49975574010747437 0.48900830483634583
0.4144424060000347 0.49877870053737183 0.4880312652662433
0.41462930899979256 0.5017098192476794 0.4909623839765511
0.41481708199989953 0.49682462139716654 0.4851001465559355
0.41502011400007177 0.4938935026868587 0.4851001465559355
0.41521579499976724 0.4929164631167562 0.48705422569614076
0.41540623499986395 0.4938935026868587 0.48900830483634583
0.41559361899999203 0.4929164631167562 0.4909623839765511
0.4157838930000253 0.4948705422569615 0.49193942354665365
0.4159721289997833 0.4938935026868587 0.495847581827064
0.41615949500010174 0.4929164631167562 0.49682462139716654
0.4163498799998706 0.49975574010747437 0.5046409379579873
0.41653718999987177 0.495847581827064 0.5017098192476794
0.41672551900001054 0.4909623839765511 0.5046409379579873
0.41691403300001184 0.4948705422569615 0.5026868588177822
0.41710100999989663 0.4978016609672691 0.5036638983878847
0.41728767299991887 0.4948705422569615 0.49682462139716654
0.41747464999980366 0.4948705422569615 0.5065950170981925
