0.0 0.46946751343429405 0.4460185637518319
0.0002127659574468085 0.46680714788169664 0.4521578688732106
0.000425531914893617 0.46414678232909923 0.4582971739945893
0.0006382978723404255 0.4614864167765018 0.46443647911596797
0.000851063829787234 0.4588260512239044 0.4705757842373467
0.0010638297872340426 0.4570887475968769 0.47597524800274266
0.001276595744680851 0.4585190492648847 0.47883585133875833
0.0014893617021276596 0.4541592739733299 0.4810622308112542
0.001702127659574468 0.45086926244941467 0.48014595039956237
0.0019148936170212765 0.4502028749103286 0.4782608695652173
0.002127659574468085 0.45137986369615146 0.476257119660033
0.002340425531914894 0.4517580946565532 0.46934572942981007
0.002553191489361702 0.4524053061589867 0.462700206846552
0.0027659574468085106 0.44992672203224227 0.4559699559695266
0.0029787234042553193 0.44781636830158134 0.44285324874234333
0.0031914893617021275 0.44535228641537383 0.4332722964713292
0.003404255319148936 0.4450415241817294 0.43045910449076025
0.003617021276595745 0.4418559591193528 0.4309796387850175
0.003829787234042553 0.4387666398096206 0.43970108932986757
0.004042553191489362 0.43656990019412634 0.4515709121692688
0.00425531914893617 0.43617047293427136 0.4626117379711521
0.004468085106382979 0.43722520762090866 0.4740400067848702
0.004680851063829788 0.44068633290582837 0.48143718033701854
0.004893617021276595 0.4389232224021174 0.48234927164840424
0.005106382978723404 0.43911636487231387 0.48308314552693055
0.005319148936170213 0.4404611616918199 0.49120625226503384
0.005531914893617021 0.4452177275670518 0.4969849828808308
0.00574468085106383 0.4457391475205119 0.5121833417245925
0.005957446808510639 0.4457222485225305 0.5281779815226478
0.006170212765957446 0.4473669065225178 0.5349684715255264
0.006382978723404255 0.44737455953644756 0.5383191540927065
0.006595744680851064 0.4461482653600195 0.534475209002511
0.006808510638297872 0.4474449106084792 0.5299369506329025
0.007021276595744681 0.44914061545734996 0.5222500248138854
0.00723404255319149 0.44563582280603964 0.514028592713221
0.007446808510638298 0.44243271603718504 0.5062423829139929
0.007659574468085106 0.44039888276759853 0.49339476216494677
0.007872340425531916 0.43960091944633634 0.486077186126038
0.008085106382978723 0.44042277418524794 0.486077186126038
0.008297872340425531 0.441133365901319 0.48629244691480245
0.00851063829787234 0.441133365901319 0.4878824908919593
0.008723404255319148 0.441133365901319 0.4907386857293142
0.008936170212765958 0.44033019566859827 0.49256872444199257
0.009148936170212766 0.4409850535570889 0.4987175536978635
0.009361702127659575 0.44025218043734193 0.49799336917952003
0.009574468085106383 0.4382996173552236 0.5061568513592367
0.00978723404255319 0.43627586627540965 0.5055995120450207
0.01 0.4395505947588263 0.5033854173896003
0.010212765957446808 0.4425237672676311 0.5001691019036838
0.010425531914893617 0.44068309741181905 0.49674811880606395
0.010638297872340425 0.4431545341026905 0.49102214895086915
0.010851063829787235 0.4461402970291769 0.4831460674157304
0.011063829787234043 0.4467084588720269 0.4831460674157304
0.01127659574468085 0.44799620168572984 0.4801442723243443
0.01148936170212766 0.45004165269345375 0.47619185976380074
0.011702127659574468 0.45028798639388795 0.4716350996041685
0.011914893617021277 0.44992672203224227 0.4668443745870424
0.012127659574468085 0.45057671067946126 0.46425937785944577
0.012340425531914893 0.4497082273380099 0.45523653616333404
0.012553191489361702 0.4495066400493939 0.4443571461597002
0.01276595744680851 0.4479792985268008 0.434314055814892
0.01297872340425532 0.4451607999928122 0.42585856021292606
0.013191489361702127 0.44498974633263283 0.41655541288283054
0.013404255319148937 0.44655202409505784 0.40933463931481023
0.013617021276595745 0.45242470887379627 0.39803284898421015
0.013829787234042552 0.45380969107297614 0.3886653233195779
0.014042553191489362 0.45212764532146416 0.3859357987035047
0.01425531914893617 0.455966418552295 0.3838078634535324
0.01446808510638298 0.45408929983565577 0.3852724973901361
0.014680851063829787 0.45571802501532344 0.3854421104054715
0.014893617021276596 0.463498713544997 0.38447839114395393
0.015106382978723404 0.45676599902296044 0.3845046073721326
0.015319148936170212 0.4568933376315807 0.3856967876227119
0.015531914893617021 0.4581263521430461 0.38854613019562584
0.01574468085106383 0.45969711773326827 0.39252440277416867
0.015957446808510637 0.46081209205391405 0.3911635389964687
0.016170212765957447 0.4636052760136786 0.3939940714070894
0.016382978723404256 0.4636052760136786 0.3969199708203357
0.016595744680851062 0.46549569436288435 0.39912066438690763
0.01680851063829787 0.46697748715685133 0.39912066438690763
0.01702127659574468 0.4689810283857958 0.39912066438690763
0.01723404255319149 0.46977582583503985 0.3984519372175509
0.017446808510638297 0.4745945963406548 0.3996085056471938
0.017659574468085106 0.472358661576108 0.39851845241744854
0.017872340425531916 0.47310214876717493 0.3981436248168051
0.018085106382978722 0.4724880584706152 0.3945931718404481
0.01829787234042553 0.47523275729052805 0.39518017491837004
0.01851063829787234 0.4753297508549097 0.39711084179634815
0.01872340425531915 0.4753297508549097 0.39503476825850237
0.018936170212765956 0.4750237091215127 0.3927993643661968
0.019148936170212766 0.47317010680553745 0.38950504861931645
0.019361702127659575 0.4726555268658692 0.38539157109050465
0.01957446808510638 0.47470702597401304 0.3835095073896452
0.01978723404255319 0.4760591285744931 0.3846256427917237
0.02 0.47679084462446136 0.38641379127285147
0.02021276595744681 0.47423432328120935 0.3915740846210421
0.020425531914893616 0.4691966204224072 0.39762619100325536
0.020638297872340425 0.46601394601853463 0.4044316276869097
0.020851063829787235 0.46577020674166764 0.4128764367371612
0.02106382978723404 0.4646747968440553 0.42229217028854743
0.02127659574468085 0.4649937380476635 0.4289718878646399
0.02148936170212766 0.46245390102979894 0.44047865653346596
0.02170212765957447 0.46165119687347334 0.4550884181475387
0.021914893617021276 0.4597827570792688 0.4651739780968812
0.022127659574468085 0.4616677938761659 0.4744356962982699
0.022340425531914895 0.4627233330925811 0.4809496488174143
0.0225531914893617 0.4632652767987452 0.49614462296729966
0.02276595744680851 0.4619122802343172 0.4950051300035073
0.02297872340425532 0.4619254912181844 0.50213827012836
0.023191489361702126 0.46263239546629303 0.5081657666512472
0.023404255319148935 0.4628181611171432 0.5144622418526882
0.023617021276595745 0.4566869125941127 0.5168934757986935
0.023829787234042554 0.4526525826605672 0.516250471048274
0.02404255319148936 0.44992672203224227 0.511209643545116
0.02425531914893617 0.44933157814149216 0.5097096501909361
0.02446808510638298 0.44749809617506686 0.5064275194804817
0.024680851063829785 0.4491383475933261 0.5066691434466447
0.024893617021276595 0.44588872624770076 0.5121088489817123
0.025106382978723404 0.4445399597988481 0.5149389872375544
0.025319148936170214 0.4450415241817294 0.5176002466703702
0.02553191489361702 0.4457581912747692 0.5217069052657084
0.02574468085106383 0.4443652828432587 0.5271874929455538
0.02595744680851064 0.4431619693341624 0.5253823418080564
0.026170212765957445 0.4430874450415241 0.5232510724973564
0.026382978723404255 0.4383179162584292 0.5212506106497312
0.026595744680851064 0.4399736565113408 0.5213419455596691
0.026808510638297874 0.43759929722381724 0.5216247002526401
0.02702127659574468 0.43470892477239004 0.5199788353865804
0.02723404255319149 0.4361296074589389 0.5268471720514476
0.0274468085106383 0.4355715862434365 0.5301952993444614
0.027659574468085105 0.4352711284807034 0.5319980459208598
0.027872340425531914 0.4352711284807034 0.5319980459208598
0.028085106382978724 0.4365711808878354 0.5274478624958978
0.028297872340425533 0.43674980039231476 0.5237325472443599
0.02851063829787234 0.4365809785213568 0.5218948397492832
0.02872340425531915 0.43698250187889104 0.5176100245194669
0.02893617021276596 0.4359142256261997 0.5059271322489797
0.029148936170212764 0.43394996704461114 0.5019986150858026
0.029361702127659574 0.4333170493404983 0.5016177563693712
0.029574468085106383 0.43351634549361956 0.5020889703584185
0.029787234042553193 0.43461621692320085 0.49878935606967445
0.03 0.4357160883527822 0.49548974178093047
0.03021276595744681 0.4368159597823635 0.49219012749218644
0.030425531914893618 0.43791583121194483 0.4888905132034424
0.030638297872340424 0.4391753418923763 0.47830031825259217
0.030851063829787233 0.440491061222342 0.46514312495293525
0.031063829787234043 0.44180678055230765 0.45198593165327833
0.03127659574468085 0.44311657744877947 0.43916836210839294
0.03148936170212766 0.4442100090700657 0.43875832525041064
0.03170212765957447 0.4453034406913519 0.43834828839242834
0.031914893617021274 0.4463968723126381 0.43793825153444604
0.03212765957446809 0.44749030393392436 0.43752821467646374
0.03234042553191489 0.4485837355552105 0.43711817781848145
0.0325531914893617 0.44967716717649675 0.43670814096049915
0.03276595744680851 0.450770598797783 0.4362981041025168
0.03297872340425532 0.45428742391706445 0.43692490051375
0.033191489361702124 0.45458705891367435 0.43301855573376635
0.03340425531914894 0.4525681890965297 0.42721920258988305
0.03361702127659574 0.4553043322512798 0.4227619079166118
0.033829787234042556 0.4559939172542704 0.4185042474245069
0.03404255319148936 0.45929368715615304 0.4273224174029185
0.03425531914893617 0.45968938514216445 0.41865565634563157
0.03446808510638298 0.4556786062992822 0.4158406902322273
0.03468085106382979 0.4561556723446251 0.41469174795594943
0.03489361702127659 0.45968595357001324 0.4072552180289259
0.035106382978723406 0.4585865398992534 0.40174243484667377
0.03531914893617021 0.45969711773326827 0.39514081927380124
0.03553191489361702 0.45969711773326827 0.39110907232764186
0.03574468085106383 0.45902655965102157 0.38800915252138857
0.03595744680851064 0.4587200781631655 0.38319888570633176
0.036170212765957444 0.45947381950500443 0.378518986757706
0.036382978723404256 0.4622305228123 0.37678132548497334
0.03659574468085106 0.4617380466754468 0.3659664770569986
0.03680851063829787 0.46165119687347334 0.35843121493643587
0.03702127659574468 0.46197605320591384 0.3623081347643252
0.03723404255319149 0.4623175613027719 0.3667477400234798
0.0374468085106383 0.46265906939963 0.37118734528263453
0.03765957446808511 0.46300057749648804 0.37562695054178913
0.03787234042553191 0.4633420855933461 0.38006655580094373
0.038085106382978726 0.4636897415490441 0.38369919510367984
0.03829787234042553 0.46405805768803654 0.384619985451161
0.03851063829787234 0.46442637382702895 0.38554077579864215
0.03872340425531915 0.4647946899660214 0.3864615661461233
0.03893617021276596 0.4651630061050139 0.3873823564936045
0.03914893617021276 0.4655313222440063 0.3883031468410856
0.039361702127659576 0.4672303975152226 0.3908797926577874
0.03957446808510638 0.4667445932227231 0.3943797121115498
0.03978723404255319 0.46583025230577463 0.4001555030339789
0.04 0.46486109581364055 0.4051939501283097
0.04021276595744681 0.4638692486092234 0.40965726254818713
0.04042553191489362 0.4664494194216143 0.41511135434004226
0.040638297872340426 0.4643663706355686 0.4245750357950551
0.04085106382978723 0.4612024547611419 0.4334192559682194
0.041063829787234045 0.45828836559993746 0.4418377357672544
0.04127659574468085 0.45537427643873307 0.4502562155662891
0.04148936170212766 0.4541936165533971 0.4586821377953867
0.04170212765957447 0.45429698861705536 0.4651698321177909
0.041914893617021276 0.4551659881286268 0.46994932943143347
0.04212765957446808 0.45620985527310237 0.4737965675349489
0.042340425531914895 0.45769650713266746 0.4752832193945142
0.0425531914893617 0.4572837394544993 0.4753297508549097
0.04276595744680851 0.45680959998752413 0.4753297508549097
0.04297872340425532 0.45608589425058893 0.47737006517202424
0.043191489361702126 0.4545888397650998 0.4836614081601286
0.04340425531914894 0.45302403172136296 0.4919193172438788
0.043617021276595745 0.45171795818113314 0.49975575848525716
0.04382978723404255 0.450338165180461 0.5049237361689292
0.044042553191489364 0.44883634545931284 0.5056746460295033
0.04425531914893617 0.44733452573816473 0.5064255558900774
0.044468085106382976 0.4440082811728453 0.5088355087100093
0.04468085106382979 0.44102949485691745 0.5105551109008035
0.044893617021276595 0.4383263453154851 0.5119066856715198
0.0451063829787234 0.4384197494078939 0.5107848960170286
0.045319148936170214 0.4404353556532835 0.5079630472734831
0.04553191489361702 0.4418287042720771 0.5057588281277621
0.045744680851063826 0.4401614366732394 0.5065924619271811
0.04595744680851064 0.4382995026809788 0.5087436072183328
0.046170212765957445 0.440081055266416 0.5125325255836085
0.04638297872340425 0.4389357678764915 0.5136778129735328
0.046595744680851064 0.43722520762090866 0.5165981161249584
0.04680851063829787 0.43641839099270696 0.5212506106497312
0.047021276595744683 0.43398635142893205 0.5221738230947376
0.04723404255319149 0.433952879622142 0.524181729360039
0.047446808510638296 0.43419566005787913 0.5227477714629399
0.04765957446808511 0.432693430117617 0.5177996286490799
0.047872340425531915 0.4340021532848766 0.512406638172343
0.04808510638297872 0.4341015045376333 0.5097234260832227
0.048297872340425534 0.4323400097703958 0.5054734676294892
0.04851063829787234 0.4336262720813887 0.501400596506789
0.048723404255319146 0.4335181980025954 0.49840510695356033
0.04893617021276596 0.43400325819939206 0.498487869826163
0.049148936170212765 0.43429408891060084 0.497332188194799
0.04936170212765957 0.4325661805044063 0.4959606671940693
0.049574468085106384 0.43228422165411684 0.4899574503483089
0.04978723404255319 0.4307127313089946 0.4888449044969438
0.05 0.4326338762440295 0.48450486758263867
0.05021276595744681 0.43538371353125327 0.47589345758686125
0.050425531914893615 0.43708906565875805 0.47254679702427654
0.05063829787234043 0.43695128560659696 0.4704445530043966
0.050851063829787234 0.4406284360580653 0.46704132456723996
0.05106382978723404 0.441167101185071 0.4646329185094092
0.05127659574468085 0.4435642724144352 0.467513434294089
0.05148936170212766 0.4460185637518319 0.4666347008776546
0.051702127659574465 0.4489015878917817 0.46458231558378116
0.05191489361702128 0.4494244567499521 0.46458231558378116
0.052127659574468084 0.4460185637518319 0.46458231558378116
0.05234042553191489 0.4470028063706584 0.46556655820260756
0.0525531914893617 0.4490912728587752 0.46373981980714113
0.05276595744680851 0.4505673891203372 0.4635731981377583
0.05297872340425532 0.4495971510271583 0.4593558732830349
0.05319148936170213 0.45692374151843107 0.45096668334565765
0.053404255319148934 0.4562042127007551 0.441265291390611
0.05361702127659575 0.45708766484384666 0.4328921756151311
0.05382978723404255 0.4568634931026557 0.4260856972578494
0.05404255319148936 0.4569250603649635 0.42791490212847555
0.05425531914893617 0.46049789146047726 0.41555407123575805
0.05446808510638298 0.45969711773326827 0.41412376131573836
0.054680851063829784 0.4610711697438048 0.4109671490209619
0.0548936170212766 0.46344785692157914 0.40905498418353425
0.0551063829787234 0.4649784965481294 0.4093611121088443
0.05531914893617021 0.4665091361746797 0.40966724003415433
0.05553191489361702 0.46783356980697566 0.41018823517092284
0.05574468085106383 0.46914082834685017 0.41051996198680935
0.055957446808510634 0.46953673026833903 0.40986809965803617
0.05617021276595745 0.47025739156160973 0.40986809965803617
0.05638297872340425 0.4693067719668265 0.41057303986059374
0.056595744680851066 0.4701185340966527 0.4084030488794467
0.05680851063829787 0.46857925297183567 0.40231812042014786
0.05702127659574468 0.47004830534926345 0.39716049167388584
0.05723404255319149 0.4765300028944183 0.371651734626465
0.0574468085106383 0.47228248184241733 0.3655164264402414
0.057659574468085104 0.4685853861580199 0.3588052217630345
0.05787234042553192 0.4694585589896544 0.34732562791195093
0.05808510638297872 0.4667267963912044 0.34368327778068436
0.05829787234042553 0.46264207921519795 0.3493424031409565
0.05851063829787234 0.46553167274521 0.36021901723918304
0.05872340425531915 0.463588431617677 0.3729595731421591
0.058936170212765954 0.46264562798497355 0.3855464596538574
0.05914893617021277 0.46459922654889313 0.3973103284501545
0.05936170212765957 0.4665363947239862 0.4138039363397052
0.059574468085106386 0.4665363947239862 0.4156925767352332
0.05978723404255319 0.4665363947239862 0.4175812171307611
0.06 0.4669721033055993 0.41822574720734645
0.06021276595744681 0.4673266295548174 0.4186184399152147
0.06042553191489362 0.4669276483857018 0.4206133457607923
0.06063829787234042 0.4664800682284282 0.4227573690545632
0.060851063829787236 0.4636242300036633 0.4324821646952811
0.06106382978723404 0.4652737369264365 0.44485346661608016
0.06127659574468085 0.46810981122982753 0.4537968195244513
0.06148936170212766 0.462100025214658 0.4639411322392316
0.06170212765957447 0.46084770489801913 0.47020675941196083
0.06191489361702127 0.45999149916017934 0.4762001995768398
0.062127659574468086 0.45913473519357034 0.4788232521049152
0.06234042553191489 0.4587200781631655 0.48034722695656584
0.0625531914893617 0.45737027715676726 0.476467684753131
0.0627659574468085 0.4559546019487764 0.4694843288397024
0.06297872340425532 0.454837667887418 0.45802626664435403
0.06319148936170213 0.4545889338486483 0.44621515220256047
0.06340425531914894 0.4541219181281936 0.43813380251418693
0.06361702127659574 0.4542879975972409 0.42811718188661324
0.06382978723404255 0.44894968246213973 0.42259378244216567
0.06404255319148935 0.4495796060413429 0.42417657721867563
0.06425531914893617 0.4506979117102991 0.43300677966820056
0.06446808510638298 0.45273865745325637 0.44811539943708356
0.06468085106382979 0.45347959185306896 0.4657370067711804
0.06489361702127659 0.44992672203224227 0.4878205608677618
0.0651063829787234 0.4497628281645341 0.492601322653633
0.06531914893617022 0.4492420787915676 0.5036567429718553
0.06553191489361702 0.44905245869651594 0.5131259653857819
0.06574468085106383 0.4479726428920372 0.5233464062456228
0.06595744680851064 0.4479726428920372 0.529543926342641
0.06617021276595744 0.44709817706248883 0.5300439667806547
0.06638297872340425 0.45146516786568686 0.5339059435825361
0.06659574468085107 0.44271209548316715 0.5318490368158915
0.06680851063829787 0.4414650587254417 0.5271128480703469
0.06702127659574468 0.4393811129476329 0.520289616760875
0.06723404255319149 0.43624816805080613 0.5036459898203007
0.06744680851063829 0.43490621218426395 0.48474701859828784
0.06765957446808511 0.43995925433358385 0.4670982689432137
0.06787234042553192 0.4316596096423764 0.4532138080730501
0.06808510638297872 0.43222685744548756 0.44436261023228
0.06829787234042553 0.431362970200293 0.4394354992331015
0.06851063829787234 0.4297679765824304 0.44414381037587297
0.06872340425531914 0.42854527603052806 0.4575599708067596
0.06893617021276596 0.43144629094053016 0.47311314212240874
0.06914893617021277 0.4315244499966644 0.4911483461485459
0.06936170212765957 0.4304022501939591 0.5063828627692005
0.06957446808510638 0.43097455335206436 0.5169540355210922
0.06978723404255319 0.42898455333627883 0.5152403864284534
0.06999999999999999 0.4312286854403832 0.516078320154032
0.07021276595744681 0.43177380269038873 0.5115802982589785
0.07042553191489362 0.431362970200293 0.5088224828955945
0.07063829787234042 0.4363926404511049 0.5060342611129917
0.07085106382978723 0.43724728854843753 0.4958034199720063
0.07106382978723404 0.44172543100014805 0.487291183892707
0.07127659574468086 0.44622144207953374 0.48255610846682817
0.07148936170212766 0.44894968246213973 0.4789898790490375
0.07170212765957447 0.44953167578662556 0.4757247971005264
0.07191489361702127 0.44992672203224227 0.473884344472324
0.07212765957446808 0.4490593998884062 0.47077370528319606
0.07234042553191489 0.4518434324482604 0.4693180385375455
0.0725531914893617 0.45108612395286923 0.4666535292570301
0.07276595744680851 0.45188080117244755 0.46887492413493126
0.07297872340425532 0.45188080117244755 0.4617989804522111
0.07319148936170213 0.45188080117244755 0.45611098268309397
0.07340425531914893 0.45336355370997833 0.44938662270006013
0.07361702127659574 0.455615163298473 0.4399613694558457
0.07382978723404256 0.4615678667109903 0.4371210449178049
0.07404255319148936 0.4592992434031042 0.4342852657829473
0.07425531914893617 0.45935662372556757 0.43164847328503664
0.07446808510638298 0.46449491933682957 0.42944634659449576
0.07468085106382978 0.45895683008090526 0.4261943279155875
0.0748936170212766 0.45931314113722566 0.4196128482390675
0.07510638297872341 0.4613059013470795 0.41213999745211566
0.07531914893617021 0.45786721304120503 0.40933154569523145
0.07553191489361702 0.4592933923417207 0.4063636667691734
0.07574468085106383 0.4606678840039347 0.40110611002429347
0.07595744680851063 0.4584232044683664 0.3962143530212778
0.07617021276595745 0.462352637942459 0.38839811874816627
0.07638297872340426 0.46284683596363557 0.3838865776286536
0.07659574468085106 0.4640907496420083 0.3820072411265044
0.07680851063829787 0.46495118086520304 0.37868260308383955
0.07702127659574468 0.4665363947239862 0.3746326613178854
0.0772340425531915 0.4674727583335047 0.36840493186955237
0.0774468085106383 0.4690947193628502 0.3650656220775461
0.07765957446808511 0.4672524672588955 0.35508705516162054
0.07787234042553191 0.4715249608104288 0.3447399158923197
0.07808510638297872 0.4695673522635543 0.3405981290100125
0.07829787234042553 0.4704445530043966 0.34070377799834617
0.07851063829787235 0.4702701657382145 0.3345309495209445
0.07872340425531915 0.4691652866814039 0.34065979831077836
0.07893617021276596 0.46891577308225185 0.3487858817757481
0.07914893617021276 0.4705250048172166 0.35848726150669835
0.07936170212765957 0.4726049286394343 0.36652020848791694
0.07957446808510638 0.4766770740410313 0.37609552283164666
0.0797872340425532 0.485269353115287 0.38970323811273405
0.08 0.47971874924991864 0.4014507329539672
0.08021276595744681 0.4808712522991955 0.41449791388518825
0.08042553191489361 0.47728382999511476 0.4258717151824916
0.08063829787234042 0.47663088506804663 0.444076373714125
0.08085106382978724 0.4753297508549097 0.4560750654208322
0.08106382978723405 0.47496991878688094 0.4618561101414405
0.08127659574468085 0.4733595280706528 0.46456617193972954
0.08148936170212766 0.46984860372798093 0.4629677689095233
0.08170212765957446 0.46997603396776755 0.46262823644357587
0.08191489361702127 0.4678670104797544 0.46692414065131327
0.08212765957446809 0.4664262500695369 0.47541235934574666
0.0823404255319149 0.46347920562169465 0.4803031955927023
0.0825531914893617 0.46626892329684777 0.49154098315299993
0.08276595744680851 0.4640576439054731 0.4993942211749067
0.08297872340425531 0.46186177351585733 0.5089938052666654
0.08319148936170212 0.4564764059030451 0.515677966349031
0.08340425531914894 0.45008647686432235 0.5220678953877538
0.08361702127659575 0.44429450588228236 0.5287909016857653
0.08382978723404255 0.43579180002379614 0.5275692160973569
0.08404255319148936 0.43065719273861275 0.5301159726897122
0.08425531914893616 0.42766783048457674 0.5222716768465174
0.08446808510638298 0.4259518064452008 0.522452326937002
0.08468085106382979 0.42441733740582305 0.5224502804955053
0.0848936170212766 0.425122247818002 0.5213239671986485
0.0851063829787234 0.4277225999541584 0.5191155812088885
0.08531914893617021 0.4307246750848609 0.5150496287744454
0.08553191489361701 0.43410230592450777 0.5116719979347986
0.08574468085106383 0.4381271642660081 0.5103530095285967
0.08595744680851064 0.43787488961453597 0.5083325355738552
0.08617021276595745 0.4390777424830282 0.5086506405164833
0.08638297872340425 0.43773015623144557 0.5084833809364552
0.08659574468085106 0.4382022471910112 0.5065950170981925
0.08680851063829788 0.4382022471910112 0.5098898814731254
0.08702127659574468 0.43670022045655915 0.5107292015814794
0.08723404255319149 0.43714060279742223 0.5105031753786029
0.0874468085106383 0.4382022471910112 0.5082535181488255
0.0876595744680851 0.43799846534731113 0.5020336436382842
0.08787234042553191 0.4379232466947879 0.4934044450684867
0.08808510638297873 0.437208772899049 0.48555990557773254
0.08829787234042553 0.43717856584491493 0.48089740293615335
0.08851063829787234 0.4382022471910112 0.4809957632448562
0.08872340425531915 0.43912569102104115 0.47842165678543497
0.08893617021276595 0.43609010913567525 0.48322509687329585
0.08914893617021276 0.43471831959555085 0.486456375753058
0.08936170212765958 0.4355825519732147 0.49553615833455283
0.08957446808510638 0.4338205324611227 0.49777173429612304
0.08978723404255319 0.4345564895536037 0.5018773010701355
0.09 0.4352711284807034 0.4976141737112877
0.0902127659574468 0.4361742781302413 0.4931381328784506
0.09042553191489362 0.43917928676111373 0.4857151860449756
0.09063829787234043 0.43939547186416594 0.4790301372450034
0.09085106382978723 0.4401563263312165 0.4675410035372198
0.09106382978723404 0.4386756743593482 0.4572193027023448
0.09127659574468085 0.4391211916492423 0.45067490693209666
0.09148936170212765 0.4409180100745065 0.44361789625910947
0.09170212765957447 0.4429215906612519 0.4412162930914551
0.09191489361702128 0.4440058931786889 0.4417192802306988
0.09212765957446808 0.44328861056997954 0.4519095892446219
0.09234042553191489 0.4437644574488333 0.4572890952668252
0.0925531914893617 0.44545499394422156 0.46507103383695175
0.0927659574468085 0.4490173549774919 0.4779225069884565
0.09297872340425532 0.4479726428920372 0.48593241677350835
0.09319148936170213 0.45004993533977267 0.4921858501617144
0.09340425531914893 0.4559502167236465 0.48800597171200705
0.09361702127659574 0.4577727295180775 0.4879600070462084
0.09382978723404255 0.46247753529015356 0.47555328465790064
0.09404255319148937 0.46165119687347334 0.47023970955140815
0.09425531914893617 0.46165119687347334 0.4648668522443082
0.09446808510638298 0.46282805065907495 0.4569437817310672
0.09468085106382979 0.46214065223389406 0.44577944952383797
0.09489361702127659 0.4633855943967468 0.4300794636169737
0.0951063829787234 0.4636052760136786 0.4092674072150805
0.09531914893617022 0.4625612997752588 0.3878244270313541
0.09553191489361702 0.457743038593063 0.3651342062373462
0.09574468085106383 0.45683638477273053 0.34535247561971943
0.09595744680851064 0.4557889594528579 0.3361783650232826
0.09617021276595744 0.4587183663727549 0.33317134930018827
0.09638297872340426 0.45629289270335827 0.3386393674222741
0.09659574468085107 0.46064144082910574 0.34648048800700654
0.09680851063829787 0.45802002045273177 0.3578004175216682
0.09702127659574468 0.45989850097982077 0.36461114292819213
0.09723404255319149 0.4606741573033708 0.3757120320753701
0.09744680851063829 0.46115359071738804 0.38050239432875443
0.09765957446808511 0.4604035027190312 0.38910265496025603
0.09787234042553192 0.4619985558093897 0.39228138739618945
0.09808510638297872 0.46262823644357587 0.39047221442683316
0.09829787234042553 0.4625155400309277 0.3884295773221032
0.09851063829787234 0.4607973025023074 0.38867297009173074
0.09872340425531914 0.4625508101123214 0.3781382754272264
0.09893617021276596 0.4613459514839167 0.37197748252024604
0.09914893617021277 0.4601605930671551 0.3673919228097379
0.09936170212765957 0.4620123982914384 0.36265050624173417
0.09957446808510638 0.4631994912979714 0.35196666918293773
0.09978723404255319 0.46303650009034836 0.3466082789715825
0.1 0.4623143777704874 0.3564470062576335
0.10021276595744681 0.4617194643089855 0.37741770577557476
0.10042553191489362 0.46112455084748366 0.39838840529351605
0.10063829787234042 0.4605296373859818 0.41935910481145733
0.10085106382978723 0.45993472392447987 0.4403298043293986
0.10106382978723404 0.459339810462978 0.4613005038473399
0.10127659574468086 0.4587448970014761 0.4822712033652825
0.10148936170212766 0.45971285676457313 0.49439755823168313
0.10170212765957447 0.46074885557993156 0.5061388781390784
0.10191489361702127 0.46156860409474704 0.5176043044801125
0.10212765957446808 0.4609284155011342 0.5272071333843058
0.10234042553191489 0.4597701806180793 0.5298587506125253
0.1025531914893617 0.4582706471036436 0.5279307789511081
0.10276595744680851 0.4567711135892081 0.526002807289691
0.10297872340425532 0.45527158007477253 0.5240748356282738
0.10319148936170212 0.4536638482873185 0.5217145541438315
0.10340425531914893 0.449648924712896 0.5093919861012179
0.10361702127659575 0.44699560332193444 0.49472717047843534
0.10382978723404256 0.4456620515646922 0.47588090549438533
0.10404255319148936 0.44263752122100697 0.46256427226840025
0.10425531914893617 0.4415505169320107 0.453966556325906
0.10446808510638297 0.441133365901319 0.455848922660598
0.10468085106382978 0.44660189270520334 0.4639927835117879
0.1048936170212766 0.4445822902813158 0.47234006037532644
0.1051063829787234 0.44596211514609346 0.4885567159904383
0.10531914893617021 0.4497260694293621 0.49614856073138425
0.10553191489361702 0.4489035896652644 0.498545963844065
0.10574468085106382 0.45151594975327014 0.4952477010330278
0.10595744680851064 0.45041363787882976 0.48655127046491553
0.10617021276595745 0.45241078040955907 0.4790639548739817
0.10638297872340426 0.4500623414106876 0.47124776775197075
0.10659574468085106 0.44806223143156526 0.4685800624037196
0.10680851063829787 0.4477735279067643 0.47557864458650084
0.10702127659574467 0.4433104258643228 0.48172306620003075
0.1072340425531915 0.43950875655745436 0.48867883504000537
0.1074468085106383 0.437284230673962 0.4904443526649731
0.1076595744680851 0.43624816805080613 0.4927408939065403
0.10787234042553191 0.4376880949731019 0.4895737219199713
0.10808510638297872 0.43310965603796603 0.4829386741131979
0.10829787234042552 0.431362970200293 0.48318231081953944
0.10851063829787234 0.43149327896151857 0.48979015740369897
0.10872340425531915 0.4314222202729719 0.4939527527595376
0.10893617021276596 0.42764507579095384 0.49122464254289494
0.10914893617021276 0.4236281652802431 0.49980420704427864
0.10936170212765957 0.4206155349291647 0.5079572381746219
0.10957446808510639 0.42695784420188665 0.5068350530242457
0.1097872340425532 0.4219837898043805 0.5085490962383976
0.11 0.42053306689970077 0.5067599531571204
0.1102127659574468 0.4218785753449716 0.49952693943091087
0.11042553191489361 0.4264777723497801 0.4941161803910975
0.11063829787234042 0.4274535961321869 0.48510257813132723
0.11085106382978724 0.4312332081036102 0.47845551271024184
0.11106382978723404 0.4356775558878713 0.47178899103385014
0.11127659574468085 0.43795172557048606 0.4651084057368296
0.11148936170212766 0.44165573813815473 0.46187853054010675
0.11170212765957446 0.4441100078786651 0.4616170544231946
0.11191489361702127 0.44812092158284733 0.45916491423559597
0.11212765957446809 0.4495211914219003 0.46136544239359306
0.1123404255319149 0.4513277312317662 0.4589782787856855
0.1125531914893617 0.45188080117244755 0.45732643550601754
0.1127659574468085 0.4491104760472221 0.45428013218653124
0.11297872340425531 0.45204176748951674 0.4520440158230542
0.11319148936170213 0.4500159257510088 0.44146044620346303
0.11340425531914894 0.4519871783973575 0.4305119524010133
0.11361702127659574 0.4528578407425501 0.4218350411906806
0.11382978723404255 0.45476756081194963 0.41517960059323467
0.11404255319148936 0.4556723847527837 0.4107285645280647
0.11425531914893616 0.4551532626188434 0.41020944239412427
0.11446808510638298 0.4573916553485734 0.41004379128028096
0.11468085106382979 0.4596246095057747 0.4164535978525269
0.1148936170212766 0.45707749066668535 0.41182217879824123
0.1151063829787234 0.45946978859077275 0.41182217879824123
0.11531914893617021 0.4579901517047082 0.4114572155690126
0.11553191489361703 0.45777196155009536 0.4108451392281387
0.11574468085106383 0.4580824469061472 0.40574408917199184
0.11595744680851064 0.461587924760299 0.39841495926663484
0.11617021276595745 0.457232439557084 0.39087148887912854
0.11638297872340425 0.45707175373065095 0.3852382739336778
0.11659574468085106 0.46315875982316795 0.3794118586066929
0.11680851063829788 0.4655593551538837 0.3691855027424041
0.11702127659574468 0.4673206396569343 0.3634521868859982
0.11723404255319149 0.46946751343429405 0.3598040199294621
0.1174468085106383 0.46875763241128227 0.3638556452449539
0.1176595744680851 0.4684904738641915 0.3666177839899439
0.11787234042553191 0.46946512608408636 0.3737247976148635
0.11808510638297873 0.4683499559847928 0.3773513436715417
0.11829787234042553 0.46779082533129374 0.3818113431622659
0.11851063829787234 0.4676705053352357 0.384560913017553
0.11872340425531915 0.4676162436644321 0.3900958118967911
0.11893617021276595 0.4678143158843889 0.39769065123461067
0.11914893617021277 0.4683235714078629 0.40171797818455823
0.11936170212765958 0.46943868924142806 0.39636249083379566
0.11957446808510638 0.4703616050796743 0.40018065188173246
0.11978723404255319 0.4703566943646965 0.40329769585311903
0.12 0.4708354014280566 0.41265961800431566
0.1202127659574468 0.4655297550150444 0.4187502562054773
0.12042553191489362 0.4613654625110366 0.4293130218738543
0.12063829787234043 0.45969711773326827 0.44504448401781643
0.12085106382978723 0.45795088992556865 0.459323123642084
0.12106382978723404 0.45674831679858247 0.4724693610421138
0.12127659574468085 0.455667989216548 0.4809283398169166
0.12148936170212765 0.4581549307852301 0.48593988872864907
0.12170212765957447 0.4527216592911833 0.48761083620687545
0.12191489361702128 0.4527198895177458 0.48426674870887343
0.12212765957446808 0.45188080117244755 0.4773142720843374
0.12234042553191489 0.45021586129239916 0.47199987109481306
0.1225531914893617 0.4518715035703875 0.4646148571909914
0.12276595744680852 0.45298879210228227 0.46894370799536533
0.12297872340425532 0.453308125587361 0.4684565061429879
0.12319148936170213 0.45108112122081356 0.48070503015899885
0.12340425531914893 0.44777259925428203 0.4935165940300215
0.12361702127659574 0.44534019284018383 0.5075975223887975
0.12382978723404255 0.4450415241817294 0.5204436438544748
0.12404255319148937 0.44789326914373556 0.5269805584898442
0.12425531914893617 0.4482954630848497 0.5316666467363823
0.12446808510638298 0.450182440005597 0.5378450059003698
0.12468085106382978 0.4475949622530312 0.5426798052468128
0.12489361702127659 0.44601783669316286 0.5442099499591386
0.1251063829787234 0.44562769875898706 0.545090179501019
0.12531914893617022 0.4474163149347678 0.5431592615150591
0.125531914893617 0.4463433522501951 0.5360659243754388
0.12574468085106383 0.446950454688187 0.531201600885747
0.12595744680851065 0.44488945986648204 0.5286867664224336
0.12617021276595744 0.4432828980866182 0.5220317458640041
0.12638297872340426 0.44281177270322136 0.512181582180505
0.12659574468085105 0.4423199130125592 0.5047662451095463
0.12680851063829787 0.4422707101700104 0.495453723723309
0.1270212765957447 0.4401563263312165 0.49022089312508016
0.12723404255319148 0.43936178816815386 0.48503561402103335
0.1274468085106383 0.44468312015046757 0.48228849585604827
0.1276595744680851 0.4375247711808367 0.4857177098541243
0.12787234042553192 0.4414042290608771 0.4800384046027865
0.1280851063829787 0.4384764055041744 0.4789637508221568
0.12829787234042553 0.43956649367577033 0.47942249030918693
0.12851063829787235 0.4406587280816106 0.4832015952771017
0.12872340425531914 0.43927479699960276 0.486339192490413
0.12893617021276596 0.4382022471910112 0.4899805856849028
0.12914893617021275 0.4399036071333273 0.5028719035727635
0.12936170212765957 0.4372367097702677 0.5017213213970384
0.1295744680851064 0.43589489954276417 0.5055829873127657
0.12978723404255318 0.433550842992119 0.5105869053058425
0.13 0.4353298613449727 0.5018788781329957
0.1302127659574468 0.4367610532798857 0.4949680040330746
0.13042553191489362 0.43742007510450326 0.4888147884288159
0.13063829787234044 0.4396086506379181 0.4818579757853176
0.13085106382978723 0.4360583779236643 0.4802149487054226
0.13106382978723405 0.43902882815216787 0.4708206995267612
0.13127659574468084 0.43624816805080613 0.4659663992481609
0.13148936170212766 0.43606741174336056 0.4595163614258227
0.13170212765957448 0.4349747642902487 0.45842371397271087
0.13191489361702127 0.43511963581070007 0.457743038593063
0.1321276595744681 0.43624816805080613 0.45562006735559774
0.13234042553191488 0.43624816805080613 0.4564456594349717
0.1325531914893617 0.44012503090134236 0.45309080317241957
0.1327659574468085 0.4437500201884458 0.45188080117244755
0.13297872340425532 0.4430958730220353 0.450912189582856
0.13319148936170214 0.4463183507179449 0.4454189898196059
0.13340425531914893 0.44955459906463974 0.4394304264082165
0.13361702127659575 0.45467071114860613 0.43304034265667063
0.13382978723404254 0.4580670342690715 0.42681187310994245
0.13404255319148936 0.4587200781631655 0.422223521460048
0.13425531914893618 0.45983868637615327 0.41837831850318935
0.13446808510638297 0.45999394024711754 0.41262607431123444
0.1346808510638298 0.4612962323627313 0.4100455819134072
0.13489361702127659 0.46256525251512637 0.4080399883747299
0.1351063829787234 0.46533253155270055 0.40768719691664773
0.13531914893617022 0.4611293771475797 0.4029622227856332
0.13553191489361702 0.4590139121812549 0.39638062070826885
0.13574468085106384 0.45928895219043675 0.389016063053538
0.13595744680851063 0.4587200781631655 0.37915655852697927
0.13617021276595745 0.4587200781631655 0.37078705025865455
0.13638297872340424 0.4594911026267425 0.36729038878657366
0.13659574468085106 0.45969711773326827 0.3659926541150062
0.13680851063829788 0.4549550652431592 0.3629988293651927
0.13702127659574467 0.45955954482014794 0.36367209403697376
0.1372340425531915 0.4587200781631655 0.36302174455492303
0.13744680851063829 0.457208609573238 0.36779065474082906
0.1376595744680851 0.45680122035292664 0.37178116708901826
0.13787234042553193 0.4593358848846597 0.3739722094371259
0.13808510638297872 0.4618935147440005 0.3776232044819861
0.13829787234042554 0.4719546298165787 0.38029854130075375
0.13851063829787233 0.4646789030325827 0.3815232201863054
0.13872340425531915 0.46458231558378116 0.3854421104054715
0.13893617021276597 0.4650465628814368 0.38637060500078285
0.13914893617021276 0.4665363947239862 0.39039789501965527
0.13936170212765958 0.46606946577616465 0.3936821742396543
0.13957446808510637 0.46672912250797477 0.39696715713763386
0.1397872340425532 0.467513434294089 0.3995552194075086
0.13999999999999999 0.46503252474567724 0.40423255320436313
0.1402127659574468 0.46458231558378116 0.4059290097961777
0.14042553191489363 0.46298103878966346 0.4105737043502113
0.14063829787234042 0.4659140305822031 0.41830678036064006
0.14085106382978724 0.46198965950366533 0.4215849048351726
0.14106382978723403 0.4600256626480931 0.42659301743763667
0.14127659574468085 0.46054468505862756 0.4325989542598822
0.14148936170212767 0.4567965044531193 0.4400953154708987
0.14170212765957446 0.4534421630455889 0.44876758462127836
0.14191489361702128 0.4518770739493124 0.45825205810535685
0.14212765957446807 0.45337439317551925 0.46175230233379777
0.1423404255319149 0.4533129146005137 0.46217316258561225
0.1425531914893617 0.4528578407425501 0.46616147067116
0.1427659574468085 0.45481191988275516 0.4627690965923392
0.14297872340425533 0.4544596997249087 0.46573546523280696
0.14319148936170212 0.45258701434419846 0.46870300591079955
0.14340425531914894 0.4506880796611329 0.47673815430743627
0.14361702127659573 0.450022871540736 0.48558089409840416
0.14382978723404255 0.4502287540266493 0.490660351982144
0.14404255319148937 0.453175368867791 0.4942110308120998
0.14425531914893616 0.44911662848795497 0.4995887940816591
0.14446808510638298 0.44884711197833266 0.5050512198932157
0.14468085106382977 0.4489226334996409 0.5092615891941004
0.1448936170212766 0.4522478210307987 0.5111131950903542
0.1451063829787234 0.44994919967041913 0.5095336283545592
0.1453191489361702 0.4463878392470524 0.5073335680886335
0.14553191489361703 0.4460185637518319 0.5036413559464099
0.14574468085106382 0.447766002336364 0.5018131395255161
0.14595744680851064 0.4421781210514875 0.5065611593081596
0.14617021276595746 0.4443991671430601 0.5062873425909564
0.14638297872340425 0.44545553485319517 0.5092446213591818
0.14659574468085107 0.44368442035049144 0.512349738849751
0.14680851063829786 0.4466765402033615 0.5157558525381111
0.14702127659574468 0.4466869444241057 0.5166740716970472
0.14723404255319147 0.4457943608166936 0.5198251652093521
0.1474468085106383 0.446893262085571 0.5211482694133678
0.14765957446808511 0.4489558310627111 0.5212629078508739
0.1478723404255319 0.4496630988559311 0.5236001245544033
0.14808510638297873 0.4484637884645408 0.5261358085002443
0.14829787234042552 0.44959773830803357 0.5238329224307833
0.14851063829787234 0.44894968246213973 0.5171454440706947
0.14872340425531916 0.4494562922990392 0.5098518451269176
0.14893617021276595 0.4477448047197159 0.5039815395436951
0.14914893617021277 0.44482256665967607 0.5008928631795483
0.14936170212765956 0.44339565022758176 0.5004245744915192
0.14957446808510638 0.44385545850484315 0.5045728469941716
0.1497872340425532 0.44316909086896256 0.4975594338441128
0.15 0.4441612014167968 0.4945803918414515
0.15021276595744681 0.44619801913640766 0.4882904832980428
0.1504255319148936 0.4451041145008163 0.4822629133242582
0.15063829787234043 0.4402355575065686 0.473164461043386
0.15085106382978725 0.4368500636116291 0.4659736787100672
0.15106382978723404 0.43455586833302945 0.4607442354229827
0.15127659574468086 0.43005341989171997 0.4554564487143872
0.15148936170212765 0.4333028570293816 0.4528483792018056
0.15170212765957447 0.4278591285301933 0.4484105936483922
0.15191489361702126 0.42957777477654874 0.4450415241817294
0.15212765957446808 0.4286726516159788 0.44382368448563325
0.1523404255319149 0.4303859306301905 0.43941059945366867
0.1525531914893617 0.4303859306301905 0.438570446072186
0.15276595744680851 0.4366109567329203 0.4368449019725902
0.1529787234042553 0.4373812616247653 0.43460619691831415
0.15319148936170213 0.4456421197376871 0.42961802662350174
0.15340425531914895 0.44452651484330163 0.42201517779136005
0.15361702127659574 0.44963035069605334 0.4162535978261453
0.15382978723404256 0.45260566002877856 0.41439086808038356
0.15404255319148935 0.4548354784072521 0.41427655698574617
0.15425531914893617 0.45769580385063297 0.4128464531107739
0.154468085106383 0.4587200781631655 0.40796155802869066
0.15468085106382978 0.45780942184976775 0.41057960620131956
0.1548936170212766 0.45767852566188016 0.4058309155152601
0.1551063829787234 0.45656773536699413 0.40519544417321857
0.15531914893617021 0.4564576034320986 0.40819648970993433
0.155531914893617 0.4591425905381806 0.40731548838271914
0.15574468085106383 0.4630747138925253 0.4134689345417678
0.15595744680851065 0.46164266186533287 0.4186699907970999
0.15617021276595744 0.4615450201489751 0.42399280958708385
0.15638297872340426 0.4636052760136786 0.429550650609718
0.15659574468085105 0.46393540738103173 0.43396395754324774
0.15680851063829787 0.4655593551538837 0.430680222947133
0.1570212765957447 0.4665739186118461 0.42749233580774254
0.15723404255319148 0.46894226460307403 0.42534277441014506
0.1574468085106383 0.46890154695692066 0.4189176354970444
0.1576595744680851 0.4698456673035975 0.4176844162188569
0.15787234042553192 0.4728244275534265 0.4184777077352001
0.15808510638297874 0.4742844342871792 0.4159351680715348
0.15829787234042553 0.4744000322387735 0.4115855740284086
0.15851063829787235 0.4748380907717102 0.4046425672261307
0.15872340425531914 0.47239863214460187 0.3890275488577525
0.15893617021276596 0.47159929945576134 0.37300750459287
0.15914893617021275 0.46941423854914666 0.3618333360675671
0.15936170212765957 0.46912194957113934 0.3527472849432229
0.1595744680851064 0.46946751343429405 0.3477913411280253
0.15978723404255318 0.46772737561937366 0.35168791170877156
0.16 0.46460088510350894 0.36694335189256955
0.1602127659574468 0.4662820661461066 0.3753707713204578
0.16042553191489362 0.4648284224955224 0.3878957914460215
0.16063829787234044 0.4648388540349971 0.39696464466895276
0.16085106382978723 0.4627024472977387 0.407239973597373
0.16106382978723405 0.46218457753811915 0.41200162231661946
0.16127659574468084 0.46458182664109166 0.4124738644734359
0.16148936170212766 0.4647884915476295 0.4048844063419532
0.16170212765957448 0.46458231558378116 0.3976877749182983
0.16191489361702127 0.4665170909732515 0.3883539253650444
0.1621276595744681 0.4650250899162432 0.38793045478331706
0.16234042553191488 0.4609108509878148 0.3932786035211763
0.1625531914893617 0.4590835526511131 0.404209307218173
0.1627659574468085 0.4601778568012878 0.4204910434566571
0.16297872340425532 0.4618698093728004 0.4397905461495674
0.16319148936170214 0.45691563732718027 0.45842080155472564
0.16340425531914893 0.45232251790119565 0.4775646483329337
0.16361702127659575 0.45094205997218595 0.4942960667093439
0.16382978723404254 0.4497623537687211 0.5049148850638558
0.16404255319148936 0.4478321057507893 0.510362638237355
0.16425531914893618 0.45188080117244755 0.5158222004538282
0.16446808510638297 0.4498903844548974 0.5232773649446264
0.1646808510638298 0.44853551904129224 0.5300935376901238
0.16489361702127658 0.44753787076328705 0.5352014960714289
0.1651063829787234 0.44739942359832485 0.542002862880954
0.16531914893617022 0.44716417841402417 0.5445309852401037
0.16553191489361702 0.45160677668266963 0.5474662643486344
0.16574468085106384 0.4469347012696216 0.5530639953638298
0.16595744680851063 0.44619176684861533 0.5633876701853389
0.16617021276595745 0.4464193513334606 0.5762030938017748
0.16638297872340424 0.4450415241817294 0.5857959906985178
0.16659574468085106 0.4450415241817294 0.5891838359087159
0.16680851063829788 0.4444081134061917 0.5852095051281485
0.16702127659574467 0.44031481499657543 0.5760546982591022
0.1672340425531915 0.43831358509565077 0.5653537307806412
0.16744680851063828 0.4381982599858368 0.5515348501177372
0.1676595744680851 0.43612582494084373 0.5497071012926689
0.16787234042553192 0.43599793756618527 0.552499955314094
0.16808510638297872 0.4382022471910112 0.5648895251885457
0.16829787234042554 0.43772221134029776 0.5750047548740493
0.16851063829787233 0.43722520762090866 0.5781927765793333
0.16872340425531915 0.4386524417844934 0.5794227902624044
0.16893617021276597 0.441548180375328 0.577316682876308
0.16914893617021276 0.44121492401972384 0.573359940338788
0.16936170212765958 0.4429383432579193 0.5576698808415071
0.16957446808510637 0.43917928676111373 0.535729896159023
0.1697872340425532 0.43917928676111373 0.5077226249847696
0.17 0.43917928676111373 0.480552553342317
0.1702127659574468 0.4397053456539951 0.4524078828318511
0.17042553191489362 0.4401563263312165 0.4267677725774707
0.17063829787234042 0.4401563263312165 0.40644842074174414
0.17085106382978724 0.4437445701006464 0.3859846647625259
0.17106382978723403 0.43836324291975026 0.3724588534688443
0.17127659574468085 0.44162299389396187 0.36541390742596
0.17148936170212767 0.43917928676111373 0.3626842059688887
0.17170212765957446 0.4379491689054854 0.36281323929342824
0.17191489361702128 0.43678396111917406 0.36448303293158235
0.17212765957446807 0.435901039293782 0.3722072052325133
0.1723404255319149 0.4368386544475892 0.3748879517210027
0.1725531914893617 0.44629819061629583 0.37560197343388163
0.1727659574468085 0.4364238416790132 0.37949203617075233
0.17297872340425532 0.4403910729555725 0.37723454947072405
0.17319148936170212 0.4428949726694641 0.3713932893897176
0.17340425531914894 0.4433489875921627 0.3631145092317521
0.17361702127659576 0.44729761459125444 0.3554025617532662
0.17382978723404255 0.4505824397286706 0.35537681428079376
0.17404255319148937 0.45320414278142895 0.3617396585039315
0.17425531914893616 0.4538348803126526 0.3733142676997263
0.17446808510638298 0.4538348803126526 0.38553738698195844
0.17468085106382977 0.4549249445447473 0.40239085708319183
0.1748936170212766 0.457743038593063 0.4120832058574533
0.1751063829787234 0.457743038593063 0.422477731328953
0.1753191489361702 0.45813359170345785 0.4350738815431602
0.17553191489361702 0.4587200781631655 0.44020211174213075
0.17574468085106382 0.4599842943171661 0.4423975820553195
0.17595744680851064 0.4629292633608089 0.43782553090750204
0.17617021276595746 0.4636052760136786 0.4327692819766474
0.17638297872340425 0.4655459479015092 0.42437621343345555
0.17659574468085107 0.4648426082507846 0.41195420926942217
0.17680851063829786 0.4667736945306645 0.3970128064701934
0.17702127659574468 0.467513434294089 0.38164082032899266
0.1772340425531915 0.4679520552391378 0.3614756793279025
0.1774468085106383 0.4696054419338634 0.34678585317319305
0.1776595744680851 0.4690910734961951 0.3366620113500523
0.1778723404255319 0.4684904738641915 0.33206844862278
0.17808510638297873 0.4657620488711543 0.33352388404518707
0.17829787234042552 0.4655263335239102 0.34082850648048707
0.17851063829787234 0.4642812713175017 0.35207495147945483
0.17872340425531916 0.46262823644357587 0.36492421695775795
0.17893617021276595 0.46262823644357587 0.3757952103117433
0.17914893617021277 0.4621267074294363 0.38657526072463383
0.17936170212765956 0.4641408579061853 0.39663829420343544
0.17957446808510638 0.461851495720097 0.3983790925001503
0.1797872340425532 0.4615351435517181 0.3998655973134997
0.18 0.46068524913941034 0.4069591646198074
0.1802127659574468 0.46311578052373725 0.41328871385828536
0.1804255319148936 0.45945591679533604 0.41887818509014396
0.18063829787234043 0.45836152212437736 0.4290862931675592
0.18085106382978725 0.4612932462424102 0.4410402159108927
0.18106382978723404 0.4624381768542768 0.45421499949125105
0.18127659574468086 0.45778623769680926 0.4647927978304922
0.18148936170212765 0.4552549072961255 0.47280225533801085
0.18170212765957447 0.4539382836061099 0.4813418014979695
0.18191489361702126 0.45574996664112877 0.48623315737295464
0.18212765957446808 0.45411025963019613 0.4940311923456305
0.1823404255319149 0.4557889594528579 0.4953826634425578
0.1825531914893617 0.4554142689003213 0.49832338360731293
0.1827659574468085 0.45481191988275516 0.5017212943069413
0.1829787234042553 0.45419761487823834 0.5045297738313326
0.18319148936170213 0.4538348803126526 0.5100154693633504
0.18340425531914895 0.4512959005114084 0.5207898075532674
0.18361702127659574 0.4528280997582565 0.5241519883757455
0.18382978723404256 0.4471014103685735 0.5263474225935224
0.18404255319148935 0.4470707956342288 0.5278644258259974
0.18425531914893617 0.44440249716816305 0.5254227852876657
0.184468085106383 0.44367908711655957 0.522227650219834
0.18468085106382978 0.4432566099525154 0.5199352412576463
0.1848936170212766 0.443404598681493 0.5163398341490224
0.1851063829787234 0.4438496373769898 0.5176749502355126
0.1853191489361702 0.4414339037248157 0.5121814698701976
0.185531914893617 0.4430283073257468 0.5114407898048539
0.18574468085106383 0.4401563263312165 0.5099446089512013
0.18595744680851065 0.43938324043274585 0.512457254518808
0.18617021276595744 0.4376017408621041 0.5135868542423944
0.18638297872340426 0.4382022471910112 0.5183474745752717
0.18659574468085105 0.435151527747952 0.5249114739814024
0.18680851063829787 0.4347734262762728 0.5329383558134451
0.1870212765957447 0.4352711284807034 0.5434019249186821
0.18723404255319148 0.4381768977576988 0.5485739193681872
0.1874468085106383 0.4402667937742663 0.5514283698798617
0.1876595744680851 0.44158539464766833 0.550561797752809
0.18787234042553191 0.4434316678390898 0.5498733521576775
0.18808510638297873 0.44777007255741036 0.546754924639712
0.18829787234042553 0.4495575283009494 0.5406338328070717
0.18851063829787235 0.4479726428920372 0.5343725149610148
0.18872340425531914 0.4479726428920372 0.527280808343234
0.18893617021276596 0.4444395622638106 0.5226027278720177
0.18914893617021278 0.4430716071264908 0.5182086265341908
0.18936170212765957 0.4419715505130634 0.5107859401569147
0.1895744680851064 0.4424335568654381 0.5039946351699542
0.18978723404255318 0.4444798950252401 0.4964399542155186
0.19 0.4405760355367778 0.4907330153782516
0.1902127659574468 0.44045270280203636 0.4803468139418865
0.19042553191489361 0.441133365901319 0.46814616562044387
0.19063829787234043 0.4420210903258341 0.4540189376351872
0.19085106382978723 0.4430874450415241 0.4465199071838295
0.19106382978723405 0.44260188337970824 0.43299925781242515
0.19127659574468084 0.43899898270101284 0.4253204287195765
0.19148936170212766 0.43707412360779735 0.4200917473983961
0.19170212765957448 0.4371358805643684 0.4135082767688258
0.19191489361702127 0.43624816805080613 0.40822086060117213
0.1921276595744681 0.43157875630850384 0.40693698094772834
0.19234042553191488 0.4339918424174361 0.40873993684135124
0.1925531914893617 0.4322528700100384 0.4111065585092107
0.19276595744680852 0.4307159505491372 0.4173674164866477
0.19297872340425531 0.4323400097703958 0.4206155349291647
0.19319148936170213 0.43350584130258246 0.4182838718647911
0.19340425531914893 0.4388250655802331 0.4132301816087506
0.19361702127659575 0.44211040547142155 0.40931855940820727
0.19382978723404254 0.4465840968181994 0.4094052509667569
0.19404255319148936 0.45057444471562585 0.4046644960108585
0.19425531914893618 0.4528925724945407 0.39908593263491704
0.19446808510638297 0.45605624604721623 0.395521329190704
0.1946808510638298 0.4574908892235064 0.39029575034786057
0.19489361702127658 0.4582490788303765 0.3859131097382605
0.1951063829787234 0.46165483639887084 0.38250735216976617
0.19531914893617022 0.46201958099409596 0.38396857392298084
0.19553191489361701 0.4609243239863369 0.38326149174406215
0.19574468085106383 0.45982865513968996 0.3808199873678018
0.19595744680851063 0.45969711773326827 0.37863175058083054
0.19617021276595745 0.4572927065862076 0.3790531654216087
0.19638297872340427 0.46344571056229855 0.3733088985048791
0.19659574468085106 0.46492447859997954 0.3691844906256244
0.19680851063829788 0.4612114678611462 0.3595499497399429
0.19702127659574467 0.46178893340970245 0.3513899038963592
0.1972340425531915 0.46127621081497394 0.34388354379726743
0.19744680851063828 0.4630198988587049 0.342257243602633
0.1976595744680851 0.466297046878737 0.3424523693209576
0.19787234042553192 0.46662296734431175 0.3437324130621993
0.19808510638297872 0.46881616113256236 0.3518971222236327
0.19829787234042554 0.47101680219649494 0.36261420294724656
0.19851063829787233 0.47361575490959373 0.3732952211853641
0.19872340425531915 0.4774238885741409 0.38376814842331824
0.19893617021276597 0.47987947446807994 0.39124558154223626
0.19914893617021276 0.4825037097980299 0.39631010842310194
0.19936170212765958 0.48756236914276085 0.3980498455921086
0.19957446808510637 0.48203730388263466 0.4042693101634065
0.1997872340425532 0.47713814855709674 0.4147960280045729
0.2 0.47551352493208554 0.4229953314079447
0.2002127659574468 0.4737580965630064 0.43285071469480574
0.20042553191489362 0.47235122441588795 0.4432059643633087
0.20063829787234042 0.4679633617479407 0.4572771101037468
0.20085106382978724 0.46432917258661904 0.47219286570550106
0.20106382978723403 0.4618948150010487 0.48559251693068883
0.20127659574468085 0.4616502582923806 0.5007352825604908
0.20148936170212767 0.45860112224048194 0.5086680521610812
0.20170212765957446 0.457743038593063 0.5102354240473637
0.20191489361702128 0.4570349354953085 0.5121032029699307
0.20212765957446807 0.4548512570923833 0.5119490661289428
0.2023404255319149 0.4538348803126526 0.5077852455131124
0.2025531914893617 0.45313130719006306 0.4983087798546811
0.2027659574468085 0.4528578407425501 0.4909141801579737
0.20297872340425532 0.451920746725765 0.48623696833930763
0.20319148936170212 0.4478925859578844 0.49120255477900954
0.20340425531914894 0.44640991935776486 0.4944791866510283
0.20361702127659576 0.4428249094114362 0.4999235593976431
0.20382978723404255 0.4414346705935633 0.5061689023440769
0.20404255319148937 0.4414605421926582 0.5072448803769558
0.20425531914893616 0.4447617473312754 0.5078911789526749
0.20446808510638298 0.44389176549541853 0.5075720566682951
0.20468085106382977 0.4421946570569816 0.5031081167455824
0.2048936170212766 0.44221779830083896 0.48979740695496793
0.2051063829787234 0.4451592263249319 0.4814273925619303
0.2053191489361702 0.43989498890348233 0.47142159257449934
0.20553191489361702 0.43917928676111373 0.4672156606455956
0.20574468085106382 0.43817229565919313 0.4616811484052914
0.20595744680851064 0.43535561478688023 0.468860212557004
0.20617021276595746 0.43429408891060084 0.479064178730984
0.20638297872340425 0.43343362911912897 0.49668026452201997
0.20659574468085107 0.4333180795515457 0.5056251890054216
0.20680851063829786 0.4353939158150735 0.5204016175188566
0.20702127659574468 0.43624816805080613 0.5300368493920945
0.2072340425531915 0.43697130250106136 0.5366293386515254
0.2074468085106383 0.4391615055345608 0.5378602833414754
0.2076595744680851 0.43955621761196023 0.5372601746222191
0.2078723404255319 0.43917928676111373 0.5412012187608614
0.20808510638297872 0.43834480309600116 0.5435799648571009
0.20829787234042554 0.4391526048395059 0.5446728784105855
0.20851063829787234 0.43722520762090866 0.5453310132724639
0.20872340425531916 0.4377913422011989 0.5421458646754126
0.20893617021276595 0.4401563263312165 0.542193678716727
0.20914893617021277 0.43978530404459 0.5367472164815961
0.20936170212765956 0.43917928676111373 0.5329612586474285
0.20957446808510638 0.43917928676111373 0.5273501834808407
0.2097872340425532 0.439911062534737 0.5244269931565184
0.21 0.4401563263312165 0.5216227397334847
0.2102127659574468 0.44589101220302463 0.5155159247779231
0.2104255319148936 0.4393961066530887 0.5059445574222676
0.21063829787234042 0.4417289363665302 0.49627578454770355
0.21085106382978724 0.44046479596866916 0.48720911766937425
0.21106382978723404 0.44070548137052273 0.4777689120291545
0.21127659574468086 0.4407046656539049 0.470633975101262
0.21148936170212765 0.4404667946089097 0.465824188694554
0.21170212765957447 0.4401563263312165 0.463798915149964
0.2119148936170213 0.4401563263312165 0.4600042708389009
0.21212765957446808 0.440199372704198 0.45752780672815546
0.2123404255319149 0.4414662938197825 0.45135966510946446
0.2125531914893617 0.44507451924432284 0.44094193943580023
0.2127659574468085 0.448008450070073 0.4298641598085936
0.2129787234042553 0.4455146893423767 0.4178993809605122
0.21319148936170212 0.4460185637518319 0.4013524043520191
0.21340425531914894 0.4503077310715793 0.3837747265871712
0.21361702127659574 0.45188080117244755 0.37121827536562474
0.21382978723404256 0.45188080117244755 0.3678932386079355
0.21404255319148935 0.45753451498183273 0.36415576347444467
0.21425531914893617 0.45624131524081435 0.36657985268535437
0.214468085106383 0.45843474802593653 0.3698700018630376
0.21468085106382978 0.46156233828942284 0.3736287769801897
0.2148936170212766 0.4636052760136786 0.37861959262869654
0.2151063829787234 0.4636052760136786 0.38413360252901574
0.2153191489361702 0.4619229180490333 0.38880682633476193
0.21553191489361703 0.4635846286315175 0.39515056396001397
0.21574468085106382 0.4636052760136786 0.3995672654711825
0.21595744680851064 0.46407076427681393 0.39874730221143606
0.21617021276595744 0.46486987011897474 0.395326882071019
0.21638297872340426 0.4670046514391379 0.3925357788236651
0.21659574468085105 0.46946751343429405 0.38384751303452547
0.21680851063829787 0.47175902888540433 0.36650565290000425
0.2170212765957447 0.46994721251910704 0.348382320317773
0.21723404255319148 0.4684904738641915 0.3346289480895721
0.2174468085106383 0.4684904738641915 0.32719208881202033
0.2176595744680851 0.4704445530043966 0.3290981754062304
0.2178723404255319 0.4704445530043966 0.3361490717671062
0.21808510638297873 0.47073105639011703 0.3471539529054256
0.21829787234042553 0.47020938930458545 0.3605756686254113
0.21851063829787234 0.4684904738641915 0.37416495422212337
0.21872340425531914 0.4691292232834007 0.38758315616625966
0.21893617021276596 0.4656902088890436 0.39961441782563806
0.21914893617021278 0.4680706123049934 0.40205178309721545
0.21936170212765957 0.46454215392528986 0.4078470844203454
0.2195744680851064 0.4617799480816405 0.40264256904281637
0.21978723404255318 0.4623819875111686 0.3993589571597884
0.22 0.46056002332328216 0.3982577587968936
0.2202127659574468 0.4582396884918736 0.4005780936283022
0.2204255319148936 0.4565492694415362 0.4058498201332204
0.22063829787234043 0.4550741666946317 0.4096058528461597
0.22085106382978723 0.45481191988275516 0.4164507764961205
0.22106382978723405 0.45762238613738926 0.420494882473491
0.22127659574468084 0.4557889594528579 0.4264777723497801
0.22148936170212766 0.4559878040402711 0.4274719952868463
0.22170212765957448 0.45708137616764144 0.432939855923698
0.22191489361702127 0.4568803549428451 0.44228695360233133
0.2221276595744681 0.4557889594528579 0.451025823401634
0.22234042553191488 0.4551197917100195 0.4585724786008305
0.2225531914893617 0.4563901363309299 0.47033138733843394
0.22276595744680852 0.4558570953684064 0.48148766869014287
0.2229787234042553 0.4547170838843783 0.49958480652357495
0.22319148936170213 0.4523628540654466 0.5181932977327024
0.22340425531914893 0.44907923696328517 0.5351054911737024
0.22361702127659575 0.4473939042769513 0.5483216945622235
0.22382978723404254 0.44643060576977556 0.5615641589142966
0.22404255319148936 0.4456714909387791 0.5649344973603508
0.22425531914893618 0.4445293253137715 0.5620064940771545
0.22446808510638297 0.44406448461162684 0.5578651992591727
0.2246808510638298 0.44406448461162684 0.556425844813873
0.22489361702127658 0.4432385089426739 0.5514381280554783
0.2251063829787234 0.44554673726118343 0.549112931692058
0.22531914893617022 0.44336047479207896 0.5474727287240632
0.225531914893617 0.444840878649606 0.5484201671257377
0.22574468085106383 0.44400068759454564 0.5491759846690065
0.22595744680851063 0.4433536866887825 0.5509171967142311
0.22617021276595745 0.4403766409023497 0.5549872102039414
0.22638297872340427 0.44174342092851504 0.5538599010060233
0.22659574468085106 0.44404922655390017 0.5534929164631168
0.22680851063829788 0.4390781423144761 0.5524147324463764
0.22702127659574467 0.43798830181175796 0.5496133289096322
0.2272340425531915 0.4365635068754697 0.5400986782102325
0.22744680851063828 0.4357182210012892 0.5317995169870671
0.2276595744680851 0.4379348894716477 0.5174073186417855
0.22787234042553192 0.4398574536431427 0.5007099663421251
0.22808510638297871 0.4401563263312165 0.48729416157927447
0.22829787234042553 0.4401563263312165 0.48331443532934976
0.22851063829787233 0.4401535763869378 0.4802286984268159
0.22872340425531915 0.4393800166614571 0.48590306615730894
0.22893617021276597 0.441133365901319 0.49390813346734835
0.22914893617021276 0.44051117887961566 0.4993571285215274
0.22936170212765958 0.43917928676111373 0.5035391751863075
0.22957446808510637 0.4397215836110713 0.5030140474081148
0.2297872340425532 0.4408161713846639 0.4898326082856252
0.23 0.4387956623465474 0.4739930582484895
0.2302127659574468 0.4363977220693524 0.45969217928371625
0.23042553191489362 0.43917928676111373 0.44235402655474754
0.23063829787234041 0.43900918609350187 0.42660430858182335
0.23085106382978723 0.4399548935126893 0.42110907546797144
0.23106382978723405 0.44530339193978813 0.418097385328244
0.23127659574468085 0.444325205016196 0.41919553545010707
0.23148936170212767 0.44341784949706264 0.4255219934744467
0.23170212765957446 0.44328765719915547 0.4330928159648128
0.23191489361702128 0.4403801485263877 0.4397086819408741
0.23212765957446807 0.44020320291427056 0.4481601492242534
0.2323404255319149 0.4412977856531297 0.45171638142063686
0.2325531914893617 0.44182573805358777 0.45175776385584626
0.2327659574468085 0.44229365853019087 0.45228782347415686
0.23297872340425532 0.44454041758701385 0.44754705715530724
0.23319148936170211 0.4473967435340596 0.44268630482939914
0.23340425531914893 0.4524797634516166 0.4361912525160513
0.23361702127659575 0.45465934416123377 0.42934730581911384
0.23382978723404255 0.4557576408213212 0.4218118049200242
0.23404255319148937 0.4598784751717603 0.4155489796401596
0.23425531914893616 0.46165119687347334 0.41252059834224103
0.23446808510638298 0.4606652564627089 0.40758537371424275
0.2346808510638298 0.46006844489891147 0.4055886142119824
0.2348936170212766 0.4622201591559281 0.40571274908478494
0.2351063829787234 0.4619398696417194 0.4055602473440154
0.2353191489361702 0.4632752561347162 0.40092275365441615
0.23553191489361702 0.4645366228945873 0.39171558202883167
0.23574468085106381 0.46255383666139394 0.3851445112767438
0.23595744680851063 0.462039829368451 0.3803680546401281
0.23617021276595745 0.4645510560008269 0.37314963473871665
0.23638297872340425 0.46741147590406523 0.365230154603388
0.23659574468085107 0.4690474502235784 0.3603222316448486
0.23680851063829786 0.4719905514353687 0.35527748501108947
0.23702127659574468 0.4755281580311855 0.351047318275605
0.2372340425531915 0.4754739221374688 0.3461043444440609
0.2374468085106383 0.48008643246842836 0.35014016964478406
0.2376595744680851 0.47443909207571383 0.35052782825449885
0.2378723404255319 0.47574030503755416 0.35381563586605264
0.23808510638297872 0.47663380375031345 0.35743097579199645
0.23829787234042554 0.47577346660993863 0.36181394460291993
0.23851063829787233 0.4757436679938957 0.36901534174326306
0.23872340425531915 0.4746502272063682 0.3761382142368448
0.23893617021276595 0.4735534024148472 0.3808230293244898
0.23914893617021277 0.46877398795253655 0.3944186666591311
0.23936170212765956 0.47063669907703753 0.39332247565717254
0.23957446808510638 0.4717138844720075 0.3947893956172937
0.2397872340425532 0.4648858581216464 0.3980772128602983
0.24 0.46428735352269807 0.4009457050444673
0.2402127659574468 0.4637110129055982 0.40367594779024885
0.2404255319148936 0.4612951445681514 0.40695520441690103
0.24063829787234042 0.4542742796194312 0.418759696745505
0.24085106382978724 0.450293910898755 0.42757507746812246
0.24106382978723404 0.44992672203224227 0.43901794551808865
0.24127659574468086 0.44689219191541996 0.45054719047132924
0.24148936170212765 0.44534724073464815 0.4575791541653479
0.24170212765957447 0.44274343342661693 0.4653253340882146
0.2419148936170213 0.44257185436795127 0.4707977183468403
0.24212765957446808 0.4436671723152454 0.475114853535868
0.2423404255319149 0.44196051628552574 0.47981340430184727
0.2425531914893617 0.44359277674599745 0.485291006349989
0.2427659574468085 0.45064078691962967 0.4888956014008965
0.2429787234042553 0.44789268026938217 0.4928190123958591
0.24319148936170212 0.4463971126036401 0.5054798155031558
0.24340425531914894 0.44438457645204327 0.5182859638417171
0.24361702127659574 0.44372249484234644 0.5257450617915218
0.24382978723404256 0.4415510167665345 0.5322815216002029
0.24404255319148935 0.4404540317485724 0.5373487958247983
0.24425531914893617 0.4457441671272669 0.5428286377658997
0.244468085106383 0.4414859181303001 0.5391311164357289
0.24468085106382978 0.43808413916393485 0.540437077970554
0.2448936170212766 0.4365886088256075 0.5350993850185682
0.2451063829787234 0.4389396103160308 0.5349230533679107
0.2453191489361702 0.44077025105740997 0.5290931271695873
0.24553191489361703 0.4391914104219007 0.5217694395867497
0.24574468085106382 0.4376032897087843 0.5169007015806186
0.24595744680851064 0.4393677120291556 0.5146742050930335
0.24617021276595744 0.44098911945641284 0.5127457474086203
0.24638297872340426 0.43636922291359664 0.5076931115310857
0.24659574468085105 0.43713185973164925 0.5088291399061758
0.24680851063829787 0.43646013194659217 0.5125400344276357
0.2470212765957447 0.43755581277254424 0.516696017950854
0.24723404255319148 0.4386516855639776 0.516443575623388
0.2474468085106383 0.43746884581859263 0.5176689611524774
0.2476595744680851 0.4390065855674388 0.5199861358886843
0.2478723404255319 0.4409653080738943 0.5291723702490848
0.24808510638297873 0.43834479757122935 0.5217257785837917
0.24829787234042552 0.4391085052407433 0.5232754713103069
0.24851063829787234 0.4382022471910112 0.5238283097866314
0.24872340425531914 0.4390807665311193 0.5207634513196537
0.24893617021276596 0.43957149443645016 0.5185138559679725
0.24914893617021278 0.437704193811168 0.523147488221185
0.24936170212765957 0.4376016785563798 0.5267363771348758
0.2495744680851064 0.43722520762090866 0.5278366259936591
0.24978723404255318 0.43976648324198603 0.5247015201456796
0.25 0.4411227199861224 0.5154841864658855
0.2502127659574468 0.43962509712103853 0.5111458571787618
0.25042553191489364 0.443324348443925 0.5045217383975825
0.25063829787234043 0.44406448461162684 0.48833627186291556
0.2508510638297872 0.44551056713090204 0.4797588903135023
0.251063829787234 0.44639125661644274 0.4688229761182302
0.25127659574468086 0.4460185637518319 0.460681736960935
0.25148936170212766 0.44430695809669535 0.456273906422995
0.25170212765957445 0.44407504318084073 0.45089056339082745
0.2519148936170213 0.44834900772593306 0.4450149241947762
0.2521276595744681 0.4494066929065749 0.43745371284312623
0.2523404255319149 0.4465500241667869 0.4333855034993815
0.2525531914893617 0.4474447072301625 0.42587100493425883
0.2527659574468085 0.4441581857531173 0.41725169250226646
0.2529787234042553 0.4452825871089588 0.4088995853287233
0.2531914893617021 0.44771564348215553 0.39930012216127253
0.25340425531914895 0.44893467683120586 0.3904473533034552
0.25361702127659574 0.4520790793943591 0.3850455539616484
0.25382978723404254 0.45449472435315436 0.3806541600710589
0.2540425531914894 0.4560902049487623 0.3779636908817498
0.2542553191489362 0.4557154301834101 0.37905458856508073
0.25446808510638297 0.45790247637079823 0.37844339563701807
0.25468085106382976 0.4600956761187614 0.37418679895566115
0.2548936170212766 0.4606741573033708 0.3686885291036564
0.2551063829787234 0.46440074626248795 0.37344528158230056
0.2553191489361702 0.46188545973025125 0.3709426920917845
0.25553191489361704 0.46418678690345433 0.3733338890146279
0.25574468085106383 0.4635880207421645 0.37727135520209315
0.2559574468085106 0.4651187069215777 0.3827601537164885
0.2561702127659574 0.464024886011951 0.3904589765519429
0.25638297872340426 0.46428110680714524 0.3982904512971946
0.25659574468085106 0.4661676102756048 0.401682998648834
0.25680851063829785 0.4720197959525588 0.4002239826876912
0.2570212765957447 0.46475639698535864 0.4009586892593946
0.2572340425531915 0.4676931384755893 0.39804243929790556
0.2574468085106383 0.4669943745188231 0.39176232762092367
0.25765957446808513 0.4640223406928313 0.38753909975747364
0.2578723404255319 0.46511944782028464 0.382122092083546
0.2580851063829787 0.464902463748217 0.3753183763864196
0.2582978723404255 0.46535711376200195 0.36674445196025296
0.25851063829787235 0.46287909133258137 0.3631374368857822
0.25872340425531914 0.4655593551538837 0.361053127724561
0.25893617021276594 0.46525130476113213 0.3621471859193851
0.2591489361702128 0.46388099192360455 0.36462449575266753
0.2593617021276596 0.4641858592297271 0.3755721957326469
0.25957446808510637 0.46566747249666357 0.3849265612847252
0.2597872340425532 0.467513434294089 0.39018865451771667
0.26 0.46297921743195014 0.40157115788021314
0.2602127659574468 0.4625287806332218 0.4119041160751569
0.2604255319148936 0.4596473733440566 0.4189350499296237
0.26063829787234044 0.457743038593063 0.4302838391822563
0.26085106382978723 0.457743038593063 0.43735202177403815
0.261063829787234 0.4596011936724218 0.4460604931684983
0.2612765957446809 0.45966222935687173 0.4518924306312463
0.26148936170212767 0.45553328635491064 0.4559396224126744
0.26170212765957446 0.45702229001615907 0.46142698881540267
0.26191489361702125 0.45860143942813214 0.4652034389487836
0.2621276595744681 0.4518952809560267 0.4772867259518306
0.2623404255319149 0.45701630099916474 0.47863632252952376
0.2625531914893617 0.45847225253456936 0.48143981390412127
0.26276595744680853 0.45664555101479193 0.4854614905804408
0.2629787234042553 0.4552934152089564 0.49433285125995896
0.2631914893617021 0.4551876318346216 0.5056189200043405
0.26340425531914896 0.4526491627491713 0.516270527734827
0.26361702127659575 0.4476773434294179 0.5284077905226945
0.26382978723404255 0.4479570196394348 0.5396581299556562
0.26404255319148934 0.4484158537581667 0.543402223539707
0.2642553191489362 0.443386075820122 0.5405652657879481
0.264468085106383 0.44147683940415816 0.5394708889788413
0.26468085106382977 0.4434999558609674 0.5346686717429405
0.2648936170212766 0.4455999186796585 0.5261352052951508
0.2651063829787234 0.44073922948540156 0.5218848562233288
0.2653191489361702 0.4413221062361045 0.5157908573208181
0.265531914893617 0.4448055414631607 0.509021061675535
0.26574468085106384 0.4420709591353014 0.5097233674891009
0.26595744680851063 0.4405070678301359 0.5159770788369711
0.2661702127659574 0.43832274446255776 0.5258280346225127
0.2663829787234043 0.44231549952041976 0.5312261003997554
0.26659574468085107 0.4450925199859099 0.5396573154238026
0.26680851063829786 0.4447515170575462 0.5475771699437247
0.2670212765957447 0.44180498506483135 0.5523735511905963
0.2672340425531915 0.44200556619779274 0.5508763155736954
0.2674468085106383 0.4411182305249817 0.551508566570237
0.2676595744680851 0.44029248920747416 0.5483592922963874
0.26787234042553193 0.4416511223455857 0.540014767385383
0.2680851063829787 0.4419513451753291 0.537481583386077
0.2682978723404255 0.43965964910536737 0.5358898893196746
0.26851063829787236 0.44041106721971385 0.5306179330260673
0.26872340425531915 0.44039893532186863 0.5229488735842962
0.26893617021276595 0.4393441002762383 0.5171894803748412
0.26914893617021274 0.4373244017404907 0.5126556427579722
0.2693617021276596 0.43617275583345205 0.4994507719825581
0.2695744680851064 0.43430799444493323 0.4816189584928306
0.26978723404255317 0.43226554760943314 0.4667225501263928
0.27 0.4358122699141979 0.45153522138366264
0.2702127659574468 0.4336009309016631 0.4394741989182612
0.2704255319148936 0.4357206339975822 0.43121437940807966
0.27063829787234045 0.43802156251137014 0.4174635677031646
0.27085106382978724 0.4409589821898678 0.40096962251426627
0.27106382978723403 0.44400052530992196 0.3865647186235129
0.2712765957446808 0.44327417872679015 0.3724538709111504
0.2714893617021277 0.4443746047495687 0.36483092112076293
0.27170212765957447 0.4454746339296444 0.36839932796581226
0.27191489361702126 0.4460185637518319 0.3711977639716332
0.2721276595744681 0.4446620226134029 0.38524823524088764
0.2723404255319149 0.44565955117600903 0.40627797389980697
0.2725531914893617 0.4487604781962094 0.4226637003984641
0.2727659574468085 0.44341658204865975 0.4345135135820246
0.27297872340425533 0.44904228438887706 0.4381096452642739
0.2731914893617021 0.4501355138386308 0.436181248588966
0.2734042553191489 0.4522124656119422 0.4303769537559996
0.27361702127659576 0.45525198195937927 0.4242774619666599
0.27382978723404255 0.4557889594528579 0.4210590046093037
0.27404255319148935 0.4596451233435389 0.41830183659475606
0.2742553191489362 0.4658275862056997 0.4148427078591544
0.274468085106383 0.46822932337410245 0.41564328691528857
0.2746808510638298 0.4735912227772129 0.413179962622141
0.27489361702127657 0.47483228858138876 0.41231964107176217
0.2751063829787234 0.475236603317372 0.41182217879824123
0.2753191489361702 0.4742617313532677 0.411731198866702
0.275531914893617 0.47219363056392966 0.4097655988677001
0.27574468085106385 0.4706516332310762 0.408683979861254
0.27595744680851064 0.47142159257449934 0.4066363818143436
0.27617021276595743 0.4697052127289322 0.4040058622374205
0.2763829787234042 0.467513434294089 0.4024705904064961
0.2765957446808511 0.47391391907269276 0.39874729451671154
0.27680851063829787 0.47225196388188656 0.39416213240503706
0.27702127659574466 0.46783602597211094 0.3916269395041089
0.2772340425531915 0.46904386974761736 0.38824347691903
0.2774468085106383 0.4677075761683505 0.39003609544459206
0.2776595744680851 0.4674262774876192 0.388416807519014
0.27787234042553194 0.46291132424407117 0.39116005037951324
0.27808510638297873 0.4582227865233879 0.39842735805559937
0.2782978723404255 0.4582026103012794 0.406778665905422
0.2785106382978723 0.45558488584269313 0.4131067269511947
0.27872340425531916 0.44824977128596505 0.42229721246967816
0.27893617021276595 0.44566155747629654 0.42847884111823714
0.27914893617021275 0.44582497406819915 0.43175924071949745
0.2793617021276596 0.4460185637518319 0.4323400097703958
0.2795744680851064 0.44499811300645814 0.432383420945667
0.2797872340425532 0.44470394197797675 0.43347691368208574
0.27999999999999997 0.4482496501194748 0.4354021178203513
0.2802127659574468 0.4505125992310839 0.43898370557548333
0.2804255319148936 0.4528578407425501 0.43964893597382704
0.2806382978723404 0.4522333657587723 0.4423016616800029
0.28085106382978725 0.4503980720042412 0.44851267211624557
0.28106382978723404 0.45418620447299113 0.4567418939374405
0.28127659574468084 0.4577078523161361 0.4645002142709518
0.2814893617021277 0.45513031487261646 0.4660900134703192
0.2817021276595745 0.457743038593063 0.47088839860430154
0.28191489361702127 0.457743038593063 0.47239863214460187
0.28212765957446806 0.4572925894093125 0.4719481829608514
0.2823404255319149 0.45506617399308225 0.47538785097754827
0.2825531914893617 0.4538348803126526 0.4782608695652173
0.2827659574468085 0.4546360027428734 0.4806642368558799
0.28297872340425534 0.45206621130748714 0.4875986416178176
0.28319148936170213 0.44976061811507184 0.494004238631639
0.2834042553191489 0.4463248867571826 0.4965182983918158
0.2836170212765957 0.44365395313331746 0.4977729617861976
0.28382978723404256 0.44744777723125784 0.4913122944170705
0.28404255319148936 0.44830682945332273 0.4812175083892795
0.28425531914893615 0.44346554988618064 0.4781822320832839
0.284468085106383 0.442864531780868 0.4749360645392971
0.2846808510638298 0.4439598181366451 0.47512041790494625
0.2848936170212766 0.44609110001670044 0.47637932668988076
0.2851063829787234 0.45011784232317853 0.48130426245826313
0.2853191489361702 0.443833625513125 0.4823998869441295
0.285531914893617 0.44202991807368763 0.48561363034068217
0.2857446808510638 0.4430141659453296 0.491414264213505
0.28595744680851065 0.4454234789173982 0.4905361237790211
0.28617021276595744 0.44432840342777286 0.48187709729678013
0.28638297872340424 0.44240095551099906 0.473415557283123
0.2865957446808511 0.4411584325415321 0.46573482163537505
0.2868085106382979 0.43800803328491594 0.4553034246876197
0.28702127659574467 0.4360282756925279 0.4506838692440666
0.28723404255319146 0.43493071732921956 0.4536712446985647
0.2874468085106383 0.4333742703981761 0.46711288689034425
0.2876595744680851 0.4329212840571226 0.48423437415916337
0.2878723404255319 0.4312047786503908 0.5022278276571243
0.28808510638297874 0.432868601337352 0.5140430292196768
0.28829787234042553 0.4285886134567281 0.5295736808804267
0.2885106382978723 0.4332298015211083 0.5325215328371999
0.28872340425531917 0.4323400097703958 0.5368677635172835
0.28893617021276596 0.4331699470155819 0.5340816684845439
0.28914893617021276 0.43605106934005505 0.5349333916229936
0.28936170212765955 0.4367162312917212 0.5309800932624849
0.2895744680851064 0.43939548670212275 0.5262671843990746
0.2897872340425532 0.442634303677589 0.519678916031229
0.29 0.4422134274251559 0.5122013686248458
0.2902127659574468 0.4460188656338423 0.5017086871901405
0.2904255319148936 0.44831627773211213 0.49309339182162865
0.2906382978723404 0.4501845130195454 0.48550747977232206
0.2908510638297872 0.45143520035871704 0.4795976720064085
0.29106382978723405 0.45301778977812573 0.47130917809856604
0.29127659574468084 0.452426505489577 0.46506430011791905
0.29148936170212764 0.45431893633194426 0.45624623287759175
0.2917021276595745 0.45444493900907973 0.45041760595684144
0.2919148936170213 0.45187947494819725 0.43795301395754754
0.29212765957446807 0.45175748005180755 0.4308792151127505
0.2923404255319149 0.4528578407425501 0.41963943407968124
0.2925531914893617 0.45273406932208854 0.4199966778268568
0.2927659574468085 0.4528449451611617 0.41452515709275894
0.2929787234042553 0.4568451027176995 0.40873285269845544
0.29319148936170214 0.4591896372281211 0.40451334274256767
0.29340425531914893 0.4608747671672446 0.40459468695440887
0.2936170212765957 0.46023193655535066 0.4049829018075233
0.29382978723404257 0.4613584187883675 0.40747485339017214
0.29404255319148936 0.46165119687347334 0.41070392531657235
0.29425531914893616 0.4615843065959638 0.4148870780635682
0.29446808510638295 0.4601153813520535 0.41745241125051075
0.2946808510638298 0.457743038593063 0.4215255055017089
0.2948936170212766 0.4581666906392676 0.4235466536394723
0.2951063829787234 0.4581750630730189 0.42409166872961906
0.29531914893617023 0.45907033736292713 0.42784194013423515
0.295531914893617 0.4557790914942994 0.42705807531670664
0.2957446808510638 0.45752525367399327 0.4228599939614627
0.29595744680851066 0.45955713629034967 0.4176844162188569
0.29617021276595745 0.45726531453982294 0.4178508547244777
0.29638297872340424 0.46141794163308136 0.4198086717221682
0.29659574468085104 0.46473771883586545 0.41763979616125996
0.2968085106382979 0.4636052760136786 0.41243833505265315
0.2970212765957447 0.4655507833570411 0.4137762579384465
0.29723404255319147 0.4695975941982909 0.4130109580698704
0.2974468085106383 0.4713246447434311 0.415439493585447
0.2976595744680851 0.47229169576053687 0.40901938374881164
0.2978723404255319 0.46921735116043184 0.41375934600318237
0.29808510638297875 0.47791928876883366 0.40606795200475004
0.29829787234042554 0.47242862335872055 0.4010747435271129
0.29851063829787233 0.47249968029947953 0.40259082695970555
0.2987234042553191 0.4709496474429704 0.40212867506087524
0.298936170212766 0.46923626192110496 0.39883737935637237
0.29914893617021276 0.4668710054894517 0.3972781221685244
0.29936170212765956 0.46946751343429405 0.39624402688863547
0.2995744680851064 0.4692050772066188 0.40028743484408713
0.2997872340425532 0.4682722611284783 0.39673015977527604
0.3 0.468576192040712 0.40144841571984985
0.3002127659574468 0.46506412167617805 0.4025470165749211
0.30042553191489363 0.46212093226098366 0.4042595143287168
0.3006382978723404 0.4606741573033708 0.4042483319700902
0.3008510638297872 0.4598725347434503 0.4007993719977383
0.30106382978723406 0.45969711773326827 0.3973824372755294
0.30127659574468085 0.4607241836141893 0.3961395193657813
0.30148936170212765 0.4602895425952795 0.3964039535999169
0.3017021276595745 0.4558684813684017 0.40379486971642886
0.3019148936170213 0.4598510625736609 0.4116179468015253
0.3021276595744681 0.45924943384957445 0.41829544370798083
0.30234042553191487 0.4577443509039769 0.4248458735705054
0.3025531914893617 0.4590882086649875 0.43442144084596385
0.3027659574468085 0.46058839128224643 0.43803071514876246
0.3029787234042553 0.45366613075755535 0.44908468210621755
0.30319148936170215 0.449101933235542 0.45468485002337744
0.30340425531914894 0.4493832418350239 0.46566927597821794
0.30361702127659573 0.4487549941250698 0.4712287031798059
0.3038297872340425 0.44737248460099965 0.4809490732036434
0.3040425531914894 0.44630629976236824 0.49240106402923267
0.30425531914893617 0.4454890803507023 0.5011204122263769
0.30446808510638296 0.44154517031445445 0.5070573011518759
0.3046808510638298 0.44018283802085134 0.5173954757485906
0.3048936170212766 0.44202188580887714 0.5222243269377199
0.3051063829787234 0.442148424103935 0.5326070808424294
0.30531914893617024 0.4460185637518319 0.5349291646311676
0.30553191489361703 0.4460185637518319 0.5388434900653088
0.3057446808510638 0.44271167149604057 0.5431713720527923
0.3059574468085106 0.4421572286847095 0.5447463835454814
0.30617021276595746 0.4430874450415241 0.5456765999022961
0.30638297872340425 0.4412831769890906 0.5420680637974289
0.30659574468085105 0.43905388757896513 0.5390463215484923
0.3068085106382979 0.4364046982915652 0.5430963997990544
0.3070212765957447 0.43722520762090866 0.5390010804853651
0.3072340425531915 0.4379969388808492 0.5361115125114322
0.30744680851063827 0.43867480126344954 0.5329112226405106
0.3076595744680851 0.4375789233293703 0.5285277109041936
0.3078723404255319 0.4364859864644985 0.5256344057575263
0.3080851063829787 0.4379618661767616 0.5285861651820527
0.30829787234042555 0.44112739502036563 0.518341385169586
0.30851063829787234 0.4384349816169809 0.5141785992330435
0.30872340425531913 0.4401563263312165 0.5115668180229096
0.308936170212766 0.43898175320622246 0.5103109559258887
0.3091489361702128 0.43583933556119253 0.5156378311278537
0.30936170212765957 0.437392839828067 0.5184033080430027
0.30957446808510636 0.4385275828120287 0.5199482354586112
0.3097872340425532 0.43897315692457084 0.5133353834775916
0.31 0.44007021176500305 0.5043528149175923
0.3102127659574468 0.43917928676111373 0.49336134339838156
0.31042553191489364 0.4396445374507243 0.4768651174963857
0.31063829787234043 0.4426664013565182 0.46752152783645595
0.3108510638297872 0.4444628946334853 0.4602377763124249
0.311063829787234 0.444523118710674 0.4531371607255726
0.31127659574468086 0.44598374088247544 0.4480074657613935
0.31148936170212765 0.4454719579039144 0.4454719579039144
0.31170212765957445 0.44415675807932764 0.44858058859133654
0.3119148936170213 0.4460485751491085 0.44986669923768907
0.3121276595744681 0.4466933530882834 0.44842601824251377
0.3123404255319149 0.4461366607002959 0.4511775457319865
0.3125531914893617 0.44934784847429254 0.450686303135989
0.3127659574468085 0.44992672203224227 0.44414192005409636
0.3129787234042553 0.4510323022414085 0.43530975602903216
0.3131914893617021 0.45320611061093846 0.42571346257794074
0.31340425531914895 0.4577463450318155 0.4131820987433787
0.31361702127659574 0.456910986527906 0.3981814977813216
0.31382978723404253 0.4587200781631655 0.3939542988210196
0.3140425531914894 0.458551984074253 0.3871965704933917
0.3142553191489362 0.45831095067872746 0.38096604003939666
0.31446808510638297 0.46050399674836084 0.37877299396976327
0.31468085106382976 0.46217656029841064 0.37657506699477605
0.3148936170212766 0.46262823644357587 0.3756717147044455
0.3151063829787234 0.46262823644357587 0.37720704246809467
0.3153191489361702 0.46705478667433337 0.3785111038908022
0.31553191489361704 0.4692089628258789 0.3785741055693739
0.31574468085106383 0.46128098584905114 0.3776257938446508
0.3159574468085106 0.4654005639649953 0.3770802949238413
0.31617021276595747 0.4663324698609252 0.37606536951550007
0.31638297872340426 0.465608985646994 0.37767542433776097
0.31659574468085105 0.46906958781300523 0.3779695351424986
0.31680851063829785 0.47119418252731377 0.3731280167071485
0.3170212765957447 0.4697726865438231 0.3709391034086971
0.3172340425531915 0.467600599385597 0.3698530598295841
0.3174468085106383 0.4693960145656001 0.36980947728383007
0.3176595744680851 0.4681072515750775 0.36980947728383007
0.3178723404255319 0.4674694906160885 0.37012050924786416
0.3180851063829787 0.46903697745089734 0.371647588820726
0.3182978723404255 0.4712451552638179 0.3738424685539883
0.31851063829787235 0.46732010888923237 0.38344159921558035
0.31872340425531914 0.46616415803413397 0.3953054017974413
0.31893617021276593 0.46926871523549074 0.4053635467812159
0.3191489361702128 0.47012414311066564 0.41024191120072223
0.3193617021276596 0.46475355070295815 0.41807725760217057
0.31957446808510637 0.46500625024553394 0.4250767981179248
0.3197872340425532 0.4639988665105065 0.42962649632440336
0.32 0.4630436921586279 0.4358327123357541
0.3202127659574468 0.46038794174328557 0.44227822814166
0.3204255319148936 0.46044859217898676 0.44804742196460356
0.32063829787234044 0.4554549051950762 0.45851831132734633
0.32085106382978723 0.45865820288512404 0.46755763092126146
0.321063829787234 0.45171773958610517 0.4728062861104578
0.32127659574468087 0.45072480751466887 0.47808191547754136
0.32148936170212766 0.45351661075188077 0.4834198752009283
0.32170212765957445 0.4528578407425501 0.4884674155596527
0.32191489361702125 0.4511971414663086 0.4867940391346906
0.3221276595744681 0.4505965389616299 0.48643978041471087
0.3223404255319149 0.451689193171777 0.48705422569614076
0.3225531914893617 0.45458721254760914 0.48976063707130235
0.3227659574468085 0.4469514663529608 0.49260147808125854
0.3229787234042553 0.4463449721851254 0.5092062845645405
0.3231914893617021 0.4479726428920372 0.5253518770368983
0.32340425531914896 0.4455590371279713 0.539009099901127
0.32361702127659575 0.4415939782872975 0.5502128149631215
0.32382978723404254 0.441133365901319 0.5620286585503477
0.32404255319148934 0.44339190660886585 0.5664186235420374
0.3242553191489362 0.44145514116608325 0.5679339931714793
0.324468085106383 0.4420642869033446 0.5661944308744504
0.32468085106382977 0.4376011334463568 0.5658185050490023
0.3248936170212766 0.4392194837164211 0.5620922588956484
0.3251063829787234 0.436567381341722 0.5545475548226386
0.3253191489361702 0.43722520762090866 0.5453371160588315
0.325531914893617 0.4355485911682641 0.5420459043094463
0.32574468085106384 0.4356501702703178 0.5380792393323491
0.32595744680851063 0.4346554525163056 0.5344941704696221
0.3261702127659574 0.4352059461425577 0.5312165533651942
0.32638297872340427 0.4331608522173071 0.528167986202045
0.32659574468085106 0.42987956862125937 0.5303577518214356
0.32680851063829786 0.4315182322971431 0.5317241200964422
0.3270212765957447 0.4309734936527043 0.5286741024618326
0.3272340425531915 0.43178597613031944 0.5195448338261526
0.3274468085106383 0.4303859306301905 0.5099937150649134
0.3276595744680851 0.43339145302755466 0.4985554894762025
0.3278723404255319 0.43603768584428043 0.4792834109571086
0.3280851063829787 0.43140603269757116 0.4514645303654254
0.3282978723404255 0.43456822222540104 0.41902345394526974
0.32851063829787236 0.43624816805080613 0.3828794096577762
0.32872340425531915 0.4366129273232692 0.3539554121982186
0.32893617021276594 0.43767392451623155 0.34762707250787983
0.32914893617021274 0.43607602614074 0.35717890429515975
0.3293617021276596 0.4349434499494692 0.3792042262648222
0.3295744680851064 0.43604094816605243 0.408181321050098
0.32978723404255317 0.43624816805080613 0.4342216502698337
0.33 0.43706385767145756 0.4513609197924563
0.3302127659574468 0.4323688924267549 0.4690941692213862
0.3304255319148936 0.4382022471910112 0.4774659715520769
0.33063829787234045 0.43897451092066503 0.4718545640714677
0.33085106382978724 0.44066329585412595 0.46450851663234816
0.33106382978723403 0.441133365901319 0.45949290719645386
0.3312765957446808 0.4463539208604231 0.4502851029372002
0.33148936170212767 0.44276776654252187 0.4479726428920372
0.33170212765957446 0.4450615189982756 0.4469756085053882
0.33191489361702126 0.4473805960586393 0.4455548478306691
0.3321276595744681 0.45041860547185736 0.44944156590175477
0.3323404255319149 0.45479896406289505 0.4538219244927923
0.3325531914893617 0.45921157309452515 0.4582345335244225
0.3327659574468085 0.46296570636049633 0.457743038593063
0.33297872340425533 0.4655593551538837 0.4534352674747737
0.3331914893617021 0.4672278881289513 0.44270386980957643
0.3334042553191489 0.4722761578112109 0.43446555297734823
0.33361702127659576 0.4731828951223154 0.42609221916500206
0.33382978723404255 0.4725087636415338 0.4206127061487077
0.33404255319148934 0.47495722559885356 0.41242669311228786
0.3342553191489362 0.4714870472748517 0.4075891374836609
0.334468085106383 0.46987051291623944 0.4078531022483092
0.3346808510638298 0.47085211367740665 0.4057142989286986
0.33489361702127657 0.46898814303902825 0.4064393117728916
0.3351063829787234 0.46570743428241024 0.4060093010871347
0.3353191489361702 0.4656997441081522 0.4040058622374205
0.335531914893617 0.4677028346441448 0.4023012590869182
0.33574468085106385 0.4691095491944308 0.3927362047855399
0.33595744680851064 0.46743440529709906 0.38309597853525146
0.33617021276595743 0.4641548959819364 0.3704807342572994
0.3363829787234042 0.46258532060210844 0.35360797453717174
0.33659574468085107 0.46165119687347334 0.3358156469131061
0.33680851063829786 0.4544898392144324 0.3246254462535106
0.33702127659574466 0.45268850549784445 0.32011592740436245
0.3372340425531915 0.44812042670290697 0.32433196892161764
0.3374468085106383 0.44815049613858765 0.32841810884642025
0.3376595744680851 0.4452478787604745 0.33537937108968274
0.33787234042553194 0.44356250113682966 0.3480549696822003
0.33808510638297873 0.4449365378724264 0.3629109303490354
0.3382978723404255 0.45041887106917566 0.3742122041024283
0.3385106382978723 0.45273184170179154 0.3809039569212684
0.33872340425531916 0.45188595151405503 0.3941685120954979
0.33893617021276595 0.4585487050464971 0.39693639483143567
0.33914893617021274 0.4643466133289458 0.39474110159682657
0.3393617021276596 0.4628929621575631 0.39468305467852316
0.3395744680851064 0.46543011819946456 0.4004731414069448
0.3397872340425532 0.4629609562222131 0.4045973674385189
0.34 0.45800922418514545 0.410669733631684
0.3402127659574468 0.4594066439768845 0.4219490479793617
0.3404255319148936 0.46064759358668006 0.43019998461335524
0.3406382978723404 0.4611011788633504 0.4406146746729856
0.34085106382978725 0.45662315116532554 0.44629281175043084
0.34106382978723404 0.45936666475760535 0.45453874433463637
0.34127659574468083 0.4578145626986212 0.4634622278025621
0.3414893617021277 0.45503960909488533 0.4701630616287506
0.3417021276595745 0.45802132316116784 0.4761666336137145
0.34191489361702126 0.45805594754105977 0.4756426598029065
0.34212765957446806 0.456803874953082 0.48002556905481486
0.3423404255319149 0.4588812967412814 0.4824108557128015
0.3425531914893617 0.46027369407176033 0.48590107301915636
0.3427659574468085 0.45742777726396633 0.4896544552859455
0.34297872340425534 0.45481191988275516 0.4954133737672478
0.34319148936170213 0.45424555014369244 0.505263737590079
0.3434042553191489 0.45109273946283646 0.513347842725576
0.34361702127659577 0.445889157800466 0.5170033989218262
0.34382978723404256 0.44597064601567943 0.5173424523693209
0.34404255319148935 0.44668552802654643 0.5202735710796287
0.34425531914893615 0.4430874450415241 0.5204757204653125
0.344468085106383 0.4430874450415241 0.5201933950174917
0.3446808510638298 0.4430874450415241 0.5166190180646326
0.3448936170212766 0.44592817017121567 0.5201530463054737
0.3451063829787234 0.44554049132625223 0.5153200771683187
0.3453191489361702 0.43952254271708907 0.5152694735489515
0.345531914893617 0.441133365901319 0.5204178231932047
0.3457446808510638 0.44152574558227287 0.5259513475566134
0.34595744680851065 0.4400875113851096 0.5310554138238106
0.34617021276595744 0.4375836485243523 0.5344724405874957
0.34638297872340423 0.4394265554684459 0.541776465128036
0.3465957446808511 0.43845771612122825 0.545421130972079
0.3468085106382979 0.43723784150896705 0.5476054112663844
0.34702127659574467 0.4389664775521597 0.550455393148332
0.3472340425531915 0.43744907233848157 0.5484654345948418
0.3474468085106383 0.43786285771094857 0.5440207813720681
0.3476595744680851 0.43722520762090866 0.5391163846161906
0.3478723404255319 0.4366560198262349 0.5332216012471462
0.34808510638297874 0.43830948463503383 0.5299367293366319
0.34829787234042553 0.43917928676111373 0.5274526153226299
0.3485106382978723 0.43917928676111373 0.518762099199192
0.34872340425531917 0.4382717049032181 0.5087574693750184
0.34893617021276596 0.4393650182154653 0.5105515576769477
0.34914893617021275 0.4395399356670297 0.5044376497735389
0.34936170212765955 0.4382022471910112 0.4984617750633289
0.3495744680851064 0.44320992074830917 0.49793743774323285
0.3497872340425532 0.4429609219513206 0.4994511474324741
0.35 0.438762111621896 0.49975574010747437
0.3502127659574468 0.4418558120967108 0.49610217520177474
0.3504255319148936 0.43935383789585714 0.49170668870032913
0.3506382978723404 0.4435774504967053 0.48766450400992234
0.35085106382978726 0.44840614046863175 0.4848607208751496
0.35106382978723405 0.4446159888174826 0.4783392095674063
0.35127659574468084 0.44406448461162684 0.46790502300314835
0.35148936170212763 0.4454056937794042 0.46092285767812374
0.3517021276595745 0.44681446911298933 0.45810530701095326
0.3519148936170213 0.44699560332193444 0.4540626966528962
0.35212765957446807 0.44978969010104464 0.45237822898335844
0.3523404255319149 0.44739626787972764 0.44467368872310964
0.3525531914893617 0.44661558646689625 0.43760522447594685
0.3527659574468085 0.45031803230708195 0.43194622726156257
0.3529787234042553 0.4509037616023448 0.42271573653001193
0.35319148936170214 0.45199972676164907 0.412442441600739
0.35340425531914893 0.45616921383942294 0.40589445194178864
0.3536170212765957 0.45696495713631646 0.393112721842969
0.35382978723404257 0.45587110286369675 0.38048345050408305
0.35404255319148936 0.45865673248147887 0.37456798377096967
0.35425531914893615 0.45661809229520073 0.36960326303185476
0.354468085106383 0.45738633384536453 0.364035116554783
0.3546808510638298 0.46126385573074996 0.3692024054298625
0.3548936170212766 0.4591497805021904 0.3747730983957115
0.3551063829787234 0.4571178720202228 0.37852425399306877
0.3553191489361702 0.45825295122195736 0.38404072958184693
0.355531914893617 0.4595829536918457 0.39148223910623153
0.3557446808510638 0.4606603821787175 0.391283685139107
0.35595744680851066 0.45884660065774197 0.38875279659950845
0.35617021276595745 0.46213772111588447 0.3930127701939183
0.35638297872340424 0.4687385318505738 0.3952276984819239
0.35659574468085103 0.4665399852749761 0.38838041021775876
0.3568085106382979 0.46616280460132214 0.38460880163325845
0.3570212765957447 0.46797701416384446 0.3806067923855499
0.35723404255319147 0.4668125933127288 0.37790199243339334
0.3574468085106383 0.4607738370799341 0.36321939973452017
0.3576595744680851 0.46566443693657306 0.3575595935291522
0.3578723404255319 0.4669821851182279 0.3523082238036026
0.35808510638297875 0.46814842517918887 0.3475814028866621
0.35829787234042554 0.470260058532422 0.34669530199310683
0.35851063829787233 0.4710934397226648 0.3475799723176459
0.3587234042553191 0.46946751343429405 0.35111135002694427
0.35893617021276597 0.46946751343429405 0.35637017914937064
0.35914893617021276 0.4667387371164741 0.35983673919031617
0.35936170212765955 0.4684904738641915 0.37217246637242224
0.3595744680851064 0.4684904738641915 0.3800893531048038
0.3597872340425532 0.4696501294583774 0.3851202167820819
0.36 0.46786596401592473 0.39336465152094013
0.3602127659574468 0.462722311246839 0.4015451175434279
0.3604255319148936 0.4629461305764829 0.4125513957495822
0.3606382978723404 0.4680983155429673 0.423544735792068
0.3608510638297872 0.46433426724256366 0.4340561430992283
0.36106382978723406 0.45975508158506984 0.44200896873076884
0.36127659574468085 0.4603598971290796 0.44546053774745104
0.36148936170212764 0.4595231325449329 0.45184233513392835
0.3617021276595745 0.46251387045976444 0.46300474562641525
0.3619148936170213 0.45585614863021523 0.4669241307430015
0.3621276595744681 0.4565324777481337 0.47135807030648896
0.36234042553191487 0.4570514507169797 0.4733756717147044
0.3625531914893617 0.45352925296366753 0.474994044744351
0.3627659574468085 0.45843918668082334 0.48091109679318295
0.3629787234042553 0.4545950553594541 0.4936393448610931
0.36319148936170215 0.4507225998418506 0.5044241608136776
0.36340425531914894 0.4460185637518319 0.5145799877058574
0.36361702127659573 0.4460185637518319 0.5259751056499449
0.3638297872340425 0.443819611849615 0.5363959497252936
0.36404255319148937 0.440107506364184 0.5451554267676473
0.36425531914893616 0.4407568100124345 0.5539407720477839
0.36446808510638296 0.441133365901319 0.5581632260864182
0.3646808510638298 0.44225181893204063 0.5642403517342451
0.3648936170212766 0.4446673009255478 0.5641156106488513
0.3651063829787234 0.44187992263041154 0.5628023464821226
0.36531914893617023 0.4418301474403338 0.561657623793445
0.365531914893617 0.44215058495446874 0.5585388322458185
0.3657446808510638 0.4393614564244188 0.5521074100640191
0.3659574468085106 0.43891491236521135 0.5477111370560082
0.36617021276595746 0.43917928676111373 0.5449883151447712
0.36638297872340425 0.43917928676111373 0.5427950491375912
0.36659574468085104 0.4380155813211818 0.5420484404266299
0.3668085106382979 0.43667340277762984 0.5444869429687815
0.3670212765957447 0.43853608201658545 0.5447240252388136
0.3672340425531915 0.4396296121948882 0.5448523377373009
0.36744680851063827 0.4412899085768734 0.5433122723148167
0.3676595744680851 0.4427936948046959 0.545772388761914
0.3678723404255319 0.44388923584412976 0.5466536394723986
0.3680851063829787 0.4422203386521515 0.5411212015939728
0.36829787234042555 0.4425164827845386 0.5376572446849169
0.36851063829787234 0.446660818400779 0.5339921471374117
0.36872340425531913 0.44052013232111403 0.5291241164103472
0.368936170212766 0.43998763545781494 0.5250919763285941
0.36914893617021277 0.4406393051374507 0.522227650219834
0.36936170212765956 0.43831403612851655 0.5197712632829008
0.36957446808510636 0.43796020589092816 0.5109695092392279
0.3697872340425532 0.44076926753050405 0.5008480352199193
0.37 0.4401562747257972 0.487053864458206
0.3702127659574468 0.4386849154872375 0.47132433145574265
0.37042553191489364 0.4428299290553029 0.45556679304982495
0.3706382978723404 0.44576580648668535 0.4460865427327993
0.3708510638297872 0.44651026124815224 0.4299387210916367
0.371063829787234 0.4472390231876641 0.41927504561405987
0.37127659574468086 0.44428980504098264 0.41081483608706726
0.37148936170212765 0.4465291304188652 0.40889106008793363
0.37170212765957444 0.4499407639443813 0.4069299599916588
0.3719148936170213 0.45188080117244755 0.4059599413776258
0.3721276595744681 0.4528863611601593 0.40646272137148165
0.3723404255319149 0.4535288028326408 0.40490047835754145
0.3725531914893617 0.4489269010007314 0.40009770395701016
0.3727659574468085 0.45106058371416574 0.3988625276281588
0.3729787234042553 0.4521279888831128 0.39157495808186926
0.3731914893617021 0.45526137744317247 0.38258911614443203
0.37340425531914895 0.4577181513897628 0.3786401642197036
0.37361702127659574 0.45969711773326827 0.3754631735744491
0.37382978723404253 0.460355815826242 0.3739372015952317
0.3740425531914894 0.46262823644357587 0.3763769572954991
0.37425531914893617 0.4617203068354882 0.37957987298485585
0.37446808510638296 0.461820773892121 0.3830197227511067
0.37468085106382976 0.4640075454361832 0.3895800373832933
0.3748936170212766 0.46377737323622 0.39371917486877056
0.3751063829787234 0.4636052760136786 0.4043525245194596
0.3753191489361702 0.46354558886581393 0.40803339481356027
0.37553191489361704 0.4624505924974179 0.40951281176572013
0.37574468085106383 0.4622450949881421 0.4079140205178309
0.3759574468085106 0.4644379470997828 0.4079140205178309
0.37617021276595747 0.4623533261319512 0.4073796823475088
0.37638297872340426 0.4610035236561401 0.4056305750248565
0.37659574468085105 0.46473644297782046 0.4026689672292629
0.37680851063829784 0.47176790048057005 0.40205178309721545
0.3770212765957447 0.461782812150161 0.39426837035556667
0.3772340425531915 0.46539587694415707 0.39504902789677065
0.3774468085106383 0.4660760707501291 0.39423546653639474
0.3776595744680851 0.4690335945026346 0.39423546653639474
0.3778723404255319 0.47020466158994495 0.39480686244497915
0.3780851063829787 0.4749701896135698 0.3980513837377537
0.37829787234042556 0.4796927378087929 0.3974276906950174
0.37851063829787235 0.47825391538651096 0.39821316660386835
0.37872340425531914 0.47769485849178944 0.4072289730233731
0.37893617021276593 0.48048762775063253 0.40193810648647804
0.3791489361702128 0.4811919882755251 0.39665752192300346
0.3793617021276596 0.4790037876750842 0.3910702263658513
0.37957446808510636 0.47591838661676295 0.38730210361835393
0.3797872340425532 0.4753297508549097 0.3724684546385992
0.38 0.47628824816015375 0.36022450423138885
0.3802127659574468 0.47239863214460187 0.35015147494663357
0.3804255319148936 0.4716474283085262 0.35054365270513504
0.38063829787234044 0.46908259123418283 0.3595657549637457
0.38085106382978723 0.46755374401532135 0.37488087201015063
0.381063829787234 0.464934700860686 0.39105335896609855
0.38127659574468087 0.4603630826122058 0.4078702050212231
0.38148936170212766 0.4587200781631655 0.42583741354605653
0.38170212765957445 0.4587200781631655 0.43560313129761263
0.3819148936170213 0.455764431834194 0.4423802092767245
0.3821276595744681 0.4539606930340006 0.4534253253083865
0.3823404255319149 0.44842332877572033 0.4580818832390089
0.3825531914893617 0.4458361227431216 0.4628106774522862
0.3827659574468085 0.4420241741968931 0.4681528588095652
0.3829787234042553 0.4388879731916465 0.48093424112127325
0.3831914893617021 0.44122993995231813 0.497431033980939
0.38340425531914896 0.436856340478508 0.5094895546657664
0.38361702127659575 0.43718662389902574 0.5184738268269552
0.38382978723404254 0.4356916748467284 0.5275376297203277
0.38404255319148933 0.4392379604130574 0.5372008457288279
0.3842553191489362 0.4424897881589372 0.5430676981768771
0.384468085106383 0.44258679255532907 0.5501582068757639
0.38468085106382977 0.44707417558266993 0.557215744046553
0.3848936170212766 0.4478054289105408 0.560062251590966
0.3851063829787234 0.44455429258401513 0.5570771124699422
0.3853191489361702 0.44778615904859764 0.5647978026566088
0.38553191489361704 0.4449755387362757 0.5673034413354603
0.38574468085106384 0.4438784146627366 0.5687534096869779
0.38595744680851063 0.4430874450415241 0.566867684546215
0.3861702127659574 0.4426624044243574 0.5649193090229503
0.38638297872340427 0.4399440506439791 0.5605553686298396
0.38659574468085106 0.4382022471910112 0.5596913445556034
0.38680851063829785 0.437425270782453 0.5580012642281602
0.3870212765957447 0.4327442618092421 0.5565048855811937
0.3872340425531915 0.4351982129991256 0.5632997699049315
0.3874468085106383 0.4331634376128356 0.5642403517342451
0.3876595744680851 0.4323400097703958 0.5639695927695891
0.3878723404255319 0.43664751836571775 0.5613053537117235
0.3880851063829787 0.43797153838470015 0.5542853889881705
0.3882978723404255 0.4333170493404983 0.5429912908551927
0.38851063829787236 0.4363130479523715 0.5350923246467365
0.38872340425531915 0.4389568564896087 0.5287571784549646
0.38893617021276594 0.4304385140847399 0.5211980271951818
0.3891489361702128 0.43722520762090866 0.513540523754186
0.3893617021276596 0.43722520762090866 0.5053438275376773
0.3895744680851064 0.43759415641836924 0.49656500775260826
0.38978723404255317 0.43525010458278013 0.4845520590601013
0.39 0.4384998341403988 0.4707629484920095
0.3902127659574468 0.43916666888117667 0.46383376355628275
0.3904255319148936 0.44077493809598944 0.46005554553859784
0.39063829787234045 0.4411523825117955 0.4577240219825865
0.39085106382978724 0.44699560332193444 0.4517573166322961
0.39106382978723403 0.44746823497311256 0.4497221824743996
0.3912765957446808 0.44752606804337647 0.44423904572837786
0.39148936170212767 0.4450415241817294 0.4396976327840192
0.39170212765957446 0.4468471677985797 0.43519284116292745
0.39191489361702125 0.45304616313711105 0.42606916327610683
0.3921276595744681 0.448032418899752 0.41507227741071845
0.3923404255319149 0.448934820063796 0.39923213237448557
0.3925531914893617 0.4482063732522184 0.3858443132831639
0.39276595744680853 0.45087401362297874 0.3548289778337535
0.3929787234042553 0.45418340619088216 0.3312251675977268
0.3931914893617021 0.4562131500988501 0.31475684289750466
0.3934042553191489 0.4571547930995508 0.3117753485711869
0.39361702127659576 0.46102403375592227 0.31500283246975186
0.39382978723404255 0.4593074612920282 0.3235440450191698
0.39404255319148934 0.4615714087700859 0.33627097948679224
0.3942553191489362 0.4625325203627175 0.3509386984477865
0.394468085106383 0.46165119687347334 0.358822967184444
0.3946808510638298 0.46064335202338497 0.3686197105503075
0.39489361702127657 0.45917988836253526 0.37981000649877245
0.3951063829787234 0.45969711773326827 0.38679761605393237
0.3953191489361702 0.45899386905692174 0.38766998043943274
0.395531914893617 0.4578969892956867 0.3849269229432398
0.39574468085106385 0.458685236659 0.38446507083536874
0.39595744680851064 0.4630715031043308 0.38135664546075915
0.39617021276595743 0.46623529406384034 0.3808580132151045
0.3963829787234043 0.4619886801561716 0.3864545602535664
0.39659574468085107 0.4653767846126389 0.3888313204772897
0.39680851063829786 0.470220484386307 0.39050360903395875
0.39702127659574465 0.4672494924656221 0.3899136477897946
0.3972340425531915 0.4647435251625483 0.38935026868588185
0.3974468085106383 0.46645389222571654 0.38841448036491394
0.3976595744680851 0.4660515362942332 0.3862575304989897
0.39787234042553193 0.46087806484431054 0.38487288591724833
0.3980851063829787 0.4642463168096231 0.3903118298797987
0.3982978723404255 0.46723891913648585 0.3985893436763667
0.3985106382978723 0.4623191300468491 0.39855486800267464
0.39872340425531916 0.4647791369007066 0.40361693094658624
0.39893617021276595 0.465734570172216 0.4043562922740852
0.39914893617021274 0.46647778083101654 0.40859799062308527
0.3993617021276596 0.46893321278209454 0.4010747435271129
0.3995744680851064 0.4619095674943325 0.40178069220766244
0.3997872340425532 0.4678101919162066 0.4052796594296409
0.4 0.4676515172302714 0.40721837632850594
0.4002127659574468 0.46599286455098166 0.4126957712989657
0.4004255319148936 0.4628836666815669 0.4204127919052061
0.4006382978723404 0.4600634215185881 0.42733294013402584
0.40085106382978725 0.4588237984712554 0.4380383633721254
0.40106382978723404 0.45771454124814526 0.4479954407679714
0.40127659574468083 0.4534768019904082 0.45311872366816375
0.4014893617021277 0.4570116439176097 0.463357784449531
0.40170212765957447 0.45409170276816985 0.4706511252079475
0.40191489361702126 0.4533393762662457 0.4806126730928504
0.40212765957446805 0.4526287223077751 0.48705422569614076
0.4023404255319149 0.4504326788580191 0.49067453148221163
0.4025531914893617 0.45580841148535434 0.4953003889484319
0.4027659574468085 0.4500686353484408 0.5044584779800176
0.40297872340425533 0.45049841472025026 0.517581453445502
0.4031914893617021 0.4465552592637729 0.5280898876404494
0.4034042553191489 0.44402230296747147 0.5304680704737179
0.40361702127659577 0.4425697867788839 0.5372260711684794
0.40382978723404256 0.4454147924414745 0.5409780361816557
0.40404255319148935 0.44488057875693954 0.543178457998549
0.40425531914893614 0.440761895950282 0.5428968735967546
0.404468085106383 0.44110364164828453 0.5455874271431925
0.4046808510638298 0.44104205669306024 0.540791402051783
0.4048936170212766 0.43995392066413924 0.5385649397139336
0.4051063829787234 0.43946657578520165 0.5288948106843033
0.4053191489361702 0.439337142047241 0.523678255648318
0.405531914893617 0.43767089629487543 0.5181481674950854
0.4057446808510638 0.43526834249625407 0.5150608360494487
0.40595744680851065 0.4373847346512817 0.5151839950941834
0.40617021276595744 0.4355194642442705 0.5153883732291158
0.40638297872340423 0.43628939953437046 0.5115626779158341
0.4065957446808511 0.4368877585583633 0.5139404676827285
0.40680851063829787 0.43408536376675033 0.5163654127992183
0.40702127659574466 0.4326296435904161 0.5146765149457209
0.4072340425531915 0.43429408891060084 0.5157418216184176
0.4074468085106383 0.43563842423759114 0.5142864859584529
0.4076595744680851 0.43624816805080613 0.5132550013724576
0.4078723404255319 0.43624816805080613 0.5152839146898849
0.40808510638297874 0.4340716726243304 0.5096002745705903
0.4082978723404255 0.4319585860509815 0.5099075595279144
0.4085106382978723 0.4346146668958289 0.5082132126387512
0.40872340425531917 0.4357130189519882 0.5108518072223546
0.40893617021276596 0.4368086851746906 0.5135782887665772
0.40914893617021275 0.43381537441251006 0.5137293670173334
0.40936170212765954 0.43395760772044967 0.5118166961388566
0.4095744680851064 0.4361645834448582 0.512415462215834
0.4097872340425532 0.43934430994465185 0.5073245218929879
0.41 0.441133365901319 0.5031821271364597
0.4102127659574468 0.44280212747163455 0.49479789014070114
0.4104255319148936 0.44647802007328347 0.4848731979432817
0.4106382978723404 0.4475815449116635 0.474355532808133
0.41085106382978726 0.4479726428920372 0.4639940069079836
0.41106382978723405 0.4462790516092976 0.45572362738388505
0.41127659574468084 0.4460185637518319 0.4450837213229015
0.41148936170212763 0.4496771686286208 0.44050948239226523
0.4117021276595745 0.4479726428920372 0.4349845032369671
0.41191489361702127 0.4479726428920372 0.43021480851549104
0.41212765957446806 0.44899567393611833 0.42945488253406655
0.4123404255319149 0.44992672203224227 0.42910375270785456
0.4125531914893617 0.44992672203224227 0.42612496477920764
0.4127659574468085 0.45167640907788853 0.42375104573403133
0.4129787234042553 0.4547903226400062 0.41469570486121854
0.41319148936170214 0.4527876593177527 0.4064187762932682
0.41340425531914893 0.45846761696716953 0.403028822667318
0.4136170212765957 0.4573688492696894 0.40415139063743877
0.41382978723404257 0.45676599902296044 0.40546615405652425
0.41404255319148936 0.4579911886572686 0.40620809144183145
0.41425531914893615 0.4587200781631655 0.40840952032986405
0.414468085106383 0.46130641958280855 0.4114774015075765
0.4146808510638298 0.4616738446927356 0.4118448266175035
0.4148936170212766 0.46347166547450075 0.4143107000951579
0.4151063829787234 0.46262823644357587 0.41820586463179416
0.4153191489361702 0.46262823644357587 0.4207961702744431
0.415531914893617 0.4646640598322668 0.4235875257637153
0.4157446808510638 0.46527229879046417 0.42452369320957506
0.41595744680851066 0.46684493382887504 0.4222610749644812
0.41617021276595745 0.4683924033443253 0.41807669829832167
0.41638297872340424 0.4665625774243366 0.41451765320539574
0.4165957446808511 0.4673644853673242 0.4065557370846848
0.4168085106382979 0.4670456391995335 0.408594988469168
0.41702127659574467 0.4701051543008776 0.4049829018075233
0.41723404255319146 0.4724921498832713 0.40586642363895636
0.4174468085106383 0.47142159257449934 0.40580937810564255
0.4176595744680851 0.4707339573256762 0.40360763130987715
0.4178723404255319 0.4712528971028116 0.4006037903720734
0.41808510638297874 0.46864260636022687 0.3963923890046469
0.41829787234042554 0.46541987487718844 0.3907464267193059
0.41851063829787233 0.46398713291045857 0.38310617436848626
0.4187234042553191 0.46524824509049884 0.38340061250537033
0.41893617021276597 0.46415098269983684 0.38351419359017774
0.41914893617021276 0.4636052760136786 0.37475378256439157
0.41936170212765955 0.4649443765674522 0.3684158050396011
0.4195744680851064 0.4631891465579574 0.35976773278574364
0.4197872340425532 0.4635390646839141 0.35079837651989426
0.42 0.4597501057045179 0.3446184003461612
0.42021276595744683 0.45980565700688947 0.3498779072752394
0.4204255319148936 0.45520019439626375 0.3588742580422786
0.4206382978723404 0.4530006288137496 0.36964421228433675
0.4208510638297872 0.45080289301950377 0.3823755119500564
0.42106382978723406 0.45058470774243664 0.3933379389278048
0.42127659574468085 0.4501251622464722 0.40339538009368353
0.42148936170212764 0.4508292861618007 0.4094957224553156
0.4217021276595745 0.4507489234454856 0.4178908670946691
0.4219148936170213 0.44814604748177195 0.42384683416581936
0.4221276595744681 0.449540237423684 0.4375421411990944
0.42234042553191486 0.4509037616023448 0.44962308715398336
0.4225531914893617 0.45139589421616216 0.46169455081866523
0.4227659574468085 0.45074724645329145 0.47658187204733715
0.4229787234042553 0.4506157369318421 0.49348129090972853
0.42319148936170214 0.4500998817197142 0.5130753787372514
0.42340425531914894 0.4480825932735986 0.5237419278337933
0.42361702127659573 0.4463503869804044 0.5364371213669861
0.4238297872340426 0.44997393705104083 0.5446523453133948
0.42404255319148937 0.4460185637518319 0.5518127261756445
0.42425531914893616 0.4468292212163545 0.5616832892280391
0.42446808510638295 0.4484371711594346 0.5664986695611106
0.4246808510638298 0.4461188864629423 0.5701025891548608
0.4248936170212766 0.44544458596509456 0.5711376651699616
0.4251063829787234 0.4479726428920372 0.5748015699552054
0.42531914893617023 0.44764770730793196 0.5743446142905243
0.425531914893617 0.44699560332193444 0.566011876421359
0.4257446808510638 0.4459297479844868 0.5619842857592054
0.4259574468085106 0.44223014858170995 0.5572813316332388
0.42617021276595746 0.44401867787354937 0.5554928023413994
0.42638297872340425 0.4413297885886599 0.550561797752809
0.42659574468085104 0.443695094011006 0.5500077118518778
0.4268085106382979 0.44211040547142155 0.5476306790425012
0.4270212765957447 0.4408638239189788 0.5447219887534682
0.4272340425531915 0.4397133516637091 0.5375870126362111
0.4274468085106383 0.44144483694082365 0.5310636328023458
0.4276595744680851 0.44211040547142155 0.5222287321864871
0.4278723404255319 0.4385934726268693 0.5149981718128005
0.4280851063829787 0.43826460911125303 0.509442986581511
0.42829787234042555 0.4412754987648352 0.5046230474834767
0.42851063829787234 0.4418463117408362 0.497458231884445
0.42872340425531913 0.44265111553498104 0.4923757530531967
0.428936170212766 0.4440733942191712 0.4890172144438903
0.42914893617021277 0.44368311220847445 0.47969192492893975
0.42936170212765956 0.44048295069845794 0.4686222570237369
0.42957446808510635 0.4458851251239363 0.45899232656581085
0.4297872340425532 0.44313678498151643 0.448095992742018
0.43 0.4430874450415241 0.44208831744399396
0.4302127659574468 0.4430874450415241 0.4312609992044015
0.43042553191489363 0.44379475427727505 0.4187633375562636
0.4306382978723404 0.44552013245090333 0.4051613090933152
0.4308510638297872 0.4430038263748442 0.38955712344722687
0.43106382978723407 0.4433142462629714 0.38398819016436986
0.43127659574468086 0.44406448461162684 0.3851886489807331
0.43148936170212765 0.44211331064712567 0.3932468062634757
0.43170212765957444 0.44406448461162684 0.40508931755814537
0.4319148936170213 0.44357837241020476 0.41474366717403227
0.4321276595744681 0.44137955000015566 0.4235389568142285
0.4323404255319149 0.4391738061981234 0.4289231115565319
0.4325531914893617 0.436350493464729 0.42940889106008795
0.4327659574468085 0.4338003413341719 0.4264673167670249
0.4329787234042553 0.4333170493404983 0.4246602275281898
0.4331914893617021 0.43712913868009595 0.4149934698605808
0.43340425531914895 0.4402502140562168 0.4074445818928295
0.43361702127659574 0.4404895215223073 0.4021703634953024
0.43382978723404253 0.44154939797564396 0.39878594930844435
0.4340425531914894 0.4479726428920372 0.3967805301892511
0.43425531914893617 0.4473995231846586 0.3923469075696049
0.43446808510638296 0.4476892314054764 0.39240819250660997
0.4346808510638298 0.45204168853625165 0.39244461783744916
0.4348936170212766 0.4547239990589738 0.39228138739618945
0.4351063829787234 0.4577161198977633 0.3980897874262057
0.4353191489361702 0.45318229931512494 0.39651400424917466
0.43553191489361703 0.45647177681398915 0.3998034817480389
0.4357446808510638 0.4587200781631655 0.4017013927378436
0.4359574468085106 0.45635767697512786 0.4029646644775431
0.43617021276595747 0.45917410031155853 0.4043896551409781
0.43638297872340426 0.46120091417023545 0.4004375565540694
0.43659574468085105 0.4615063117992749 0.3924634284196743
0.43680851063829784 0.457839027798428 0.38939826328856436
0.4370212765957447 0.46262823644357587 0.39237342713957646
0.4372340425531915 0.4617652769274249 0.3945528662405186
0.4374468085106383 0.46007580374475204 0.39912066438690763
0.4376595744680851 0.4644824077210476 0.3981935787481718
0.4378723404255319 0.46477703249290026 0.400098855631846
0.4380851063829787 0.4664362552633715 0.40205178309721545
0.43829787234042555 0.46668424120594865 0.40288097618535557
0.43851063829787235 0.46559045009723166 0.4087044904278458
0.43872340425531914 0.4669809787904815 0.4112888521478116
0.43893617021276593 0.46268736749565814 0.41614480532752557
0.4391489361702128 0.4665363947239862 0.4186601476106327
0.43936170212765957 0.47050616517625937 0.41973336371754844
0.43957446808510636 0.4719895598315792 0.42255834531617825
