0.0 0.4479726428920372 0.44211040547142155
0.0002127659574468085 0.44962405422537327 0.4435783266566092
0.000425531914893617 0.45127546555870934 0.4450462478417968
0.0006382978723404255 0.4529268768920454 0.44651416902698443
0.000851063829787234 0.4545782882253815 0.44798209021217206
0.0010638297872340426 0.45622969955871756 0.4494500113973597
0.001276595744680851 0.45676599902296044 0.4526696829629282
0.0014893617021276596 0.45828713080620986 0.4561165779875269
0.001702127659574468 0.4630219995457772 0.4524640776403489
0.0019148936170212765 0.45976497749215534 0.4451602787597818
0.002127659574468085 0.46369458111086426 0.43908466516498906
0.002340425531914894 0.4643842896637204 0.4284318514899854
0.002553191489361702 0.4632971959119104 0.42658337087937626
0.0027659574468085106 0.46304615064127924 0.4234054424647764
0.0029787234042553193 0.46463649790450384 0.4265861369912256
0.0031914893617021275 0.46433690707689645 0.427209403412998
0.003404255319148936 0.4636052760136786 0.4257602644500392
0.003617021276595745 0.4602758941825983 0.43299184189960827
0.003829787234042553 0.45969711773326827 0.4324177567627031
0.004042553191489362 0.4587200781631655 0.4388767418916568
0.00425531914893617 0.4587200781631655 0.43131430134000026
0.004468085106382979 0.4579412594052017 0.4244623077690591
0.004680851063829788 0.4572716611614328 0.42085122364497973
0.004893617021276595 0.459211021323161 0.41963849535906195
0.005106382978723404 0.4587200781631655 0.4148079116753997
0.005319148936170213 0.4608862096804308 0.41182217879824123
0.005531914893617021 0.4608154069572667 0.40513585946858777
0.00574468085106383 0.4634779088631436 0.403071278384163
0.005957446808510639 0.46070544206936814 0.4040267187480854
0.006170212765957446 0.4665363947239862 0.4079168403441335
0.006382978723404255 0.4665363947239862 0.40839422671507875
0.006595744680851064 0.4665363947239862 0.408871613086024
0.006808510638297872 0.4659244466903585 0.4101149561551891
0.007021276595744681 0.4643912477107597 0.4105531123673577
0.00723404255319149 0.46166009823712634 0.40987032499894943
0.007446808510638298 0.4612234767603268 0.3976780764333591
0.007659574468085106 0.46079435806332053 0.38544819356867943
0.007872340425531916 0.46036523936631424 0.3732183107039997
0.008085106382978723 0.45993612066930795 0.36098842783932
0.008297872340425531 0.45969711773326827 0.352310131643567
0.00851063829787234 0.45969711773326827 0.348096692212751
0.008723404255319148 0.45969711773326827 0.3438832527819351
0.008936170212765958 0.45931284022517377 0.3418922988586823
0.009148936170212766 0.45888217421661515 0.34016963482444806
0.009361702127659575 0.45694001983477084 0.3413013089390444
0.009574468085106383 0.45481191988275516 0.34593545508334944
0.00978723404255319 0.45481191988275516 0.3567860153933193
0.01 0.45481191988275516 0.3724613408328116
0.010212765957446808 0.45481191988275516 0.38350947059654367
0.010425531914893617 0.46033372090152597 0.4010304738916812
0.010638297872340425 0.46023966785339865 0.41839242749823335
0.010851063829787235 0.46233201716697403 0.4373798756664277
0.011063829787234043 0.4638713322721959 0.4602939163811821
0.01127659574468085 0.4642732136137513 0.4848086782160631
0.01148936170212766 0.46435786141428725 0.504281147353993
0.011702127659574468 0.46338562004995476 0.5069548111059072
0.011914893617021277 0.4624133786856223 0.5096284748578216
0.012127659574468085 0.4614411373212899 0.5123021386097358
0.012340425531914893 0.4597670847747116 0.5160440642105998
0.012553191489361702 0.4554205611829339 0.5232046897899365
0.01276595744680851 0.4506224676056861 0.523673513117701
0.01297872340425532 0.44758578639761093 0.5282188398052582
0.013191489361702127 0.4444475857657989 0.5287275338300202
0.013404255319148937 0.4385075778573926 0.5253332435966452
0.013617021276595745 0.43733888582359504 0.5173885166233958
0.013829787234042552 0.4327123225317761 0.5136576817457387
0.014042553191489362 0.4323400097703958 0.5077074154170189
0.01425531914893617 0.4303424147837396 0.5067255646375451
0.01446808510638298 0.42962182119785103 0.5096326008773817
0.014680851063829787 0.4318094131923624 0.5102055467172233
0.014893617021276596 0.4352796124187737 0.5081548868351284
0.015106382978723404 0.4389318784102489 0.5070898337999222
0.015319148936170212 0.44001617994267717 0.5088514183636752
0.015531914893617021 0.44511489220684414 0.5102264075386451
0.01574468085106383 0.44699560332193444 0.5134882142644218
0.015957446808510637 0.44351310771672864 0.5152045809308163
0.016170212765957447 0.4388607352463248 0.5163974903378216
0.016382978723404256 0.4409622784689206 0.5234365784263901
0.016595744680851062 0.4416495045979023 0.5265414715506994
0.01680851063829787 0.440154585832713 0.5295580577433583
0.01702127659574468 0.43770811461880466 0.5305306156366542
0.01723404255319149 0.434776762077738 0.5310249040960333
0.017446808510638297 0.4323021596173543 0.5284459318898559
0.017659574468085106 0.4301352423360612 0.5231125558230885
0.017872340425531916 0.42895630456057576 0.5228958364325805
0.018085106382978722 0.429514225932232 0.5300439667806547
0.01829787234042553 0.4277856756054625 0.5313674215229737
0.01851063829787234 0.42992659362447394 0.5346994961283092
0.01872340425531915 0.4323400097703958 0.535484595480032
0.018936170212765956 0.43375490314716625 0.5297412222496755
0.019148936170212766 0.43579903158470523 0.5088725393439882
0.019361702127659575 0.4374144955572894 0.48185165174926375
0.01957446808510638 0.4405739407632789 0.45579677713872824
0.01978723404255319 0.44211040547142155 0.42823439466450974
0.02 0.443337434076355 0.40761819834455915
0.02021276595744681 0.44342628215096985 0.3953309213812011
0.020425531914893616 0.44237373432923527 0.38728541241016745
0.020638297872340425 0.44211040547142155 0.38625142441259813
0.020851063829787235 0.4438712948515055 0.39082137342578355
0.02106382978723404 0.44312778103344047 0.3987979764515764
0.02127659574468085 0.4449588081569626 0.4020931411095989
0.02148936170212766 0.44136519648349626 0.4040831390981463
0.02170212765957447 0.444651836477469 0.405452783300197
0.021914893617021276 0.44938832566778864 0.4080137736766358
0.022127659574468085 0.45267104964740995 0.4022385741923556
0.022340425531914895 0.45504123281644937 0.39986839102331617
0.0225531914893617 0.45343810101545967 0.40205178309721545
0.02276595744680851 0.4560835428901329 0.40554874636750426
0.02297872340425532 0.4590472120460892 0.41476202166588605
0.023191489361702126 0.4589415933122091 0.42017250463107775
0.023404255319148935 0.45859569448415316 0.42598023763373033
0.023617021276595745 0.45969711773326827 0.43223528213092427
0.023829787234042554 0.46119836518122564 0.43879783125447325
0.02404255319148936 0.46209567215054403 0.4430874450415241
0.02425531914893617 0.4610871880333626 0.445343480401967
0.02446808510638298 0.4606741573033708 0.4434236369232006
0.024680851063829785 0.4594189154909898 0.441133365901319
0.024893617021276595 0.4640719216661357 0.43778846371196267
0.025106382978723404 0.46582513743535053 0.43126936703035607
0.025319148936170214 0.46326552589387604 0.41870435451338567
0.02553191489361702 0.46687385518923175 0.40893734708560237
0.02574468085106383 0.46936761322221776 0.4023514837334443
0.02595744680851064 0.4714377912179304 0.3902787123256912
0.026170212765957445 0.4723341999026401 0.3875894862715619
0.026382978723404255 0.47239863214460187 0.3855100796875204
0.026595744680851064 0.47235146102844 0.3836295446137518
0.026808510638297874 0.4712903208462838 0.38641914997557403
0.02702127659574468 0.4708117236271595 0.3873370765324813
0.02723404255319149 0.47292356356805626 0.3920917449612686
0.0274468085106383 0.47435271128480694 0.3932020428144616
0.027659574468085105 0.4762398967314806 0.3920592220047564
0.027872340425531914 0.47786728636579767 0.395085923992322
0.028085106382978724 0.47445312711287324 0.39963813632955447
0.028297872340425533 0.47421146840499295 0.40400003194312256
0.02851063829787234 0.4749062565453336 0.408337514827407
0.02872340425531915 0.4704445530043966 0.4137321939537565
0.02893617021276596 0.4709620562303725 0.4221680446070924
0.029148936170212764 0.47248039491679156 0.430662278577166
0.029361702127659574 0.4682664546006825 0.4379283125271237
0.029574468085106383 0.4665363947239862 0.45198455649765856
0.029787234042553193 0.46589742467923023 0.46033608777802426
0.03 0.4639145848929022 0.4654120163565886
0.03021276595744681 0.46378399683851995 0.47221991131976043
0.030425531914893618 0.46112742829158765 0.4718748635627161
0.030638297872340424 0.4590986315492413 0.47104303918842355
0.030851063829787233 0.4587200781631655 0.4756526948390844
0.031063829787234043 0.4595148660932832 0.47966819378546743
0.03127659574468085 0.45885646407257075 0.47937429504472523
0.03148936170212766 0.4587200781631655 0.4847560385750821
0.03170212765957447 0.45565325367113146 0.4891633971583189
0.031914893617021274 0.4489820941366721 0.4969866797698286
0.03212765957446809 0.4496464943662729 0.5020834561356385
0.03234042553191489 0.4466960095663697 0.5047191962613954
0.0325531914893617 0.4449569667644739 0.5006013142800291
0.03276595744680851 0.4444373051392936 0.5057979305318328
0.03297872340425532 0.44389977054009766 0.5078789950932089
0.033191489361702124 0.44331685755762706 0.5020498652685037
0.03340425531914894 0.4421880250711162 0.49930603012227043
0.03361702127659574 0.441066975844901 0.49930982098871574
0.033829787234042556 0.44083716618819435 0.5011482982423694
0.03404255319148936 0.44060735653148764 0.5029867754960231
0.03425531914893617 0.4403775468747809 0.5048252527496767
0.03446808510638298 0.44002335031316553 0.5065950170981925
0.03468085106382979 0.4364654541075355 0.5065950170981925
0.03489361702127659 0.43503910434885124 0.5062225093790673
0.035106382978723406 0.4373673658750675 0.5037526478209874
0.03531914893617021 0.4376206413179236 0.4991741342343868
0.03553191489361702 0.43502556280412585 0.496579055720589
0.03574468085106383 0.43439524004945596 0.4959487329659191
0.03595744680851064 0.43376491729478606 0.4953184102112492
0.036170212765957444 0.4333170493404983 0.49616565437699517
0.036382978723404256 0.4333170493404983 0.5006398509308603
0.03659574468085106 0.43425184132649197 0.4993728392826953
0.03680851063829787 0.43548044375590567 0.49630133320916103
0.03702127659574468 0.43670904618531947 0.49322982713562663
0.03723404255319149 0.43722520762090866 0.4944904785005809
0.0374468085106383 0.4371035637562558 0.49875437176444126
0.03765957446808511 0.4323400097703958 0.4978130988414905
0.03787234042553191 0.43238037676661284 0.49863741605061207
0.038085106382978726 0.4333795969256811 0.49514014549387303
0.03829787234042553 0.4343788170847494 0.4916428749371341
0.03851063829787234 0.43537803724381763 0.48814560438039517
0.03872340425531915 0.4367824200584161 0.48432844921160995
0.03893617021276596 0.4409178143990475 0.4783551018306979
0.03914893617021276 0.44503695678554805 0.472378078861786
0.039361702127659576 0.4434204656524465 0.46510386876282955
0.03957446808510638 0.44453132551879854 0.4563858736273066
0.03978723404255319 0.4460045346823605 0.4555201486887571
0.04 0.4473430842244794 0.4578626103874652
0.04021276595744681 0.4486816337665982 0.4602050720861731
0.04042553191489362 0.44894968246213973 0.46222078818154383
0.040638297872340426 0.44894968246213973 0.46415468861742337
0.04085106382978723 0.44894968246213973 0.46608858905330297
0.041063829787234045 0.4492488338265309 0.4666159802009155
0.04127659574468085 0.4503853097127728 0.4632065525421898
0.04148936170212766 0.4515217855990147 0.4597971248834641
0.04170212765957447 0.45453182958723776 0.45394822701654314
0.041914893617021276 0.4576161090437631 0.4439759518866233
0.04212765957446808 0.4600949963838074 0.42754035265340773
0.042340425531914895 0.46012452210736804 0.41259550033183934
0.0425531914893617 0.46098437056691766 0.39885685090282236
0.04276595744680851 0.4595869955331807 0.383157664665004
0.04297872340425532 0.46095766704562535 0.37376823970157586
0.043191489361702126 0.4612325222398516 0.36757641381286216
0.04340425531914894 0.4614139854834665 0.36886063172380285
0.043617021276595745 0.45996965532099215 0.36812793573134867
0.04382978723404255 0.4587287899383127 0.3746336927083127
0.044042553191489364 0.46107512967307596 0.381459100386795
0.04425531914893617 0.46458231558378116 0.3904371875677328
0.044468085106382976 0.4649243602572401 0.3935513771894768
0.04468085106382979 0.46514815119545466 0.38899175572875716
0.044893617021276595 0.4665048948092483 0.3825424916099016
0.0451063829787234 0.4698347633811068 0.37186762410178814
0.045319148936170214 0.4714193880620813 0.3515883065704522
0.04553191489361702 0.47328457350783687 0.3351325605904613
0.045744680851063826 0.47282344424759304 0.32775449242655924
0.04595744680851064 0.47235283301983416 0.3215528874006808
0.046170212765957445 0.4717713085250344 0.3291127058330773
0.04638297872340425 0.47118978403023465 0.3366725242654738
0.046595744680851064 0.47060825953543484 0.3442323426978705
0.04680851063829787 0.4701079556609719 0.3507362930658891
0.047021276595744683 0.46963947508554665 0.35682654054641777
0.04723404255319149 0.46946751343429405 0.36734960300335984
0.047446808510638296 0.46946751343429405 0.37718946806911213
0.04765957446808511 0.46996354114791883 0.38154896798220805
0.047872340425531915 0.4699644717967221 0.3868317225642341
0.04808510638297872 0.47140534939683226 0.3971178557137016
0.048297872340425534 0.47179207441525917 0.403028822667318
0.04851063829787234 0.472138209624271 0.4047224792871924
0.048723404255319146 0.47214921481671035 0.409026083622611
0.04893617021276596 0.47142159257449934 0.4203341729938559
0.049148936170212765 0.4708729322779228 0.4398861815137146
0.04936170212765957 0.46936343499966676 0.4559650247458713
0.049574468085106384 0.46691904114288096 0.46519940153817324
0.04978723404255319 0.4644746472860953 0.47443377833047484
0.05 0.4620302534293095 0.4836681551227768
0.05021276595744681 0.460916257663886 0.48794803599308634
0.050425531914893615 0.4600464332104177 0.49131860575027597
0.05063829787234043 0.4591766087569494 0.4946891755074658
0.050851063829787234 0.4583067843034811 0.49805974526465546
0.05106382978723404 0.45743695985001276 0.5014303150218451
0.05127659574468085 0.4565671353965445 0.504800884779035
0.05148936170212766 0.45569731094307614 0.5081714545362246
0.051702127659574465 0.45482748648960786 0.5115420242934142
0.05191489361702128 0.4539576620361395 0.5149125940506041
0.052127659574468084 0.44921145279498886 0.5200118007467796
0.05234042553191489 0.44810458109919643 0.5294360057720366
0.0525531914893617 0.44780866316948925 0.5377817128627935
0.05276595744680851 0.44633985050805897 0.5476833962481865
0.05297872340425532 0.4445073911120495 0.5553167689223677
0.05319148936170213 0.44320047729969514 0.5590160571092191
0.053404255319148934 0.4394824985965037 0.567466283385028
0.05361702127659575 0.4383598627596631 0.5673290860132049
0.05382978723404255 0.44180599994926273 0.5626667794967386
0.05404255319148936 0.437272803511695 0.5573891757708306
0.05425531914893617 0.4447023911770751 0.5556730842730914
0.05446808510638298 0.43846714685890537 0.5587854419619656
0.054680851063829784 0.43545826187764014 0.5540499880428748
0.0548936170212766 0.43950972364841145 0.5462803893097296
0.0551063829787234 0.438024758083537 0.5359775396358576
0.05531914893617021 0.4347555887067775 0.5315365461246832
0.05553191489361702 0.435510191997864 0.5332141490081229
0.05574468085106383 0.43624816805080613 0.5360723221424809
0.055957446808510634 0.4333779063865836 0.5390359400195396
0.05617021276595745 0.43544096421112866 0.5452410327529631
0.05638297872340425 0.43624816805080613 0.5422789788055061
0.056595744680851066 0.4284395054944555 0.5427359136864007
0.05680851063829787 0.4361462137606147 0.5325672683301965
0.05702127659574468 0.4352711284807034 0.5269901943017348
0.05723404255319149 0.43502017833338047 0.5138023892876113
0.0574468085106383 0.4333987223154742 0.49446521351169076
0.057659574468085104 0.43166404616568305 0.47298912553606326
0.05787234042553192 0.4323400097703958 0.4513083307975375
0.05808510638297872 0.4323400097703958 0.4354971421168016
0.05829787234042553 0.43375011346714387 0.423657564956284
0.05851063829787234 0.4352853998278418 0.417217303454513
0.05872340425531915 0.43548099840285465 0.41394997284027113
0.058936170212765954 0.43624816805080613 0.4121189219910763
0.05914893617021277 0.443966509214489 0.41105034468187296
0.05936170212765957 0.44202459353802254 0.409247551142615
0.059574468085106386 0.441133365901319 0.4114446179181888
0.05978723404255319 0.44475874240993 0.4136348670525468
0.06 0.44182892337363133 0.4306424121809612
0.06021276595744681 0.4417585842018596 0.43460669806087115
0.06042553191489362 0.4425417395649541 0.4349982757424184
0.06063829787234042 0.4415728491137558 0.4376944819651326
0.060851063829787236 0.44014254602281794 0.4453511270119653
0.06106382978723404 0.44371430639516796 0.4488761873828657
0.06127659574468085 0.44455373032998874 0.4463439209715057
0.06148936170212766 0.44834450009484106 0.4446591344093492
0.06170212765957447 0.45199832601494855 0.4429699201990231
0.06191489361702127 0.4537490703772272 0.4412191758367444
0.062127659574468086 0.45446945979988673 0.44303710436302146
0.06234042553191489 0.45563544797599304 0.4420056643785323
0.0625531914893617 0.4574314072061405 0.4341887253872632
0.0627659574468085 0.45683711982459396 0.41925140986157466
0.06297872340425532 0.45560904386639556 0.4041920259016027
0.06319148936170213 0.4596428796280554 0.3904900225716226
0.06340425531914894 0.4611862259130154 0.38214021603307885
0.06361702127659574 0.4605150232864054 0.3841947594768522
0.06382978723404255 0.4601697322205618 0.3942082003863187
0.06404255319148935 0.4598244411547181 0.40422164129578514
0.06425531914893617 0.4610363703245553 0.40891845996129617
0.06446808510638298 0.46315793270582256 0.41050963174724664
0.06468085106382979 0.46478471333815236 0.41261429521484944
0.06489361702127659 0.4666903776358825 0.4145302729264457
0.0651063829787234 0.4681262529060206 0.41172390653877217
0.06531914893617022 0.46656538733447817 0.3945543852518062
0.06553191489361702 0.4669255034577534 0.39190081413379185
0.06574468085106383 0.46732197656065827 0.38952197551636314
0.06595744680851064 0.46605713645181585 0.38594606604532394
0.06617021276595744 0.46367309774211557 0.38621568479026297
0.06638297872340425 0.4648776236505022 0.3902500235686523
0.06659574468085107 0.4677137293922377 0.3913043478260869
0.06680851063829787 0.46814022320171983 0.3913043478260869
0.06702127659574468 0.46752119665036884 0.391692058711616
0.06723404255319149 0.46422079061608984 0.3944894561711147
0.06744680851063829 0.46467784441661425 0.399811117458511
0.06765957446808511 0.4669910385515319 0.40415741017993584
0.06787234042553192 0.4674595472451737 0.4083295121227237
0.06808510638297872 0.46809814981601344 0.4153342424801311
0.06829787234042553 0.46574972236147755 0.422188879654182
0.06851063829787234 0.466310946080542 0.4275299614676974
0.06872340425531914 0.463390881152451 0.4292894309348959
0.06893617021276596 0.4622877236996762 0.4330210352581951
0.06914893617021277 0.4625818018236639 0.43568999633588656
0.06936170212765957 0.45949230810561736 0.44016304184095234
0.06957446808510638 0.4548450684261439 0.44531195646611565
0.06978723404255319 0.4517506121568068 0.44630084726998587
0.06999999999999999 0.44928177242281414 0.4500735367006587
0.07021276595744681 0.4480024982504216 0.44427347212031776
0.07042553191489362 0.4478638984941606 0.43809350279313464
0.07063829787234042 0.4472444567948138 0.4382206215124258
0.07085106382978723 0.4487503818601065 0.44074449641728436
0.07106382978723404 0.4462330434116543 0.439100989582477
0.07127659574468086 0.442419894556615 0.4455453025250117
0.07148936170212766 0.4404927711365889 0.483728820661044
0.07170212765957447 0.4392500365013928 0.49223118973830415
0.07191489361702127 0.4381833566320433 0.49372454155539347
0.07212765957446808 0.43711667676269367 0.4952178933724828
0.07234042553191489 0.4360499968933441 0.4967112451895721
0.0725531914893617 0.4346888644663522 0.4978016609672691
0.07276595744680851 0.432917599207881 0.50219561242606
0.07297872340425532 0.4323400097703958 0.5127702955710752
0.07319148936170213 0.4336689677554024 0.5210167657467419
0.07340425531914893 0.435061173649931 0.5316426219225692
0.07361702127659574 0.4369927177071265 0.5382560981271225
0.07382978723404256 0.43382163502152765 0.5396882160614231
0.07404255319148936 0.43579173633182416 0.5414641538092311
0.07425531914893617 0.4393859131698993 0.5401995690623391
0.07446808510638298 0.43760386840086274 0.5404524769642689
0.07468085106382978 0.4373536413371624 0.5341585623336448
0.0748936170212766 0.43765913462696565 0.5285238146465064
0.07510638297872341 0.4375969997315619 0.5273463034191429
0.07531914893617021 0.4381058545912842 0.5267141640986062
0.07553191489361702 0.4373669859295877 0.5305802628340691
0.07574468085106383 0.4382022471910112 0.5226637595035023
0.07595744680851063 0.43840200088915826 0.523981975661892
0.07617021276595745 0.43949601320515075 0.5238381426780104
0.07638297872340426 0.4419509043533198 0.5247101244246157
0.07659574468085106 0.4445681667850763 0.5186412254520945
0.07680851063829787 0.44539096093778036 0.5116871103086555
0.07702127659574468 0.44608043907042655 0.5082397196454242
0.0772340425531915 0.44676991720307285 0.5047923289821927
0.0774468085106383 0.4505760764818876 0.4972190466999694
0.07765957446808511 0.45022812680061064 0.48991251914145095
0.07787234042553191 0.4490009982915488 0.48623113361426534
0.07808510638297872 0.4506359314140461 0.486077186126038
0.07829787234042553 0.4509037616023448 0.48872770367375734
0.07851063829787235 0.4506856684842766 0.49042153064258487
0.07872340425531915 0.4503205201724233 0.49115182726629153
0.07893617021276596 0.44995537186057 0.4918821238899982
0.07914893617021276 0.44701866388653866 0.4832152491095431
0.07936170212765957 0.445791636708047 0.4786705915258578
0.07957446808510638 0.44406448461162684 0.473875749745051
0.0797872340425532 0.44248613245960566 0.4717672912837934
0.08 0.43884447659082365 0.47211860385584725
0.08021276595744681 0.4391183304923463 0.4684591260948971
0.08042553191489361 0.4401563263312165 0.4583200563018287
0.08063829787234042 0.4379909951312684 0.4574877760896098
0.08085106382978724 0.44022821129756623 0.44948477848225465
0.08106382978723405 0.43965570713821117 0.4403461388879495
0.08127659574468085 0.44164579972831175 0.43409139224568133
0.08148936170212766 0.4440105394240048 0.3430606865927987
0.08170212765957446 0.4473829069627851 0.34081433040467213
0.08191489361702127 0.4507842060502978 0.34113826365110195
0.08212765957446809 0.45418550513781064 0.34146219689753177
0.0823404255319149 0.45758680422532333 0.34178613014396153
0.0825531914893617 0.46098810331283596 0.34211006339039135
0.08276595744680851 0.46438940240034865 0.34243399663682117
0.08297872340425531 0.47231149809025175 0.3404982901807523
0.08319148936170212 0.47010602209642155 0.34129642600841165
0.08340425531914894 0.4731078872553164 0.3477935481657573
0.08361702127659575 0.4720008815557167 0.3581543500510406
0.08382978723404255 0.4724668853381651 0.366037825390546
0.08404255319148936 0.4701184242079699 0.3704611961490124
0.08425531914893616 0.46770373479009575 0.3741237736463226
0.08446808510638298 0.467513434294089 0.3765475401540712
0.08468085106382979 0.4672580400657701 0.37469467513434296
0.0848936170212766 0.4650293233939059 0.37491817903940533
0.0851063829787234 0.4668993116449103 0.37494588086259756
0.08531914893617021 0.4665185933756618 0.3722253741865997
0.08553191489361701 0.46519633327859977 0.37187558247978447
0.08574468085106383 0.4645558685535699 0.37379697665487405
0.08595744680851064 0.46391540382854013 0.37571837082996346
0.08617021276595745 0.46105873247313883 0.3779220260448179
0.08638297872340425 0.4583876130959857 0.38280274549946913
0.08659574468085106 0.45999554039939206 0.3903947480173152
0.08680851063829788 0.4608923802867095 0.3935336876229262
0.08702127659574468 0.4625567251252124 0.39675550083393674
0.08723404255319149 0.46844061467136716 0.4004329318002836
0.0874468085106383 0.46886750414845585 0.4066462583241821
0.0876595744680851 0.4681406367274324 0.41339574151939945
0.08787234042553191 0.467413769306409 0.4201452247146168
0.08808510638297873 0.46668690188538553 0.4268947079098346
0.08829787234042553 0.4659600344643621 0.4336441911050519
0.08851063829787234 0.4652331670433387 0.44039367430026927
0.08872340425531915 0.4645062996223153 0.4471431574954866
0.08893617021276595 0.46377943220129186 0.45389264069070395
0.08914893617021276 0.46305256478026846 0.4606421238859213
0.08936170212765958 0.46333578579465784 0.4716578090946006
0.08957446808510638 0.4650357135021976 0.4886570861699979
0.08978723404255319 0.46651920134253727 0.49509331042267574
0.09 0.46790633767978174 0.49682723084423136
0.0902127659574468 0.4692934740170262 0.49856115126578704
0.09042553191489362 0.46692109991385966 0.503022723071429
0.09063829787234043 0.46911744074894 0.5053845957378538
0.09085106382978723 0.46592898685922973 0.5135796623219846
0.09106382978723404 0.4655593551538837 0.5158422694167402
0.09127659574468085 0.4642951471023389 0.5185777768894217
0.09148936170212765 0.4624029007992594 0.521889207919811
0.09170212765957447 0.4599927992060881 0.5259686859022451
0.09191489361702128 0.45520944197278485 0.5302840352594373
0.09212765957446808 0.44904673113486476 0.5332845905688757
0.09234042553191489 0.44477645559488876 0.5336870564742243
0.0925531914893617 0.44343241704482345 0.532343017924159
0.0927659574468085 0.44079584874350847 0.5305828207747862
0.09297872340425532 0.43747888430391163 0.5283435643234524
0.09319148936170213 0.4376442824639936 0.5180381043846278
0.09340425531914893 0.44149603570554996 0.5053534152440315
0.09361702127659574 0.439421854801246 0.49022114503700726
0.09382978723404255 0.43834479404192916 0.47387755511508034
0.09404255319148937 0.44143942061579533 0.46259295993968513
0.09425531914893617 0.44168713432950046 0.4504804904604239
0.09446808510638298 0.43695670971988343 0.44699560332193444
0.09468085106382979 0.43582355043365534 0.44810044722783826
0.09489361702127659 0.434863493257448 0.4510266946521769
0.0951063829787234 0.4334631885223061 0.4601898050553952
0.09531914893617022 0.4323494559898217 0.4713271303802401
0.09553191489361702 0.4320813141365299 0.4795543477345466
0.09574468085106383 0.43061720889211336 0.49034404788547226
0.09595744680851064 0.431114912932481 0.4990419473063294
0.09617021276595744 0.4303859306301905 0.5045484599251597
0.09638297872340426 0.4298830134722131 0.5100866424581821
0.09659574468085107 0.4274933322385787 0.509903176090129
0.09680851063829787 0.4287969479683524 0.5077760376988736
0.09702127659574468 0.4286158616836937 0.5086294291701541
0.09723404255319149 0.4276444683694367 0.5099246202558301
0.09744680851063829 0.42667307505517965 0.5112198113415061
0.09765957446808511 0.4264777723497801 0.5132786433229098
0.09787234042553192 0.4264777723497801 0.5153161798474948
0.09808510638297872 0.4250058299061095 0.5141574991337124
0.09829787234042553 0.4235567034536277 0.5087757689561515
0.09851063829787234 0.4262487840071074 0.503091427531203
0.09872340425531914 0.42452369320957506 0.4974812632804341
0.09893617021276596 0.42502849894622213 0.48724148475808093
0.09914893617021277 0.42686309541858813 0.4787011202263552
0.09936170212765957 0.42745481191988266 0.4702823119387808
0.09957446808510638 0.43002645244075055 0.46301306338257014
0.09978723404255319 0.431362970200293 0.4552597585306177
0.1 0.43224228860312847 0.4520762435069821
0.10021276595744681 0.43614944168727054 0.44891677367429456
0.10042553191489362 0.43346466484307195 0.44782502738946356
0.10063829787234042 0.43457035382330234 0.44561427875842696
0.10085106382978723 0.43769705775602974 0.440088797741983
0.10106382978723404 0.4395186527821623 0.43453401908898087
0.10127659574468086 0.4375272421440249 0.42626496434751837
0.10148936170212766 0.43885221731371804 0.41785211971463926
0.10170212765957447 0.44203410403053206 0.4043365018146083
0.10191489361702127 0.44588348396739336 0.39391973161677074
0.10212765957446808 0.45264031467962945 0.3908692957002456
0.10234042553191489 0.45222956854957785 0.38935026868588185
0.1025531914893617 0.454294365205879 0.3927021591003158
0.10276595744680851 0.4564045799698658 0.3931114430915602
0.10297872340425532 0.4590252738540819 0.3920574394364607
0.10319148936170212 0.4579171948777717 0.39050146454069307
0.10340425531914893 0.4616971495906299 0.39684491622660667
0.10361702127659575 0.4628073139871075 0.3903273082559844
0.10382978723404256 0.46418469631223774 0.39119643870382315
0.10404255319148936 0.46591663362013874 0.3946875408313126
0.10425531914893617 0.4690144013384738 0.39716658524670256
0.10446808510638297 0.47643517922543777 0.39653988691533515
0.10468085106382978 0.4784760126659101 0.3984752350848292
0.1048936170212766 0.4755667199687066 0.4000187142524112
0.1051063829787234 0.48033479696394765 0.4027292020210053
0.10531914893617021 0.482767139495742 0.39734614261665263
0.10553191489361702 0.4840870415918052 0.39558627315523504
0.10574468085106382 0.48359374426156987 0.3990934357607665
0.10595744680851064 0.48326057716316334 0.3994845141594195
0.10617021276595745 0.4814155323917443 0.4006276552946746
0.10638297872340426 0.4811919882755251 0.4037497578083203
0.10659574468085106 0.47820909557733293 0.39896534242325454
0.10680851063829787 0.47652008217383923 0.3954257978553243
0.10702127659574467 0.47304147970407484 0.3916130033749303
0.1072340425531915 0.4714497788296339 0.38795517496856463
0.1074468085106383 0.4692138864699483 0.38359611060379895
0.1076595744680851 0.46996880470179514 0.3854676533703711
0.10787234042553191 0.4688508432300108 0.38323173042680225
0.10808510638297872 0.4684904738641915 0.3904926680635313
0.10829787234042552 0.4751862146959673 0.39938381401163536
0.10851063829787234 0.4696097155929014 0.4120011320371462
0.10872340425531915 0.4701883893431817 0.42759765714415404
0.10893617021276596 0.4698384459860677 0.44218308887918545
0.10914893617021276 0.4704445530043966 0.45919716530643767
0.10936170212765957 0.47104848561467005 0.47499145126781384
0.10957446808510639 0.4685309298544624 0.4896096025455427
0.1097872340425532 0.4650065134139714 0.4996015854637362
0.11 0.46458231558378116 0.5035843637894598
0.1102127659574468 0.46449183221729046 0.5033924482884127
0.11042553191489361 0.46277592592539885 0.49907407950101734
0.11063829787234042 0.4593748224345666 0.48904891953233715
0.11085106382978724 0.45784111044874454 0.4776761174178411
0.11106382978723404 0.4556592855935986 0.46894881799725724
0.11127659574468085 0.4534773004840922 0.4575516387619055
0.11148936170212766 0.4528578407425501 0.45461452174815153
0.11170212765957446 0.45106229590431124 0.46199409923571017
0.11191489361702127 0.44806869743489786 0.47838093774379314
0.11212765957446809 0.45095691189157633 0.4843009290168194
0.1123404255319149 0.44406448461162684 0.4936295976875785
0.1125531914893617 0.44406448461162684 0.4972748064739681
0.1127659574468085 0.44453428927734867 0.5011651541046399
0.11297872340425531 0.44445228078344523 0.5038653456143505
0.11319148936170213 0.44335446783088633 0.502510887615766
0.11340425531914894 0.4446306707525281 0.4986233678256715
0.11361702127659574 0.44423774028709817 0.4969978770726379
0.11382978723404255 0.44406448461162684 0.48905463936459126
0.11404255319148936 0.44344975522575225 0.48361826858254015
0.11425531914893616 0.4424945638249746 0.48157614662907816
0.11446808510638298 0.4414365239315459 0.48186586981540075
0.11468085106382979 0.441133365901319 0.48297576568795025
0.1148936170212766 0.4392603557692628 0.48876509781189853
0.1151063829787234 0.43891091884830824 0.49540727808257246
0.11531914893617021 0.4358013035190047 0.5027436700706831
0.11553191489361703 0.4339414226224287 0.5105841346730167
0.11574468085106383 0.43283798504631027 0.512457254518808
0.11595744680851064 0.434079254077506 0.513037002621178
0.11617021276595745 0.43475003169153464 0.5134342940889105
0.11638297872340425 0.433797030201579 0.5129372353798887
0.11659574468085106 0.4363994656213478 0.512457254518808
0.11680851063829788 0.4352180773336696 0.5064889148041247
0.11702127659574468 0.43254605914218874 0.5037669230737812
0.11723404255319149 0.43047402399379014 0.5006446863139772
0.1174468085106383 0.432989859721488 0.4982924453957845
0.1176595744680851 0.4304651479460625 0.501929876016551
0.11787234042553191 0.4305880554928137 0.5029159747557246
0.11808510638297873 0.4338789154084294 0.49960904754171476
0.11829787234042553 0.4328978689479117 0.4959862606119934
0.11851063829787234 0.4314993841069698 0.4965517935838131
0.11872340425531915 0.4372239400245317 0.48704978910882135
0.11893617021276595 0.4352711284807034 0.4792612672316494
0.11914893617021277 0.4355448836825464 0.4717331405036466
0.11936170212765958 0.43624816805080613 0.46507295090447887
0.11957446808510638 0.43624816805080613 0.4567679840247316
0.11978723404255319 0.4376067112771642 0.45217856912937104
0.12 0.43982605092319754 0.44863319370807503
0.1202127659574468 0.43827639218520004 0.44421277460000447
0.12042553191489362 0.4393590462643974 0.44549092293993864
0.12063829787234043 0.441133365901319 0.45015455105456303
0.12085106382978723 0.441133365901319 0.4531018150913296
0.12106382978723404 0.4421449965395305 0.4603067062567009
0.12127659574468085 0.44180971327368784 0.46999393485286006
0.12148936170212765 0.445764827411026 0.4764633127211758
0.12170212765957447 0.44880810183286335 0.47728382999511476
0.12191489361702128 0.45376696102645453 0.47442063057100503
0.12212765957446808 0.4534833614027187 0.47428721642129534
0.12234042553191489 0.4564810674995305 0.4694063909343877
0.1225531914893617 0.45871489448084773 0.4660556504624119
0.12276595744680852 0.4590711781913631 0.4608266783323509
0.12297872340425532 0.4617688903927524 0.454909062876182
0.12319148936170213 0.4608327766773277 0.45114169066328014
0.12340425531914893 0.4690396259926856 0.44265955759991565
0.12361702127659574 0.4632067191242827 0.43470554756892127
0.12382978723404255 0.4655593551538837 0.42754623617561816
0.12404255319148937 0.46452892151040603 0.42447029913619994
0.12425531914893617 0.4640582682843251 0.4211395822286205
0.12446808510638298 0.46494829071662824 0.4202495597963175
0.12468085106382978 0.47132850816061356 0.41686765016425764
0.12489361702127659 0.4690203960509519 0.41747244734415273
0.1251063829787234 0.4685615577530292 0.41268074522028114
0.12531914893617022 0.47158394640306533 0.4077516666892649
0.125531914893617 0.4732958238057146 0.4048435337384653
0.12574468085106383 0.4762023452621277 0.3987888123461832
0.12595744680851065 0.47671072788509505 0.3931548704765643
0.12617021276595744 0.47701697122457154 0.38677640425818766
0.12638297872340426 0.4789809622482325 0.377805015266442
0.12659574468085105 0.47339757151384404 0.3707062175904206
0.12680851063829787 0.4761678400965503 0.3573990253420271
0.1270212765957447 0.47505112556256807 0.33841045153509725
0.12723404255319148 0.47476590577057304 0.3278355330793644
0.1274468085106383 0.4726032170678245 0.3222526972167572
0.1276595744680851 0.46908073334270645 0.32504895776377124
0.12787234042553192 0.4684904738641915 0.33328848508603487
0.1280851063829787 0.4666177206068903 0.34587257230394375
0.12829787234042553 0.46458231558378116 0.36727891505376387
0.12851063829787235 0.46458231558378116 0.3852116019369052
0.12872340425531914 0.4638371013616846 0.4034511679564446
0.12893617021276596 0.46160840125314545 0.41653982401616213
0.12914893617021275 0.45937455224011736 0.43394349414549915
0.12936170212765957 0.45635772790477847 0.44626633753627537
0.1295744680851064 0.4557889594528579 0.4563048417474962
0.12978723404255318 0.4539192894608303 0.46338791877717533
0.13 0.45416442710349786 0.4712057616480802
0.1302127659574468 0.45188080117244755 0.46940434808510706
0.13042553191489362 0.45236845367939926 0.46556282426628215
0.13063829787234044 0.4528578407425501 0.45984248043322973
0.13085106382978723 0.4520976443198919 0.450901270789139
0.13106382978723405 0.4509840939721296 0.44356943926023285
0.13127659574468084 0.4519344115322676 0.43830946791065134
0.13148936170212766 0.45248312363618803 0.44109311909712157
0.13170212765957448 0.4499351812481348 0.44762440512628954
0.13191489361702127 0.44706268868392557 0.45649765757499644
0.1321276595744681 0.4448437248740626 0.46302383505890954
0.13234042553191488 0.44261484340773005 0.4674815979915745
0.1325531914893617 0.4438403441748843 0.47195035127111684
0.1327659574468085 0.44211040547142155 0.4734556064805459
0.13297872340425532 0.44211040547142155 0.47696689433721406
0.13319148936170214 0.44119699447112526 0.48204177070601506
0.13340425531914893 0.44002572707823784 0.4907326078702202
0.13361702127659575 0.4406018007832406 0.5000140121056372
0.13382978723404254 0.44082003150854504 0.5073327950590821
0.13404255319148936 0.441133365901319 0.5167385155153786
0.13425531914893618 0.4392524664963309 0.5267835392618698
0.13446808510638297 0.44162796730137005 0.5343380755971062
0.1346808510638298 0.43722520762090866 0.5385592839411354
0.13489361702127659 0.43722520762090866 0.5415292038441346
0.1351063829787234 0.43722520762090866 0.5447544128465623
0.13531914893617022 0.43594507294468154 0.5498539761629663
0.13553191489361702 0.4352711284807034 0.5515388373229115
0.13574468085106384 0.4352711284807034 0.547867006405847
0.13595744680851063 0.43618064079900026 0.543182302747644
0.13617021276595745 0.43507322171625923 0.5339271365568286
0.13638297872340424 0.4339573585740042 0.523441965807471
0.13659574468085106 0.4333170493404983 0.5126147555256324
0.13680851063829788 0.43393216896794456 0.5004438208237297
0.13702127659574467 0.43505065772865764 0.4862326579443708
0.1372340425531915 0.4334783278111255 0.4679072617243176
0.13744680851063829 0.43361109965657024 0.4551420487574996
0.1376595744680851 0.43721788356864133 0.44386028783488546
0.13787234042553193 0.43265118494718346 0.4381804901711416
0.13808510638297872 0.431362970200293 0.43624816805080613
0.13829787234042554 0.431362970200293 0.43624816805080613
0.13851063829787233 0.431362970200293 0.43624816805080613
0.13872340425531915 0.43224653181610156 0.4353646064349976
0.13893617021276597 0.4333170493404983 0.4330770856180311
0.13914893617021276 0.4338827062338386 0.4280547468944252
0.13936170212765958 0.43624816805080613 0.42186122519749536
0.13957446808510637 0.43718927559838167 0.41044644949940495
0.1397872340425532 0.4399989359563207 0.40551843549741823
0.13999999999999999 0.43907640605883064 0.4060628220799089
0.1402127659574468 0.4406082888743702 0.4109470504199932
0.14042553191489363 0.44301723298969425 0.41653184651917974
0.14063829787234042 0.4437626478535344 0.4219950235100571
0.14085106382978724 0.4406500404796834 0.42719237175540203
0.14106382978723403 0.43956114964914916 0.43195814688236034
0.14127659574468085 0.4411946111131121 0.4308438278093452
0.14148936170212767 0.44342530987423284 0.42841357402597363
0.14170212765957446 0.4456600499649221 0.42506146388993976
0.14191489361702128 0.4488299059626268 0.4198381228582502
0.14212765957446807 0.45111155589829066 0.4164995823528085
0.1423404255319149 0.4533456076565472 0.41475329750854906
0.1425531914893617 0.4540421697020602 0.4139835473278541
0.1427659574468085 0.4539117729572417 0.41174528615365225
0.14297872340425533 0.4568178613555014 0.40883919775539246
0.14319148936170212 0.457743038593063 0.40872466451505574
0.14340425531914894 0.4596378165225601 0.40794367112318497
0.14361702127659573 0.4590424700850012 0.40867613214004317
0.14382978723404255 0.4625878038761588 0.4074052844490711
0.14404255319148937 0.46459967202653274 0.4079313769605827
0.14425531914893616 0.46524373403453195 0.40683177390794445
0.14446808510638298 0.467940365135691 0.4095643467033325
0.14468085106382977 0.46684577451186376 0.41151279901036375
0.1448936170212766 0.4720511721052899 0.4181247815197311
0.1451063829787234 0.4760978386325133 0.42236066227687086
0.1453191489361702 0.47620765112092434 0.42564944173580943
0.14553191489361703 0.4741881094276589 0.42876105520428154
0.14574468085106382 0.4730930149143802 0.43066858743051467
0.14595744680851064 0.47360219277111837 0.43176415707579857
0.14617021276595746 0.4737718609107714 0.4318207131223496
0.14638297872340425 0.4730377404229748 0.432641186757039
0.14659574468085107 0.4726202837838999 0.4325616614096938
0.14680851063829786 0.47324613443360175 0.43573001892639535
0.14702127659574468 0.47241471601626744 0.4372091237492431
0.14723404255319147 0.4713172067620597 0.43495797104338446
0.1474468085106383 0.4704445530043966 0.43256402869429617
0.14765957446808511 0.47148007249028 0.43090083720677036
0.1478723404255319 0.47164323661364344 0.4282102074508411
0.14808510638297873 0.46895916974502005 0.4303859306301905
0.14829787234042552 0.4691167153930555 0.4297596891013265
0.14851063829787234 0.4687208078368964 0.4309023022548832
0.14872340425531916 0.4667644256603936 0.43049994609839415
0.14893617021276595 0.46945461618156437 0.43622667262959003
0.14914893617021277 0.46616604209891 0.4316098719503439
0.14936170212765956 0.46312345501344804 0.4333170493404983
0.14957446808510638 0.46057215667278 0.43475576960808937
0.1497872340425532 0.45919662852246823 0.44056106013602697
0.15 0.4591049851361225 0.44820941279164644
0.15021276595744681 0.45730030831297375 0.45516307115292043
0.1504255319148936 0.45759529872767934 0.4617417972512741
0.15063829787234043 0.4520344519198443 0.46453109866798226
0.15085106382978725 0.4573012552500171 0.46937915676568487
0.15106382978723404 0.45265000990133386 0.46994528975270505
0.15127659574468086 0.45253630890249164 0.4786072895051303
0.15148936170212765 0.4520407798376808 0.4909309730995939
0.15170212765957447 0.44764999536440414 0.5057702043047025
0.15191489361702126 0.44338623466548516 0.5200352844793323
0.15212765957446808 0.4444051300765293 0.53336062778047
0.1523404255319149 0.44326612172215835 0.5412324115799829
0.1525531914893617 0.44120772046269824 0.542671126630609
0.15276595744680851 0.4429247295920744 0.540791402051783
0.1529787234042553 0.44182385006160674 0.5422241791008573
0.15319148936170213 0.4419523954003863 0.5428099966555605
0.15340425531914895 0.4425611536762327 0.5372584488157038
0.15361702127659574 0.44275035525196105 0.5352662544207306
0.15382978723404256 0.4468662441384619 0.532661885173005
0.15404255319148935 0.4462226862054811 0.5293731108910258
0.15425531914893617 0.44110606146664577 0.5349018601964943
0.154468085106383 0.4390432274152673 0.5328390261451158
0.15468085106382978 0.4382022471910112 0.5312223805611133
0.1548936170212766 0.4374438739149926 0.5279293672965241
0.1551063829787234 0.4357490554614407 0.5256366959108789
0.15531914893617021 0.4358912356361951 0.5220582331526836
0.155531914893617 0.4340187157653118 0.5165578172704716
0.15574468085106383 0.4333170493404983 0.5067531321368225
0.15595744680851065 0.43238186247071164 0.5000068563093695
0.15617021276595744 0.4285785337396302 0.4892519331582244
0.15638297872340426 0.4301922797485193 0.4788593925337242
0.15659574468085105 0.4287842466023959 0.47150173834162845
0.15680851063829787 0.42832010789095876 0.4636196024242466
0.1570212765957447 0.43329079635619694 0.45594728866594486
0.15723404255319148 0.4328654401334152 0.4504521523952619
0.1574468085106383 0.4321612689059378 0.4497479811677843
0.1576595744680851 0.4314198400336371 0.4536074009792764
0.15787234042553192 0.4304517654030224 0.45787470813872677
0.15808510638297874 0.431362970200293 0.4602536463665861
0.15829787234042553 0.4316710492749181 0.46355247366745106
0.15851063829787235 0.4323400097703958 0.46642467014032524
0.15872340425531914 0.43289661196998797 0.4641738210965357
0.15893617021276596 0.4367157715154553 0.45757273026352496
0.15914893617021275 0.4366003839441603 0.4501824380888794
0.15936170212765957 0.4380929983002527 0.44157036146435297
0.1595744680851064 0.4424560573663784 0.43367191549967854
0.15978723404255318 0.44624696891246096 0.4255007327796776
0.16 0.4433877166170364 0.4212969307225057
0.1602127659574468 0.4453294286642729 0.4105572347455952
0.16042553191489362 0.4448112457218398 0.41216759648807555
0.16063829787234044 0.44375484349657907 0.41074890677821996
0.16085106382978723 0.4432758286745622 0.408102404150869
0.16106382978723405 0.4476461524826274 0.4088257620060517
0.16127659574468084 0.44710860142248793 0.40860856483655
0.16148936170212766 0.4494847391866207 0.40311410102995227
0.16170212765957448 0.4548749105455561 0.3973241987630425
0.16191489361702127 0.4599719807947051 0.3907396028481398
0.1621276595744681 0.4572032351091388 0.3868563860617524
0.16234042553191488 0.46073010267427195 0.3877405178593445
0.1625531914893617 0.46184469138080697 0.39072386430408595
0.1627659574468085 0.4625570144176358 0.3931159829144121
0.16297872340425532 0.46355642811893694 0.3962383935713415
0.16319148936170214 0.46262823644357587 0.3979873590775938
0.16340425531914893 0.46347870304347244 0.40375271629700854
0.16361702127659575 0.4639372459870422 0.409130602392962
0.16382978723404254 0.4595514437828032 0.41241995404614135
0.16404255319148936 0.4622326849789177 0.4182659043243012
0.16425531914893618 0.45697747869682986 0.4175736001743842
0.16446808510638297 0.45569181611196696 0.41406768796111926
0.1646808510638298 0.45778981266994256 0.41375287090000673
0.16489361702127658 0.45984246879938756 0.412799218368344
0.1651063829787234 0.460139587225051 0.41039365301590486
0.16531914893617022 0.45989071632847806 0.40322543679387884
0.16553191489361702 0.46267204873182893 0.40205178309721545
0.16574468085106384 0.46423860295984115 0.4007851292048903
0.16595744680851063 0.46608684485656887 0.40009770395701016
0.16617021276595745 0.4674088916638486 0.39835271007728584
0.16638297872340424 0.46659386882568454 0.39724321738230034
0.16659574468085106 0.46903801010791757 0.401790582404407
0.16680851063829788 0.46679866318106983 0.40727128366304355
0.16702127659574467 0.467513434294089 0.411607603170917
0.1672340425531915 0.46851881456085676 0.41430728876849565
0.16744680851063828 0.471344490686224 0.415104677994675
0.1676595744680851 0.47164862868830976 0.41625330442113345
0.16787234042553192 0.4731565181932625 0.4184423022675175
0.16808510638297872 0.47436369290868724 0.41967144023070285
0.16829787234042554 0.4753297508549097 0.42243989162973555
0.16851063829787233 0.4750819273138314 0.42258386866358016
0.16872340425531915 0.47690835095139933 0.42623091554156106
0.16893617021276597 0.47679974575255935 0.42843086581387513
0.16914893617021276 0.47300786490624686 0.4306273565833779
0.16936170212765958 0.4697351612544892 0.43645968484459435
0.16957446808510637 0.4659511621877312 0.44328087054393184
0.1697872340425532 0.46459040220642456 0.4518161081913004
0.17 0.4622830878009455 0.4597555240910567
0.1702127659574468 0.45946245232854666 0.46939075753186144
0.17042553191489362 0.4583646450267957 0.47781778280949866
0.17063829787234042 0.4572635894823027 0.4836073751779085
0.17085106382978724 0.45676599902296044 0.488716060473638
0.17106382978723403 0.45386129874032227 0.4960456094711678
0.17127659574468085 0.45200783093749536 0.5037517296026525
0.17148936170212767 0.4489629109206308 0.5133946087134372
0.17170212765957446 0.4455497891187748 0.5227741282071668
0.17191489361702128 0.44233729660282145 0.533952125061065
0.17212765957446807 0.4424913724299843 0.5348462339783747
0.1723404255319149 0.44071860002165014 0.5364684778917037
0.1725531914893617 0.4390842590537245 0.5353701705625242
0.1727659574468085 0.4388618498898358 0.5349291646311676
0.17297872340425532 0.4415312411377688 0.5357131494233859
0.17319148936170212 0.4402942550311398 0.5340900537609883
0.17340425531914894 0.44107801993697654 0.5284581216027844
0.17361702127659576 0.44050333379729384 0.5169314620751142
0.17382978723404255 0.4403479329157704 0.5084469573970098
0.17404255319148937 0.4374920885164769 0.5007614173013193
0.17425531914893616 0.43704226396351137 0.4946875985995642
0.17446808510638298 0.4339636580477775 0.4916089926838303
0.17468085106382977 0.43408982241575106 0.4863257455250341
0.1748936170212766 0.4316212769203087 0.4877729585462276
0.1751063829787234 0.42940889106008795 0.4968596695075254
0.1753191489361702 0.4295665999698084 0.49827478769643047
0.17553191489361702 0.43094606556666254 0.501292914614049
0.17574468085106382 0.4319380336552675 0.5014809304723976
0.17595744680851064 0.4318638576600276 0.501258402486678
0.17617021276595746 0.431740269137688 0.49728919312341296
0.17638297872340425 0.4306403531147762 0.4910030343447914
0.17659574468085107 0.43208083279496257 0.4908327954888345
0.17680851063829786 0.4313709466142806 0.48999332082043595
0.17702127659574468 0.43745574708296364 0.48866249564326336
0.1772340425531915 0.4389416062497645 0.486077186126038
0.1774468085106383 0.43784176091968724 0.4864376723973621
0.1776595744680851 0.4362520576052404 0.4890005257274772
0.1778723404255319 0.4358801322674298 0.4897443764030984
0.17808510638297873 0.43551893663518854 0.4875498420051109
0.17829787234042552 0.43953980559474176 0.48620049027333295
0.17851063829787234 0.44406201288142744 0.47922925807962213
0.17872340425531916 0.44235573252978655 0.47080400626522934
0.17893617021276595 0.4438220471182778 0.45484836786628813
0.17914893617021277 0.44565674409225664 0.43244842917901877
0.17936170212765956 0.4474648785730553 0.40535980329577714
0.17957446808510638 0.4438130215849155 0.3747195627691
0.1797872340425532 0.4438241248380058 0.3479806441142395
0.18 0.4432128239011996 0.3288257979541242
0.1802127659574468 0.43822792928669974 0.32390402674642144
0.1804255319148936 0.43624816805080613 0.3301146511763452
0.18063829787234043 0.43601597455058627 0.3453743536853683
0.18085106382978725 0.43598386490307806 0.3670743807430911
0.18106382978723404 0.43770346776943897 0.3886257772608482
0.18127659574468086 0.43939768290569026 0.4066726003877446
0.18148936170212765 0.4423179400201656 0.4158889045023537
0.18170212765957447 0.44729773566577796 0.42189470684311053
0.18191489361702126 0.45279449612352834 0.4283558379471593
0.18212765957446808 0.4557889594528579 0.43494639483995284
0.1823404255319149 0.4564794913058945 0.44038650361556203
0.1825531914893617 0.45836561719477587 0.44326013171165696
0.1827659574468085 0.46298293941190244 0.449377376421407
0.1829787234042553 0.46430884748454243 0.4542703019608184
0.18319148936170213 0.46453412556050994 0.45723042379637613
0.18340425531914895 0.46640107359921407 0.457743038593063
0.18361702127659574 0.4655956877952161 0.4549209178067524
0.18382978723404256 0.46768161927250873 0.4534985103558132
0.18404255319148935 0.4692655167436271 0.44911873526957447
0.18425531914893617 0.4684904738641915 0.4434632912474189
0.184468085106383 0.471116349614344 0.4360140173992174
0.18468085106382978 0.47435271128480694 0.4321939655767023
0.1848936170212766 0.47503674186693523 0.4299949090360367
0.1851063829787234 0.476133769885359 0.4278008529991892
0.1853191489361702 0.48275765719992647 0.42100394514496864
0.185531914893617 0.4812548642762078 0.41840995178622875
0.18574468085106383 0.48306798322284955 0.41421392428221593
0.18595744680851065 0.48645133609941144 0.41121928920151196
0.18617021276595744 0.4846765781456971 0.4073266891966057
0.18638297872340426 0.4846687435055569 0.4001864065993527
0.18659574468085105 0.48310188141771787 0.3898396130732381
0.18680851063829787 0.48138350205676733 0.38406257260899285
0.1870212765957447 0.47757389774763104 0.3816789860013193
0.18723404255319148 0.47548206674580057 0.3755701707771849
0.1874468085106383 0.47791714122726014 0.373889499733219
0.1876595744680851 0.4748373695149084 0.3755763276804053
0.18787234042553191 0.47142159257449934 0.3799976850208055
0.18808510638297873 0.46899521894639107 0.3888260532471043
0.18829787234042553 0.4665363947239862 0.3978458589315763
0.18851063829787235 0.4672528375443434 0.4101279034420084
0.18872340425531914 0.46416031721948436 0.4238356091622603
0.18893617021276596 0.4636052760136786 0.4408275933399963
0.18914893617021278 0.4613591346264606 0.45295169607816094
0.18936170212765957 0.45829525865937587 0.4643275144587345
0.1895744680851064 0.4574288509674288 0.4724331088378018
0.18978723404255318 0.4564667656878444 0.4794614278904618
0.19 0.4515424222296219 0.48486541097800334
0.1902127659574468 0.45340368414797266 0.4902495406649146
0.19042553191489361 0.452359466056355 0.4911219389378536
0.19063829787234043 0.45094601811860197 0.4928319500842419
0.19085106382978723 0.4539106202550107 0.4947948023146034
0.19106382978723405 0.4550082166942582 0.4942860963098648
0.19127659574468084 0.45389859283458883 0.497737948445333
0.19148936170212766 0.44905743700815304 0.5043176743199473
0.19170212765957448 0.4474171146112432 0.5097941697914706
0.19191489361702127 0.44634763338357947 0.5147200646404804
0.1921276595744681 0.4445069864002352 0.5163654127992183
0.19234042553191488 0.44318830933839803 0.5093560106133891
0.1925531914893617 0.44399549480960804 0.5007787728789228
0.19276595744680852 0.4412765347109061 0.5008256642931497
0.19297872340425531 0.44184397326858876 0.48812031898661884
0.19319148936170213 0.4403567876986232 0.4796514655035993
0.19340425531914893 0.43968779896702676 0.4733356868729811
0.19361702127659575 0.44140785962117646 0.47302439878958186
0.19382978723404254 0.4413683976856357 0.478569726215206
0.19404255319148936 0.44544021448735144 0.4793535789882161
0.19425531914893618 0.44210118669559173 0.48609869660297433
0.19446808510638297 0.4392987895157373 0.4935139768898741
0.1946808510638298 0.4401563263312165 0.4989986744531202
0.19489361702127658 0.4394367844138092 0.5048454845700039
0.1951063829787234 0.43579461920454327 0.5099936730302784
0.19531914893617022 0.43271742064417823 0.5120798436450255
0.19553191489361701 0.43305796036875926 0.5095854521253539
0.19574468085106383 0.43080094270303493 0.5068716918134222
0.19595744680851063 0.4268091525842818 0.5030182390522838
0.19617021276595745 0.4274269468545191 0.5025475334909643
0.19638297872340427 0.4264777723497801 0.49794834536917193
0.19659574468085106 0.42674518167882153 0.4993135191954546
0.19680851063829788 0.4270648331429988 0.49956284334692524
0.19702127659574467 0.4275002640637175 0.4972904151103004
0.1972340425531915 0.4277972325871449 0.4961900024943262
0.19744680851063828 0.42669830964236 0.5026561023247682
0.1976595744680851 0.42559979284731764 0.5037629584555248
0.19787234042553192 0.42657735495152105 0.502666942297434
0.19808510638297872 0.43094391332589205 0.5012907623732785
0.19829787234042554 0.4299788443505099 0.4982630362505303
0.19851063829787233 0.4339159461067332 0.49455576457396055
0.19872340425531915 0.43580792255747564 0.4884715107595737
0.19893617021276597 0.43881941458646684 0.48237418175330393
0.19914893617021276 0.44138244180424824 0.47507425360477545
0.19936170212765958 0.44296569033195315 0.4690992474120461
0.19957446808510637 0.4460153926125767 0.4684904738641915
0.1997872340425532 0.44234704801167135 0.4586322263021441
0.2 0.44406448461162684 0.4494260212808044
0.2002127659574468 0.44406448461162684 0.4410879563944069
0.20042553191489362 0.4449657301702002 0.4339192601428433
0.20063829787234042 0.44659178564304985 0.4248881251845621
0.20085106382978724 0.4463003862935995 0.4147719761607176
0.20106382978723403 0.44683530557999623 0.40871550922752203
0.20127659574468085 0.4498048560900073 0.40323193257104295
0.20148936170212767 0.4532601735222052 0.39708611869077154
0.20170212765957446 0.4581463223235383 0.39477805261993637
0.20191489361702128 0.4590521953551665 0.3896727298749327
0.20212765957446807 0.45862713526433063 0.3920955015985195
0.2023404255319149 0.4608218530829153 0.3947978342112182
0.2025531914893617 0.460967301245331 0.3945286104783549
0.2027659574468085 0.46228360200906 0.39262602183070533
0.20297872340425532 0.4617022780091734 0.3987630964370069
0.20319148936170212 0.4660521662055511 0.4044900907558557
0.20340425531914894 0.45969711773326827 0.4116043408052589
0.20361702127659576 0.46000766775689167 0.41785879774478324
0.20382978723404255 0.46323294260441744 0.42750894272746276
0.20404255319148937 0.4632627845103815 0.4280893599866883
0.20425531914893616 0.46199288769634217 0.4261600979761633
0.20446808510638298 0.46262823644357587 0.4257082647225043
0.20468085106382977 0.4635121386808805 0.4210812215931553
0.2048936170212766 0.46744680708319364 0.41855041043746716
0.2051063829787234 0.46458231558378116 0.41263847267350423
0.2053191489361702 0.465888094502165 0.40517647402659546
0.20553191489361702 0.4683315590614604 0.3996209595488172
0.20574468085106382 0.46703303593517914 0.3927455429028162
0.20595744680851064 0.47120203484202233 0.38823051403614245
0.20617021276595746 0.4696994151087653 0.3849486473331983
0.20638297872340425 0.4710490787699232 0.38190646592963723
0.20659574468085107 0.4733604338309622 0.38250337275329255
0.20680851063829786 0.47033330016839636 0.3841555482812677
0.20702127659574468 0.4687791735046481 0.390956395188389
0.2072340425531915 0.4668853189305645 0.39514277305686524
0.2074468085106383 0.4679839882503132 0.3956111967474132
0.2076595744680851 0.4702701513756753 0.3999233023282889
0.2078723404255319 0.4699991072320021 0.40320847154085854
0.20808510638297872 0.4653157157091814 0.4089880195075558
0.20829787234042554 0.4693288979539395 0.41841194792432124
0.20851063829787234 0.46244518793264816 0.4212562047174116
0.20872340425531916 0.4604622328584838 0.42893828303409154
0.20893617021276595 0.45902747184917364 0.4389816100992631
0.20914893617021277 0.45728834059115364 0.4479726428920372
0.20936170212765956 0.4584847987088269 0.45141024226377
0.20957446808510638 0.4562405032279848 0.4600567864221626
0.2097872340425532 0.45643198195816476 0.46424829851898547
0.21 0.45862514318629044 0.4692301759921063
0.2102127659574468 0.4556447341014639 0.47149370525019635
0.2104255319148936 0.454584023844944 0.4735223474430389
0.21063829787234042 0.457136258917423 0.4785642594030374
0.21085106382978724 0.45450706440021515 0.4783833124335582
0.21106382978723404 0.4534070469933755 0.47728382999511476
0.21127659574468086 0.45249099460865294 0.4766118871431149
0.21148936170212765 0.4503016555671477 0.4794650816356118
0.21170212765957447 0.4481128894396333 0.4811218650017271
0.2119148936170213 0.4459290225111775 0.4782160989448901
0.21212765957446808 0.44356221261482365 0.47745125399404914
0.2123404255319149 0.44142078081499725 0.4785482844788956
0.2125531914893617 0.44211040547142155 0.47964373022864365
0.2127659574468085 0.44211040547142155 0.4828424686415855
0.2129787234042553 0.4427588927007821 0.48704560824401727
0.21319148936170212 0.4399921547733458 0.4926742006685107
0.21340425531914894 0.4400760062326638 0.4947902221584088
0.21361702127659574 0.43812995617620704 0.4968969124119707
0.21382978723404256 0.4365696622991747 0.49926094190992465
0.21404255319148935 0.43763727685379994 0.5031222450907077
0.21425531914893617 0.43624816805080613 0.508988060941061
0.214468085106383 0.43779959038292643 0.5155600991830488
0.21468085106382978 0.43599039463587774 0.5221461624897068
0.2148936170212766 0.43353545219587303 0.5256990027894949
0.2151063829787234 0.43244085831328716 0.5348977187723565
0.2153191489361702 0.431362970200293 0.5330633877598876
0.21553191489361703 0.431362970200293 0.537724269568446
0.21574468085106382 0.431362970200293 0.5368832437713726
0.21595744680851064 0.4317074106298007 0.5379165650598957
0.21617021276595744 0.43187698725378637 0.5361101823488061
0.21638297872340426 0.42961213691501743 0.5319980459208598
0.21659574468085105 0.42984357392134653 0.5284687398424569
0.21680851063829787 0.4303859306301905 0.5238075018828843
0.2170212765957447 0.43133377292124214 0.521309005207833
0.21723404255319148 0.43225302612583666 0.5182325082948646
0.2174468085106383 0.43094626987540696 0.5175508025317639
0.2176595744680851 0.42973542959376015 0.5179929534057514
0.2178723404255319 0.43083072873004613 0.5124496732709086
0.21808510638297873 0.431362970200293 0.501514591721979
0.21829787234042553 0.43204931630568133 0.49093819991338694
0.21851063829787234 0.43314734760656654 0.4751138598875103
0.21872340425531914 0.43796402517767385 0.46124589013538037
0.21893617021276596 0.43827693403161533 0.443846534732063
0.21914893617021278 0.4401606195701904 0.42685742575648855
0.21936170212765957 0.44278066553034906 0.41349782894555986
0.2195744680851064 0.4406021782892207 0.4024784613676858
0.21978723404255318 0.441133365901319 0.3948952595298691
0.22 0.44244324528850915 0.3912936078855069
0.2202127659574468 0.4438457758617098 0.39411896235691235
0.2204255319148936 0.4467053992891709 0.39785342078404157
0.22063829787234043 0.44613960173652684 0.40319827584589085
0.22085106382978723 0.45018895544509546 0.4105829058152855
0.22106382978723405 0.4457530404900269 0.41528434403215914
0.22127659574468084 0.44426742053385176 0.4151591693529992
0.22148936170212766 0.44512317238688637 0.40618310449591655
0.22170212765957448 0.45015324662724254 0.39441394600745583
0.22191489361702127 0.45188080117244755 0.3822424185009384
0.2221276595744681 0.4510034249340207 0.3751929917927222
0.22234042553191488 0.45190146873816806 0.3717015537268737
0.2225531914893617 0.4527169684011483 0.3698185441035399
0.22276595744680852 0.4526606276838297 0.3748918881930633
0.2229787234042553 0.45519186494958014 0.37388043119461234
0.22319148936170213 0.45728244902328546 0.3781608639884915
0.22340425531914893 0.45933795703385466 0.3793211548135804
0.22361702127659575 0.45896077635239757 0.3800755161764943
0.22382978723404254 0.462147286417497 0.3814137146185414
0.22404255319148936 0.4617002886262789 0.38153395212506114
0.22425531914893618 0.4646482854600865 0.38375191077048776
0.22446808510638297 0.46574405741346625 0.3875808918052591
0.2246808510638298 0.46683760433075894 0.389276857936097
0.22489361702127658 0.4670913916648363 0.3942586462308551
0.2251063829787234 0.46816746456719144 0.3970562449213349
0.22531914893617022 0.4714590011102506 0.39685337490191874
0.225531914893617 0.4739698056830176 0.3995233455543262
0.22574468085106383 0.4752603164564334 0.40645094015839456
0.22595744680851063 0.4733756717147044 0.4142995754967319
0.22617021276595745 0.4730296679378232 0.42596868007764094
0.22638297872340427 0.47171484779257716 0.43957124936553127
0.22659574468085106 0.4715659387882154 0.4500376843200478
0.22680851063829788 0.47098510394231685 0.4578471008988007
0.22702127659574467 0.47142159257449934 0.46337597976713363
0.2272340425531915 0.4706326331967201 0.46477039577610463
0.22744680851063828 0.47317594885201075 0.46276138501870495
0.2276595744680851 0.4707239465259412 0.4565424842057248
0.22787234042553192 0.4739370646657357 0.45198741187431635
0.22808510638297871 0.467513434294089 0.44593583176813223
0.22829787234042553 0.4683346827346163 0.4415439901215827
0.22851063829787233 0.4673412212217003 0.44157883241827317
0.22872340425531915 0.4649053730504263 0.441133365901319
0.22893617021276597 0.46535901379552747 0.44346346053655816
0.22914893617021276 0.45927409933309404 0.44765605936636377
0.22936170212765958 0.4597385963426243 0.44687116749386635
0.22957446808510637 0.46018178856636255 0.44324387004994636
0.2297872340425532 0.4574570929237592 0.4366057757373795
0.23 0.45717067743306433 0.42674382493925506
0.2302127659574468 0.4572188748667935 0.4173992646891114
0.23042553191489362 0.45676599902296044 0.40606337205701387
0.23063829787234041 0.45371996622898925 0.40205178309721545
0.23085106382978723 0.45639587222167044 0.3976292437483151
0.23106382978723405 0.45473001038464034 0.39654448683509735
0.23127659574468085 0.4520291618317031 0.4099295847027226
0.23148936170212767 0.4525881286834285 0.4192365938472325
0.23170212765957446 0.44992836346044024 0.43311770199880284
0.23191489361702128 0.44648568153238216 0.4437257788580826
0.23212765957446807 0.4466489545499758 0.4526691205052298
0.2323404255319149 0.4454819167914984 0.46033001904416615
0.2325531914893617 0.44415954049066003 0.46606111532882033
0.2327659574468085 0.4439768080995499 0.4735802502428839
0.23297872340425532 0.44098094141365385 0.4817391935820746
0.23319148936170211 0.4401563263312165 0.49410390619167593
0.23340425531914893 0.4409529234574254 0.5074290278997188
0.23361702127659575 0.4410985690014645 0.5190689884733838
0.23382978723404255 0.44077002996842657 0.5316591412351355
0.23404255319148937 0.44185976551468664 0.5414667611514766
0.23425531914893616 0.4454833242948644 0.5513115881148373
0.23446808510638298 0.44023802540042184 0.5573329921858561
0.2346808510638298 0.43946617793391196 0.5538754380268478
0.2348936170212766 0.44147651749746597 0.5571897787522087
0.2351063829787234 0.43819173546355195 0.5580699540026942
0.2353191489361702 0.43624816805080613 0.5613092330239375
0.23553191489361702 0.4385116336464235 0.5618750994228419
0.23574468085106381 0.43741339063296303 0.5629720065186034
0.23595744680851063 0.43624816805080613 0.5656853245065598
0.23617021276595745 0.43531005778162013 0.5699468719511939
0.23638297872340425 0.436149116898564 0.5663925331789347
0.23659574468085107 0.4352711284807034 0.566588948136784
0.23680851063829786 0.4345712566146836 0.5606093611579177
0.23702127659574468 0.4337992274198072 0.5530868388527166
0.2372340425531915 0.43429408891060084 0.54111236645932
0.2374468085106383 0.4335428239229253 0.5250887785509907
0.2376595744680851 0.4333170493404983 0.5078811931549095
0.2378723404255319 0.43321507002275805 0.48598344285986816
0.23808510638297872 0.43191990422582793 0.4650744429069571
0.23829787234042554 0.4351390997745768 0.4566240545914913
0.23851063829787233 0.43835829532332526 0.44817366627602667
0.23872340425531915 0.4378387666233122 0.4460185637518319
0.23893617021276595 0.43860608324838973 0.4467090015655724
0.23914893617021277 0.44156072222384524 0.43985129693374014
0.23936170212765956 0.4439476763074291 0.4382022471910112
0.23957446808510638 0.44406448461162684 0.431145022988308
0.2397872340425532 0.44426598192806405 0.4298423327050459
0.24 0.446312636930521 0.4343177939191097
0.2402127659574468 0.44939218774213435 0.4336675256103797
0.2404255319148936 0.44878156507110784 0.4398517563252413
0.24063829787234042 0.4472674066863857 0.44590838986412956
0.24085106382978724 0.4486722625756174 0.4503489218293001
0.24106382978723404 0.44894968246213973 0.4489552318588719
0.24127659574468086 0.45324191394409513 0.44813438042503206
0.24148936170212765 0.4563097256814404 0.4323424213364374
0.24170212765957447 0.457743038593063 0.4168809780336474
0.2419148936170213 0.4582668395252521 0.4014872847430094
0.24212765957446808 0.4587200781631655 0.38965452050331645
0.2423404255319149 0.4595087254475742 0.38503024769245087
0.2425531914893617 0.458773662123137 0.38631198205563094
0.2427659574468085 0.459539888174192 0.38763203388429096
0.2429787234042553 0.457743038593063 0.38861309710881947
0.24319148936170212 0.45739741139744516 0.38009160132583897
0.24340425531914894 0.4582058537324537 0.3737519084251212
0.24361702127659574 0.4621546334486969 0.3637766303488922
0.24382978723404256 0.4621946152750452 0.3520087383195346
0.24404255319148935 0.4632654301042368 0.3436418300040038
0.24425531914893617 0.4617323884719849 0.33870659423757027
0.244468085106383 0.46351434257540053 0.34202093038052345
0.24468085106382978 0.46308024948787446 0.3498236389151126
0.2448936170212766 0.4660259134323065 0.3606112986775183
0.2451063829787234 0.467996745503731 0.368380377956541
0.2453191489361702 0.46502063520882986 0.3767491545945534
0.24553191489361703 0.4636052760136786 0.38564126869157556
0.24574468085106382 0.4636052760136786 0.39543278048102765
0.24595744680851064 0.4607750895360159 0.4025059781441186
0.24617021276595744 0.46226538068744766 0.41211513437458747
0.24638297872340426 0.46163073145722044 0.4211918547829722
0.24659574468085105 0.46224374360377274 0.4297933838998912
0.24680851063829787 0.45949854679091906 0.43430199648142237
0.2470212765957447 0.45944324524565233 0.4384176692982661
0.24723404255319148 0.46141521216692577 0.4417564284116002
0.2474468085106383 0.4657268451073127 0.4399679001336088
0.2476595744680851 0.47321683074215737 0.43009224241991667
0.2478723404255319 0.47067859625051306 0.4206799271493244
0.24808510638297873 0.4665363947239862 0.4109965553052642
0.24829787234042552 0.4654825748273346 0.4032486113094476
0.24851063829787234 0.46326271726351437 0.3961389089962102
0.24872340425531914 0.46024066516938067 0.39662303781059016
0.24893617021276596 0.45783672581363716 0.3999571731261489
0.24914893617021278 0.45454881967434146 0.40755088143402696
0.24936170212765957 0.4516619185851806 0.41530843604931494
0.2495744680851064 0.45019376370860587 0.4241655243978595
0.24978723404255318 0.4494393846576468 0.4367520591717833
0.25 0.450549348770097 0.44620057873079816
0.2502127659574468 0.449391172030409 0.4540230011797806
0.25042553191489364 0.44984053034962107 0.458461503115302
0.25063829787234043 0.44992672203224227 0.4631492902674452
0.2508510638297872 0.4497368700950813 0.47106966858447485
0.251063829787234 0.44894968246213973 0.46881325665271917
0.25127659574468086 0.449871162219886 0.47993714964364115
0.25148936170212766 0.449107954516242 0.49228337490034707
0.25170212765957445 0.44357194987575616 0.5063594562657753
0.2519148936170213 0.44039511996005987 0.5181025633653091
0.2521276595744681 0.44112840696543243 0.5251290153148219
0.2523404255319149 0.4437285345573476 0.5266957252573763
0.2525531914893617 0.4418311925286754 0.5312536152265427
0.2527659574468085 0.44335758950170245 0.5309377032559732
0.2529787234042553 0.44305148296482855 0.5290669272105519
0.2531914893617021 0.44464815160719984 0.527315926223833
0.25340425531914895 0.44640107451492694 0.5240964830004479
0.25361702127659574 0.4446617699079555 0.520092911904631
0.25382978723404254 0.44495462293433635 0.5228570848003645
0.2540425531914894 0.4432045999603932 0.5205078809173669
0.2542553191489362 0.4462713103777374 0.5275104532850917
0.25446808510638297 0.4418590299336283 0.5246844804356255
0.25468085106382976 0.4414910550815664 0.5250627409595022
0.2548936170212766 0.44116062592536404 0.5232046897899365
0.2551063829787234 0.44134474336990104 0.5202336471932251
0.2553191489361702 0.4385508505337646 0.5147599370017665
0.25553191489361704 0.433911709613109 0.5101207960811108
0.25574468085106383 0.438018956068095 0.5085857544629808
0.2559574468085106 0.4340928559554838 0.5044397050028702
0.2561702127659574 0.43191854557146364 0.5020802028284599
0.25638297872340426 0.43489500131930214 0.5045652670009367
0.25659574468085106 0.435008740100906 0.5057687317982591
0.25680851063829785 0.43226143622592494 0.5083355838589939
0.2570212765957447 0.4332993735331423 0.5121256827263218
0.2572340425531915 0.4335295981800594 0.5185731803631398
0.2574468085106383 0.43420053231953054 0.5229240200167256
0.25765957446808513 0.431439293443285 0.524105406117047
0.2578723404255319 0.4338625981561719 0.5205314593923497
0.2580851063829787 0.4321566276463924 0.5153072028710859
0.2582978723404255 0.4327558792591341 0.5066889683258078
0.25851063829787235 0.4313968575762846 0.4932524897098459
0.25872340425531914 0.4329645910171213 0.4827624923690901
0.25893617021276594 0.4348067725593994 0.4755136010880669
0.2591489361702128 0.437005060124892 0.4596142923092044
0.2593617021276596 0.4410949066522666 0.4488343047149824
0.25957446808510637 0.43806975108219065 0.4392288535694725
0.2597872340425532 0.43848310065131907 0.43356862794658035
0.26 0.4410036297607101 0.43466301414750463
0.2602127659574468 0.4406419812128339 0.4386840822013836
0.2604255319148936 0.44150075033879704 0.4408910952061726
0.26063829787234044 0.4418652227465911 0.44308375371230513
0.26085106382978723 0.4438100336323937 0.44406448461162684
0.261063829787234 0.44698086516726404 0.4479529920191433
0.2612765957446809 0.45142171630410693 0.43446772996110733
0.26148936170212767 0.4486815496694285 0.42488731760302845
0.26170212765957446 0.4519830862467782 0.4087394095977574
0.26191489361702125 0.45816942883523953 0.39576315543442325
0.2621276595744681 0.45787121951979987 0.38476344955589487
0.2623404255319149 0.45268806003617235 0.37489328629740387
0.2625531914893617 0.45435905444307023 0.3677840894528921
0.26276595744680853 0.45481191988275516 0.36307985420931144
0.2629787234042553 0.4576493181839421 0.3640409602723353
0.2631914893617021 0.45676599902296044 0.3651358500689985
0.26340425531914896 0.45709619579269334 0.36887308993101575
0.26361702127659575 0.45729497287974863 0.3742466094210286
0.26382978723404255 0.45732899252075937 0.3770955965510342
0.26404255319148934 0.45706180496954407 0.3816235738554127
0.2642553191489362 0.45676599902296044 0.38490338933123786
0.264468085106383 0.4576807533048857 0.39093063609702344
0.26468085106382977 0.4576888182256397 0.39542938757619034
0.2648936170212766 0.45744617712634683 0.39912066438690763
0.2651063829787234 0.4606741573033708 0.39883617645743313
0.2653191489361702 0.462271548348589 0.3989423203394142
0.265531914893617 0.4661314648477537 0.40267961939696445
0.26574468085106384 0.46814865364104974 0.41069987593017016
0.26595744680851063 0.4692449256318126 0.41302180617082546
0.2661702127659574 0.47033846497092524 0.4180249275881314
0.2663829787234043 0.47142159257449934 0.414801268479226
0.26659574468085107 0.4712949685226492 0.4190413279445098
0.26680851063829786 0.4709339094839073 0.4233053221775547
0.2670212765957447 0.4716780668602571 0.4291524167743301
0.2672340425531915 0.47140620748526124 0.4303859306301905
0.2674468085106383 0.47360150557405567 0.43219024077437135
0.2676595744680851 0.475074938899378 0.4333170493404983
0.26787234042553193 0.4761650741118412 0.43916431213901946
0.2680851063829787 0.4763067904250122 0.4468585636329159
0.2682978723404255 0.47904756960744405 0.4560744687446719
0.26851063829787236 0.477066977730195 0.46067174854744336
0.26872340425531915 0.4773117975376687 0.46918844614851646
0.26893617021276595 0.47923790913532005 0.47554062438736017
0.26914893617021274 0.4770034912255225 0.4797965136127694
0.2693617021276596 0.4753297508549097 0.4795373878069031
0.2695744680851064 0.4745316897978554 0.4784398480782658
0.26978723404255317 0.4752748924627647 0.4764165072093022
0.27 0.47637399242427186 0.47172661215200573
0.2702127659574468 0.47690071146484064 0.46090420305734225
0.2704255319148936 0.47501715930697863 0.45195933102506647
0.27063829787234045 0.47391905733584827 0.44537071919828497
0.27085106382978724 0.47282048496053775 0.43933447170058804
0.27106382978723403 0.47037180954584845 0.4412788528184154
0.2712765957446808 0.46470044073440137 0.45023805409136336
0.2714893617021277 0.4590165231147472 0.45646955407137874
0.27170212765957447 0.45353913951636354 0.4607924536218864
0.27191489361702126 0.4484016036738222 0.461943137958179
0.2721276595744681 0.4450415241817294 0.4561938111611195
0.2723404255319149 0.4435144974600372 0.44959026108990924
0.2725531914893617 0.4396161126193183 0.4465243148458321
0.2727659574468085 0.43694225063322717 0.44384561192747424
0.27297872340425533 0.43926992991041125 0.4496648101204344
0.2731914893617021 0.43576783361791116 0.46065778659905776
0.2734042553191489 0.4352711284807034 0.4736698100089262
0.27361702127659576 0.43498897832260197 0.487064711679393
0.27382978723404255 0.43305806605055963 0.49628324588595935
0.27404255319148935 0.43120535115469477 0.5097783924523268
0.2742553191489362 0.4284101240144972 0.5183629468903997
0.274468085106383 0.4256064024389828 0.5221219805605287
0.2746808510638298 0.4259863742312707 0.5261300518333281
0.27489361702127657 0.4256291869025189 0.5296586044121308
0.2751063829787234 0.424529752704019 0.5319859269319719
0.2753191489361702 0.4236577091445556 0.5329750854909623
0.275531914893617 0.4256604011646891 0.5318383775358482
0.27574468085106385 0.4287217328268163 0.5277463085238137
0.27595744680851064 0.4265785235703075 0.5236076946720462
0.27617021276595743 0.4292060544335797 0.5192965315095261
0.2763829787234042 0.43104099862808704 0.5160490036537546
0.2765957446808511 0.4311548904048094 0.5105665347859184
0.27680851063829787 0.43225316762992094 0.5121967280973836
0.27702127659574466 0.43230363393992155 0.506340386284873
0.2772340425531915 0.43120339192959545 0.49991531837817194
0.2774468085106383 0.43066408754252156 0.4993419951159215
0.2776595744680851 0.431362970200293 0.4926657386134105
0.27787234042553194 0.4350091969788768 0.48594770710705254
0.27808510638297873 0.4375572125418208 0.47702772584473824
0.2782978723404255 0.4449039980952402 0.4680005183826722
0.2785106382978723 0.4434295690917231 0.45405527491824665
0.27872340425531916 0.4451921871726353 0.43677321864819085
0.27893617021276595 0.44863057932384504 0.42294790767332024
0.27914893617021275 0.448414606395625 0.40390828674853596
0.2793617021276596 0.45188080117244755 0.3873111986084461
0.2795744680851064 0.4492318774752952 0.38340550135650786
0.2797872340425532 0.44504333592483447 0.3857647706903304
0.27999999999999997 0.44098626254385903 0.39278307816427027
0.2802127659574468 0.4401563263312165 0.4022466057298719
0.2804255319148936 0.43935025928133686 0.4208548964574771
0.2806382978723404 0.4445272303533462 0.4288430491450408
0.28085106382978725 0.44755341257969117 0.4384794050818328
0.28106382978723404 0.45217479220362666 0.44608017820005613
0.28127659574468084 0.45623989057663195 0.44894968246213973
0.2814893617021277 0.4583912214920507 0.44960024797193787
0.2817021276595745 0.46124708349651367 0.44837675626899687
0.28191489361702127 0.4643533631258263 0.4479726428920372
0.28212765957446806 0.4627679154167823 0.44490184520852294
0.2823404255319149 0.46539095102093103 0.4414367889396109
0.2825531914893617 0.46400418403039706 0.43762411563762715
0.2827659574468085 0.465923666115731 0.4341885245057091
0.28297872340425534 0.46776529541017653 0.4297554156437611
0.28319148936170213 0.46687987085265453 0.4271113357912146
0.2834042553191489 0.4690825166809134 0.4264777723497801
0.2836170212765957 0.4658375096497041 0.4246627704574853
0.28382978723404256 0.467513434294089 0.427878273463031
0.28404255319148936 0.4678084690155591 0.4114715621217282
0.28425531914893615 0.4689342734371302 0.4013396622516011
0.284468085106383 0.46712693835227614 0.39114349900189266
0.2846808510638298 0.4639909256092166 0.3838736808608044
0.2848936170212766 0.46290445538529695 0.37777417658959034
0.2851063829787234 0.4703151851364425 0.3734350783301908
0.2853191489361702 0.46205671413045063 0.37532607549767555
0.285531914893617 0.45680206358982317 0.37375370013110315
0.2857446808510638 0.4608770432700666 0.3791189358170245
0.28595744680851065 0.45553781545713995 0.3835155676780353
0.28617021276595744 0.4555507463808059 0.38974386921680215
0.28638297872340424 0.4577441074528165 0.3976577771811376
0.2865957446808511 0.4629771978048954 0.40435482359874003
0.2868085106382979 0.46483004927930116 0.4062076750731458
0.28702127659574467 0.47052155650029076 0.41020225631798973
0.28723404255319146 0.47238841025064043 0.40794468619971513
0.2874468085106383 0.47522225925072525 0.40010731908945324
0.2876595744680851 0.4754873116173206 0.39137370713017855
0.2878723404255319 0.47923790913532005 0.3876721746611235
0.28808510638297874 0.48018272988162525 0.38594673960242143
0.28829787234042553 0.4788174611564309 0.3866293739650185
0.2885106382978723 0.475848591580162 0.39241952399801155
0.28872340425531917 0.47448823196942147 0.399284579849323
0.28893617021276596 0.479173397395319 0.4107032134001364
0.28914893617021276 0.47055069544995354 0.4173442313220959
0.28936170212765955 0.4709658541540351 0.4246204369614589
0.2895744680851064 0.4677181418910115 0.43101309589163656
0.2897872340425532 0.46363722109260413 0.431803572366956
0.29 0.4644104711818421 0.4327229710944096
0.2902127659574468 0.46627387426082656 0.4323400097703958
0.2904255319148936 0.46234764979383586 0.42480026889612493
0.2906382978723404 0.45972975664687765 0.41682161284638714
0.2908510638297872 0.45655412890109043 0.4103977749627111
0.29106382978723405 0.45481191988275516 0.4161262007972871
0.29127659574468084 0.45411534608343906 0.4254915515243777
0.29148936170212764 0.44908386024340796 0.4446725352832417
0.2917021276595745 0.44563399525751873 0.46526849666548775
0.2919148936170213 0.44196937891386395 0.4815445546694193
0.29212765957446807 0.43937777575311887 0.49619834364130516
0.2923404255319149 0.43917928676111373 0.5059440047181833
0.2925531914893617 0.4373906300547215 0.5184187453997113
0.2927659574468085 0.44134058050328223 0.5223283656051263
0.2929787234042553 0.43694612610077904 0.529206213720968
0.29319148936170214 0.4358448824570493 0.53320790270213
0.29340425531914893 0.4378990912841016 0.5375571274345656
0.2936170212765957 0.4369253727404506 0.5417529346361399
0.29382978723404257 0.4345018742769905 0.553515040043969
0.29404255319148936 0.43786139335999974 0.5537485568363754
0.29425531914893616 0.4353077370558939 0.5605884534801681
0.29446808510638295 0.4367217201323578 0.5666979183630012
0.2946808510638298 0.43834853079934455 0.5642403517342451
0.2948936170212766 0.4358508920747805 0.5650349036862963
0.2951063829787234 0.43475467897694925 0.5646450823631879
0.29531914893617023 0.4355686396169483 0.5600769353982741
0.295531914893617 0.43473075960110386 0.5591368185384807
0.2957446808510638 0.4325343207425618 0.5452770085394191
0.29595744680851066 0.43809517680500254 0.5408449372447873
0.29617021276595745 0.43224224489945334 0.5353196149756156
0.29638297872340424 0.4311405391869492 0.5289318117139358
0.29659574468085104 0.4310796749823067 0.5237712802259091
0.2968085106382979 0.4323400097703958 0.5207795863685897
0.2970212765957447 0.42996088595584336 0.5190840091723525
0.29723404255319147 0.4305825242965401 0.5118674735197591
0.2974468085106383 0.4305227315313554 0.5078456584706249
0.2976595744680851 0.4313474446371392 0.5018029726266022
0.2978723404255319 0.43419025793247107 0.49316668583995016
0.29808510638297875 0.43444504313595694 0.48502383686431516
0.29829787234042554 0.4388987608055908 0.47303701745587035
0.29851063829787233 0.4378036680533362 0.4560767695244619
0.2987234042553191 0.4364601506552012 0.437865954408806
0.298936170212766 0.43938010341594647 0.422743387020142
0.29914893617021276 0.44184526459856593 0.40866039662129006
0.29936170212765956 0.44114038069574185 0.40693698094772834
0.2995744680851064 0.4432036708730643 0.4026329122549164
0.2997872340425532 0.44501690195209537 0.4083656069584311
0.3 0.4472561606328228 0.4160233885348086
0.3002127659574468 0.44553680455902933 0.42689192562009604
0.30042553191489363 0.4450415241817294 0.43719644418728193
0.3006382978723404 0.44650247139398386 0.44380869436185294
0.3008510638297872 0.44699560332193444 0.4484571732340849
0.30106382978723406 0.45187025627179694 0.4489461674952562
0.30127659574468085 0.4495068093868969 0.4471926651973771
0.30148936170212765 0.45474303321088044 0.43818186898207856
0.3017021276595745 0.458090821915072 0.42773628484596726
0.3019148936170213 0.4582506135476627 0.4227220554257574
0.3021276595744681 0.4571529139067614 0.41512070767114984
0.30234042553191487 0.45747790414808104 0.4092396927427406
0.3025531914893617 0.457743038593063 0.4037524323175525
0.3027659574468085 0.4596541292840317 0.4011177319763495
0.3029787234042553 0.462729692015293 0.3997293978172103
0.30319148936170215 0.46382518934691663 0.40410324847457124
0.30340425531914894 0.4652686629678486 0.40347695937134886
0.30361702127659573 0.4641998489875 0.4060447839286419
0.3038297872340425 0.4628281760560473 0.4057713310112814
0.3040425531914894 0.46289583306965587 0.40551809505968317
0.30425531914893617 0.46596340704667805 0.40414910915674757
0.30446808510638296 0.46749464343167957 0.40304761352972734
0.3046808510638298 0.46540921098348975 0.40055793390229505
0.3048936170212766 0.47150537844889123 0.3946263517091062
0.3051063829787234 0.46917878250696593 0.3879736514003329
0.30531914893617024 0.4704445530043966 0.38404356624041097
0.30553191489361703 0.47456014886519265 0.3807471648976796
0.3057446808510638 0.47088152709337505 0.3788685059957737
0.3059574468085106 0.470159100042851 0.38194008577207245
0.30617021276595746 0.46948485284013947 0.38155129153090656
0.30638297872340425 0.4684904738641915 0.38369964137931245
0.30659574468085105 0.46802975578726186 0.3872849827131901
0.3068085106382979 0.46760361670670664 0.3939699082881058
0.3070212765957447 0.46946751343429405 0.39569085447971025
0.3072340425531915 0.4682601550084105 0.39558586646365806
0.30744680851063827 0.46678482859675074 0.3944839004091592
0.3076595744680851 0.4699329128417355 0.3959337255952693
0.3078723404255319 0.4713771849249304 0.4008527052792683
0.3080851063829787 0.47037457397676957 0.40226172018009654
0.30829787234042555 0.4692740355818472 0.4057568132173107
0.30851063829787234 0.4684904738641915 0.41235540243128854
0.30872340425531913 0.4667466805776906 0.42094634032393763
0.308936170212766 0.462349897193751 0.42647634625192254
0.3091489361702128 0.4593072436883034 0.4335096319052899
0.30936170212765957 0.45791212023622613 0.4425427498231585
0.30957446808510636 0.46052922636515037 0.4477794016410766
0.3097872340425532 0.4547367806960448 0.45105403997576554
0.31 0.4538348803126526 0.4530572094669248
0.3102127659574468 0.45415636059172293 0.4535134000335823
0.31042553191489364 0.45703129740217163 0.4528578407425501
0.31063829787234043 0.45629954091215885 0.4528578407425501
0.3108510638297872 0.4524602627616258 0.4569816933956306
0.311063829787234 0.4535069127071264 0.4635984127672024
0.31127659574468086 0.4538348803126526 0.4730456251523534
0.31148936170212765 0.44886500018906056 0.4811464537092938
0.31170212765957445 0.4471505831333002 0.49198995867497236
0.3119148936170213 0.44406448461162684 0.49913917698833105
0.3121276595744681 0.44406448461162684 0.50516757859773
0.3123404255319149 0.44406448461162684 0.5069451857529069
0.3125531914893617 0.44406448461162684 0.5099549924063999
0.3127659574468085 0.44323709932754424 0.5138127165149328
0.3129787234042553 0.44403906636646095 0.5163145763088866
0.3131914893617021 0.4437805824298144 0.5166493149810307
0.31340425531914895 0.441133365901319 0.519082329053459
0.31361702127659574 0.4414543451585302 0.5186404711966348
0.31382978723404253 0.44211040547142155 0.5250314141237903
0.3140425531914894 0.4387396533082559 0.5331216299752484
0.3142553191489362 0.44034634253341287 0.5366842413828029
0.31446808510638297 0.44130944265650673 0.5418650974160497
0.31468085106382976 0.4328331760657104 0.5436677245070559
0.3148936170212766 0.43338593890473254 0.5426077020635198
0.3151063829787234 0.43410548903974266 0.5406028021809248
0.3153191489361702 0.43486460579969743 0.538885828606161
0.31553191489361704 0.4364736826259297 0.5338582557824801
0.31574468085106383 0.4326366401411087 0.5261765863185064
0.3159574468085106 0.43069715886152304 0.5232046897899365
0.31617021276595747 0.42960179331029985 0.5161474539109203
0.31638297872340426 0.4303136762540085 0.5089826224954893
0.31659574468085105 0.4303348821995973 0.5014035286641204
0.31680851063829785 0.4297673821035453 0.4947721086966918
0.3170212765957447 0.4307595797987068 0.49119212520962074
0.3172340425531915 0.4306881565991795 0.4926142371477673
0.3174468085106383 0.4295905534173352 0.4893127101647148
0.3176595744680851 0.4281273744709696 0.4866861401640695
0.3178723404255319 0.4260424078504027 0.4876701485524265
0.3180851063829787 0.4301059016478523 0.4861891977189733
0.3182978723404255 0.4305824672565616 0.48275299416298817
0.31851063829787235 0.4333170493404983 0.4761710960326571
0.31872340425531914 0.4339321913900447 0.4701913084754065
0.31893617021276593 0.4365619234627433 0.4610594593838894
0.3191489361702128 0.4393135060302248 0.4517465819033365
0.3193617021276596 0.4401563263312165 0.44613942065599477
0.31957446808510637 0.4409604144111319 0.4416522203718805
0.3197872340425532 0.4420620936490958 0.44391954914464965
0.32 0.4454411898019361 0.4361149461774039
0.3202127659574468 0.45015174378140876 0.4333540666344308
0.3204255319148936 0.4479112200055054 0.42666204100937516
0.32063829787234044 0.44956402885484575 0.4189834156308804
0.32085106382978723 0.4486072632908888 0.4146779705930736
0.321063829787234 0.4491237736425814 0.4095199172971529
0.32127659574468087 0.4526631764119948 0.40322348699787325
0.32148936170212766 0.4573101460494193 0.3979245802476367
0.32170212765957445 0.46262823644357587 0.3910698124648931
0.32191489361702125 0.4627276815645179 0.3944343567782787
0.3221276595744681 0.4635987037157996 0.3961764010808418
0.3223404255319149 0.4644368815884409 0.40034757355041145
0.3225531914893617 0.4655772608559287 0.40555199725177715
0.3227659574468085 0.4665363947239862 0.41149732193972793
0.3229787234042553 0.4665363947239862 0.4195108101582925
0.3231914893617021 0.4656834809978895 0.42525248109166586
0.32340425531914896 0.46458231558378116 0.4300752980514323
0.32361702127659575 0.46370929235571423 0.43516711213866777
0.32382978723404254 0.46360193488755824 0.43624816805080613
0.32404255319148934 0.46509650665674684 0.43419140375894316
0.3242553191489362 0.4676408544207422 0.4297381356868225
0.324468085106383 0.46891726026534736 0.42690455875093597
0.32468085106382977 0.4697319941410407 0.4239947317960816
0.3248936170212766 0.4739833345090168 0.4190308325647497
0.3251063829787234 0.4753297508549097 0.41523418354031033
0.3253191489361702 0.47906002703109574 0.4166184355966422
0.325531914893617 0.48057840284151027 0.4097227180036011
0.32574468085106384 0.48452340299294616 0.4075295248091714
0.32595744680851063 0.48155189692527217 0.4065770722979813
0.3261702127659574 0.4836267040737805 0.4066346122546967
0.32638297872340427 0.48422635143835285 0.40661357916233337
0.32659574468085106 0.4785580366957598 0.403963093148183
0.32680851063829786 0.4765096697898186 0.39740682186543813
0.3270212765957447 0.4772000111210389 0.3836844559322259
0.3272340425531915 0.47435271128480694 0.3713173411417009
0.3274468085106383 0.4740448268322305 0.35926937045136287
0.3276595744680851 0.4716366290325492 0.3538838785455368
0.3278723404255319 0.46875108656187103 0.35170153962662437
0.3280851063829787 0.467513434294089 0.35875396022532713
0.3282978723404255 0.4669382833876474 0.37314965436627745
0.32851063829787236 0.4658418272416504 0.38999838521989405
0.32872340425531915 0.4614874524531336 0.4088943162590952
0.32893617021276594 0.4597488614642269 0.43125339142026425
0.32914893617021274 0.4587200781631655 0.44770875995547876
0.3293617021276596 0.45853539319445247 0.4588511484053412
0.3295744680851064 0.45713074904656903 0.4657482894264076
0.32978723404255317 0.45536287436435813 0.47172280826989577
0.33 0.45372185108452306 0.4750107749120527
0.3302127659574468 0.4548555046731005 0.47364323851761175
0.3304255319148936 0.45421898551497836 0.4708286582067223
0.33063829787234045 0.45837469158450017 0.4695365907500271
0.33085106382978724 0.4548640954365387 0.46946751343429405
0.33106382978723403 0.4557889594528579 0.46964279849211454
0.3312765957446808 0.45430871557823815 0.47192479687901634
0.33148936170212767 0.45131872854768623 0.47740458558161636
0.33170212765957446 0.4492120043270297 0.4802149487054226
0.33191489361702126 0.44756725949736814 0.48192991723172335
0.3321276595744681 0.4486123891842719 0.47994733595455674
0.3323404255319149 0.44585140532928913 0.4798100081316427
0.3325531914893617 0.4432172647135612 0.48477559737584264
0.3327659574468085 0.4428605103869101 0.4811163433906538
0.33297872340425533 0.43977944352211273 0.4797438451940429
0.3331914893617021 0.43778959222807656 0.47725653107649774
0.3334042553191489 0.4363828535996809 0.4755991219526592
0.33361702127659576 0.43698050749637085 0.47679442974603914
0.33382978723404255 0.4383100589864088 0.47945353272611513
0.33404255319148934 0.4386165942195666 0.48344275844171364
0.3342553191489362 0.4375313231818815 0.48979661461984364
0.334468085106383 0.43562797117257585 0.49273804177082
0.3346808510638298 0.43619930184616895 0.5003418500404796
0.33489361702127657 0.43624816805080613 0.5045760410103436
0.3351063829787234 0.43624816805080613 0.5049853450354961
0.3353191489361702 0.43560813772755574 0.5111432057018532
0.335531914893617 0.43745926866956325 0.5133615915927973
0.33574468085106385 0.43705452432485703 0.5144113336590133
0.33595744680851064 0.4349312616818121 0.5156856792014358
0.33617021276595743 0.4338468765719055 0.5192139166168143
0.3363829787234042 0.4341403200140311 0.5186270297325631
0.33659574468085107 0.4333525083989278 0.5164363309160773
0.33680851063829786 0.4314456665925684 0.5185675811162496
0.33702127659574466 0.43193625778029543 0.5226637426150824
0.3372340425531915 0.4316686451575005 0.530334638063242
0.3374468085106383 0.4303495814060925 0.5358057218543916
0.3376595744680851 0.4266221087633891 0.53856530774694
0.33787234042553194 0.4322172900386388 0.537773300430785
0.33808510638297873 0.43269476703000054 0.537682904711673
0.3382978723404255 0.4323400097703958 0.5323505573551948
0.3385106382978723 0.43435267334939454 0.526702756998791
0.33872340425531916 0.4359655495211735 0.5195791500391586
0.33893617021276595 0.4385871100336975 0.5139967058895532
0.33914893617021274 0.4376414329690721 0.50521929345309
0.3393617021276596 0.44034852147847126 0.49751336824638687
0.3395744680851064 0.440140919423919 0.4915880655111238
0.3397872340425532 0.4376447685518132 0.48538178977854674
0.34 0.43985519606868984 0.48236978135397873
0.3402127659574468 0.43824534029540624 0.47517892498952713
0.3404255319148936 0.4401563263312165 0.4684904738641915
0.3406382978723404 0.44094378538056483 0.4666530694157119
0.34085106382978725 0.44347197823667744 0.45934399770255346
0.34106382978723404 0.446590268999694 0.4502322337991101
0.34127659574468083 0.4495737728275014 0.4369283494320272
0.3414893617021277 0.4529014592060461 0.4219284296620824
0.3417021276595745 0.45642459756502884 0.3996701959382011
0.34191489361702126 0.459706695431599 0.37458932045270543
0.34212765957446806 0.4617787415137531 0.35039382250593126
0.3423404255319149 0.46287924767487076 0.3259316757300472
0.3425531914893617 0.4632348814635232 0.3033067111349838
0.3427659574468085 0.46262823644357587 0.2877407228504916
0.34297872340425534 0.46201923404346473 0.2800489087742633
0.34319148936170213 0.46165119687347334 0.2818574547296577
0.3434042553191489 0.4599557222420035 0.2887871167548444
0.34361702127659577 0.45969711773326827 0.3051546040498589
0.34382978723404256 0.45980480437758364 0.31757991394860285
0.34404255319148935 0.4613556572635321 0.33247685475026895
0.34425531914893615 0.46395427114787247 0.3460122664953748
0.344468085106383 0.46317158572742084 0.3621709800148968
0.3446808510638298 0.46106058560045177 0.37137712812695417
0.3448936170212766 0.462098569070386 0.37532458584157324
0.3451063829787234 0.46512877244609513 0.3816498262795866
0.3453191489361702 0.46460405039986385 0.38633221071124313
0.345531914893617 0.46828664635707073 0.39073496327022594
0.3457446808510638 0.4667592237407994 0.3960180986709
0.34595744680851065 0.46717010132698544 0.4051417798011466
0.34617021276595744 0.4665363947239862 0.41270282110840717
0.34638297872340423 0.46594947010193544 0.4182748452408542
0.3465957446808511 0.4676915118450966 0.42274769162037745
0.3468085106382979 0.4659898098623914 0.42521376297400576
0.34702127659574467 0.47226319954719803 0.43411996128536734
0.3472340425531915 0.47087055977351094 0.4302794289379119
0.3474468085106383 0.47366670444802084 0.42940889106008795
0.3476595744680851 0.47212260135073425 0.43326443932938014
0.3478723404255319 0.4738155597803543 0.44059621439686636
0.34808510638297874 0.4727889240986331 0.44373967787827556
0.34829787234042553 0.4740071098217065 0.4550678741170572
0.3485106382978723 0.46839461285833195 0.46046768862177684
0.34872340425531917 0.46564243131363303 0.4660379377654902
0.34893617021276596 0.46270495017726204 0.4745828524858654
0.34914893617021275 0.4643836049518207 0.48091043591728433
0.34936170212765955 0.46288902763257095 0.48614145653465796
0.3495744680851064 0.4602620114411196 0.4854767423611697
0.3497872340425532 0.45969711773326827 0.48857118298172547
0.35 0.4596960947419291 0.48803433424026094
0.3502127659574468 0.4587200781631655 0.49152725720257384
0.3504255319148936 0.45894995794350935 0.49630734138775157
0.3506382978723404 0.4590097047830291 0.4981453674423887
0.35085106382978726 0.4586637982338734 0.5001598399985873
0.35106382978723405 0.4579624996173975 0.505179055479421
0.35127659574468084 0.45607043324578694 0.5159188459943777
0.35148936170212763 0.4517262438737148 0.521734160857012
0.3517021276595745 0.45368371197191626 0.5305675013285481
0.3519148936170213 0.44885207539758576 0.5333167102169012
0.35212765957446807 0.44699560332193444 0.5391135945014071
0.3523404255319149 0.44640339572367466 0.5350178928038805
0.3525531914893617 0.44462491467128856 0.5296422094074354
0.3527659574468085 0.4435280597352959 0.5214037947958255
0.3529787234042553 0.4450610728958787 0.5130564843278115
0.35319148936170214 0.44135225249797516 0.5035037084978176
0.35340425531914893 0.43925974271447205 0.4936405666969807
0.3536170212765957 0.4362121606594426 0.4879952578748798
0.35382978723404257 0.43511505488126545 0.4872102992955787
0.35404255319148936 0.4337426850969963 0.4888583709866502
0.35425531914893615 0.4323400097703958 0.49214191633438265
0.354468085106383 0.42979436460567105 0.49542088978569354
0.3546808510638298 0.4280818903460711 0.49619754297097823
0.3548936170212766 0.4276865383544696 0.49808352123361105
0.3551063829787234 0.42659271708152824 0.4979166056990172
0.3553191489361702 0.4264754447648327 0.49485890433222407
0.355531914893617 0.4256196544152431 0.48891504968635896
0.3557446808510638 0.42669708173720583 0.4781216568515652
0.35595744680851066 0.4277294405270686 0.46421789100785776
0.35617021276595745 0.4280384934122206 0.4542155271417989
0.35638297872340424 0.427966480041798 0.4472757880752103
0.35659574468085103 0.430322728203773 0.4424571528035949
0.3568085106382979 0.43211180713305264 0.442859242404181
0.3570212765957447 0.43493673283611545 0.44741531681772395
0.35723404255319147 0.42940173618937455 0.4587916268702993
0.3574468085106383 0.4285533288031541 0.4701911562485535
0.3576595744680851 0.42964932522133864 0.48289033032937984
0.3578723404255319 0.4303859306301905 0.4851001465559355
0.35808510638297875 0.4299036177413072 0.4846178336670522
0.35829787234042554 0.43181590523303737 0.48231784635612085
0.35851063829787233 0.4333170493404983 0.4790313038870336
0.3587234042553191 0.4349967513706551 0.4765811675350605
0.35893617021276597 0.4343092325473733 0.4686116229583712
0.35914893617021276 0.43722520762090866 0.4680681546919683
0.35936170212765955 0.4378978944045424 0.46480654451165904
0.3595744680851064 0.4401563263312165 0.46657361718155604
0.3597872340425532 0.44192311012711183 0.46937386576213913
0.36 0.4435239156944038 0.47206625975606537
0.3602127659574468 0.4450703393650251 0.4733756717147044
0.3604255319148936 0.44287864988204234 0.47416065018215175
0.3606382978723404 0.44120724324110516 0.47435271128480694
0.3608510638297872 0.4393846439132061 0.4701878565642811
0.36106382978723406 0.4436194628391075 0.4641406410269945
0.36127659574468085 0.4460185637518319 0.4532133523619202
0.36148936170212764 0.4477077497444993 0.43844218356168885
0.3617021276595745 0.4510051973304059 0.42856534622682324
0.3619148936170213 0.4564946835631451 0.4208868503889799
0.3621276595744681 0.4548249484252489 0.41788242984137614
0.36234042553191487 0.4547318449133234 0.4140965578161735
0.3625531914893617 0.4576315722845562 0.4118593342344102
0.3627659574468085 0.45528491815570643 0.412799218368344
0.3629787234042553 0.4583013378102812 0.4114034703252984
0.36319148936170215 0.46090072564849544 0.40871642579464906
0.36340425531914894 0.4621039731935099 0.408295309907838
0.36361702127659573 0.4642415963950006 0.40434658142620106
0.3638297872340425 0.466296627594644 0.40155427778579733
0.36404255319148937 0.4690508816826193 0.3985602565684798
0.36425531914893616 0.4723388374946661 0.3943151927363091
0.36446808510638296 0.4722951493204853 0.3888328545652988
0.3646808510638298 0.4720883627231578 0.38202024695695436
0.3648936170212766 0.474011992305963 0.36996972679695733
0.3651063829787234 0.47521955856522713 0.3597433983046971
0.36531914893617023 0.4726359302294859 0.3532259859488757
0.365531914893617 0.46876556202039504 0.3512457254518808
0.3657446808510638 0.4701364242500229 0.35453762622354373
0.3659574468085106 0.46950088591060585 0.35987221920124507
0.36617021276595746 0.47451643110737757 0.3715094677406278
0.36638297872340425 0.4661141980585084 0.38155821007309815
0.36659574468085104 0.465243116488613 0.39591579237276486
0.3668085106382979 0.4643179818635063 0.40702196581618183
0.3670212765957447 0.46110386687910315 0.41565348875883285
0.3672340425531915 0.4632693737891024 0.4225542805175569
0.36744680851063827 0.46458231558378116 0.427546579923453
0.3676595744680851 0.4671913330989813 0.4345195590254522
0.3678723404255319 0.46477880838022456 0.4425634642510084
0.3680851063829787 0.4646875777878574 0.4442486934687602
0.36829787234042555 0.4679131775357847 0.4513367338486499
0.36851063829787234 0.46458231558378116 0.4562063550960587
0.36872340425531913 0.4649628664487882 0.46300878730858297
0.368936170212766 0.46355390409277947 0.46611208984005886
0.36914893617021277 0.4622747025875872 0.47036099100653317
0.36936170212765956 0.4618860260593297 0.47735927564846875
0.36957446808510636 0.46078923010398926 0.4766520088268677
0.3697872340425532 0.4577507270050351 0.47239094373262974
0.37 0.45922687021700487 0.47129489456103946
0.3702127659574468 0.4606814810987706 0.4692278309138933
0.37042553191489364 0.45481191988275516 0.4630257275888321
0.3706382978723404 0.45384524707081386 0.45533672332137093
0.3708510638297872 0.4516508994388433 0.4470530359576206
0.371063829787234 0.45017851384514057 0.4397129980684011
0.37127659574468086 0.4448374673376729 0.4356576198437264
0.37148936170212765 0.4411523303738824 0.4372125646391997
0.37170212765957444 0.4463080673148484 0.43538571781521773
0.3719148936170213 0.4402385137860671 0.437590446223684
0.3721276595744681 0.43752745432093715 0.4451328724717064
0.3723404255319149 0.4382022471910112 0.4531626035253581
0.3725531914893617 0.44041038604748417 0.4575720934533465
0.3727659574468085 0.43940477683462165 0.46375556068846807
0.3729787234042553 0.43900058274771103 0.4711477040507828
0.3731914893617021 0.43917928676111373 0.4779309310046509
0.37340425531914895 0.4393018472973154 0.48681254934324814
0.37361702127659574 0.4416783016582789 0.49925482298582885
0.37382978723404253 0.4425460473237546 0.5077437897311109
0.3740425531914894 0.4408765859531046 0.5162761777007874
0.37425531914893617 0.4409121778260458 0.5272325954922965
0.37446808510638296 0.43784986972448403 0.5346568799941193
0.37468085106382976 0.4426966889954 0.5429409659684731
0.3748936170212766 0.44046970206230757 0.5536865167054916
0.3751063829787234 0.437969821206632 0.5564627728374877
0.3753191489361702 0.4318664330933528 0.5572432158511795
0.37553191489361704 0.42940889106008795 0.5558698172505879
0.37574468085106383 0.4286249244918623 0.553294006180881
0.3759574468085106 0.4255013268249773 0.5486086096805536
0.37617021276595747 0.4229628205275311 0.5445089336784135
0.37638297872340426 0.4232741467890678 0.5387907917242046
0.37659574468085105 0.4235466536394723 0.5327515893694059
0.37680851063829784 0.42543715011643696 0.5282170529669307
0.3770212765957447 0.43199692512047916 0.5227758339775407
0.3772340425531915 0.42801812591506044 0.5176989035770362
0.3774468085106383 0.4261513733210606 0.513103580028079
0.3776595744680851 0.4263952354282304 0.5063128396170156
0.3778723404255319 0.42802311716371666 0.4968442354618778
0.3780851063829787 0.4277416306405538 0.48296655250404447
0.37829787234042556 0.42664551534378387 0.466289163917739
0.37851063829787235 0.4274065012003736 0.445959427852402
0.37872340425531914 0.42536117465143114 0.4279750434307912
0.37893617021276593 0.43487349756304927 0.42137672131640747
0.3791489361702128 0.4329954012788014 0.4160640805253604
0.3793617021276596 0.43367064349464063 0.4151968420832973
0.37957446808510636 0.4403621331268394 0.4191243401760756
0.3797872340425532 0.442687479815002 0.42159257449926724
0.38 0.44613645710990235 0.4223977848269634
0.3802127659574468 0.447923229295011 0.42256961406936977
0.3804255319148936 0.4501457124313584 0.42369264723888306
0.38063829787234044 0.4532472385486996 0.42511133497352804
0.38085106382978723 0.45543912920508584 0.422292234994811
0.381063829787234 0.45763296092807787 0.4170376096437096
0.38127659574468087 0.459823446095261 0.40936278621006494
0.38148936170212766 0.4626852751972663 0.40126733295853634
0.38170212765957445 0.4651850511362334 0.3943813390192432
0.3819148936170213 0.4664685246038618 0.39507676586624835
0.3821276595744681 0.46648377005481384 0.39418284186722236
0.3823404255319149 0.46521035421068196 0.3932584269662922
0.3825531914893617 0.46419725361477204 0.3932584269662922
0.3827659574468085 0.4651421824582543 0.3945099450531804
0.3829787234042553 0.46458231558378116 0.39672672542613
0.3831914893617021 0.46392336031020487 0.39716658524670256
0.38340425531914896 0.4620401598396361 0.40029681759478747
0.38361702127659575 0.46165119687347334 0.4019759485025441
0.38382978723404254 0.45883474806769575 0.4010365202256028
0.38404255319148933 0.4617853298358461 0.40036596988175566
0.3842553191489362 0.46288237720181147 0.40256006461368654
0.384468085106383 0.4643552202156208 0.4036308901364494
0.38468085106382977 0.4685397163199125 0.40153864208430357
0.3848936170212766 0.4708033210571118 0.3988611609222354
0.3851063829787234 0.4719205313959963 0.39888161401260486
0.3853191489361702 0.47239863214460187 0.39740367727797143
0.38553191489361704 0.47336985461825787 0.39717821943959564
0.38574468085106384 0.47302533205589886 0.39949668433368585
0.38595744680851063 0.4770371738033785 0.4022984392889517
0.3861702127659574 0.47520261777677786 0.4059732830626096
0.38638297872340427 0.4733756717147044 0.408394324621857
0.38659574468085106 0.47398828305467977 0.40902299807750286
0.38680851063829785 0.4736180452800848 0.4108451392281387
0.3870212765957447 0.46994079621605495 0.4099864203534764
0.3872340425531915 0.47044906689584143 0.409872613549481
0.3874468085106383 0.47104782252477434 0.4112189092778637
0.3876595744680851 0.4680001191025177 0.41475696746179413
0.3878723404255319 0.4668986226104582 0.4187710998782727
0.3880851063829787 0.4665480918629598 0.4239942334381165
0.3882978723404255 0.4655593551538837 0.43109166302415247
0.38851063829787236 0.4655593551538837 0.43842492227066165
0.38872340425531915 0.4629999846560657 0.4469813143253977
0.38893617021276594 0.46262823644357587 0.4586724862961168
0.3891489361702128 0.46497349867413684 0.4671222512037331
0.3893617021276596 0.46043800280402425 0.4718939015731925
0.3895744680851064 0.45969711773326827 0.4737349319022737
0.38978723404255317 0.46163274850063374 0.4772561574358552
0.39 0.45997115912979414 0.4820320071473648
0.3902127659574468 0.457743038593063 0.4816909086989495
0.3904255319148936 0.45435294049825814 0.4854296108940311
0.39063829787234045 0.4528668189367734 0.48026881787076225
0.39085106382978724 0.457415696876996 0.4808696321375565
0.39106382978723403 0.4529881366092064 0.48698907776281236
0.3912765957446808 0.4456035803190666 0.49172537316003323
0.39148936170212767 0.442155643329945 0.49766594739169884
0.39170212765957446 0.4399696979495347 0.5042237835329297
0.39191489361702125 0.43785659746508887 0.5039496385061426
0.3921276595744681 0.4379899086633317 0.5034515598602052
0.3923404255319149 0.44086466849559725 0.5054388459242752
0.3925531914893617 0.4392454971919895 0.5047402536043009
0.39276595744680853 0.4409749772774149 0.5078888339161033
0.3929787234042553 0.4407184690906889 0.5100882785679727
0.3931914893617021 0.443321523029191 0.5114802149487054
0.3934042553191489 0.44347198764193024 0.5140961091817039
0.39361702127659576 0.4433872642116467 0.5208344183900062
0.39382978723404255 0.44482109638817857 0.5232046897899365
0.39404255319148934 0.4432921579872108 0.5275781052762326
0.3942553191489362 0.44211040547142155 0.5301584442950646
0.394468085106383 0.4418380918523499 0.5372917141999802
0.3946808510638298 0.4401563263312165 0.5398143624816805
0.39489361702127657 0.4397791711605061 0.5417001383352322
0.3951063829787234 0.43818074872084667 0.5456980983724605
0.3953191489361702 0.4347489692554369 0.5478917586551345
0.395531914893617 0.4333170493404983 0.5471328023653989
0.39574468085106385 0.4333170493404983 0.5457946747127379
0.39595744680851064 0.4342555339430711 0.5456765999022961
0.39617021276595743 0.4323400097703958 0.5414542689382964
0.3963829787234043 0.43213796830276563 0.5374562004062151
0.39659574468085107 0.431362970200293 0.5346045156734012
0.39680851063829786 0.43180841088450883 0.5319980459208598
0.39702127659574465 0.43177288088436777 0.5331323036929156
0.3972340425531915 0.43341844328876866 0.5353224404533821
0.3974468085106383 0.440737001139417 0.5391276603156782
0.3976595744680851 0.4337776764139202 0.542591938834181
0.39787234042553193 0.43443174414983465 0.538080219095792
0.3980851063829787 0.4366317837567047 0.5273226562286522
0.3982978723404255 0.4388265851758071 0.5191870254816721
0.3985106382978723 0.4414461452190601 0.503819760316304
0.39872340425531916 0.4436380715889644 0.4917447689454268
0.39893617021276595 0.4447403358670383 0.4742130518433216
0.39914893617021274 0.4490370897659023 0.45810200334534185
0.3993617021276596 0.4480850104965109 0.43921355563127473
0.3995744680851064 0.44787509865899255 0.4217892602050125
0.3997872340425532 0.4460185637518319 0.4045288433866327
0.4 0.4454659041490815 0.389241759581062
0.4002127659574468 0.44604046373796025 0.37916277717346103
0.4004255319148936 0.448431850896016 0.37411822000607425
0.4006382978723404 0.4460594317642832 0.3714651219089684
0.40085106382978725 0.4450415241817294 0.3677642022254609
0.40106382978723404 0.4485424398869568 0.36600312964721543
0.40127659574468083 0.4461037334137664 0.35404908966928694
0.4014893617021277 0.45007086661369095 0.347882172997227
0.40170212765957447 0.4506389478842804 0.3448538605951364
0.40191489361702126 0.4507048295765968 0.34304035511888287
0.40212765957446805 0.4523916527310549 0.3439849239967796
0.4023404255319149 0.4528578407425501 0.34664557829496795
0.4025531914893617 0.4558548368993564 0.35408080852428464
0.4027659574468085 0.4558966256524163 0.36047779015511455
0.40297872340425533 0.45874935434409053 0.3739079307402531
0.4031914893617021 0.4599807300954438 0.3886381170409405
0.4034042553191489 0.45552966255353117 0.40438545519115576
0.40361702127659577 0.45633144221485344 0.4138841838923353
0.40382978723404256 0.45822155264289594 0.4186614557889594
0.40404255319148935 0.458972995791954 0.41681651999062297
0.40425531914893614 0.4604334118836007 0.4135214546276542
0.404468085106383 0.46239616021274366 0.3947181878199278
0.4046808510638298 0.46369821693790086 0.37847503964394774
0.4048936170212766 0.47116428266895216 0.3668261585214362
0.4051063829787234 0.46946751343429405 0.3590460571501311
0.4053191489361702 0.4698362205595813 0.3587118731794048
0.405531914893617 0.47191232300811453 0.36345945696101783
0.4057446808510638 0.4739829857447399 0.36819843807346336
0.40595744680851065 0.47435271128480694 0.37296485331817264
0.40617021276595744 0.47435271128480694 0.3796222481818597
0.40638297872340423 0.47531613366140824 0.3892277139443688
0.4065957446808511 0.4742465499554539 0.39302451670166066
0.40680851063829787 0.4733756717147044 0.400036547525284
0.40702127659574466 0.47372517793037955 0.4051258599613691
0.4072340425531915 0.47435271128480694 0.41029196857423283
0.4074468085106383 0.4731777859900364 0.4182842679194796
0.4076595744680851 0.47239863214460187 0.42327669271878354
0.4078723404255319 0.47075010194475525 0.4251951838393189
0.40808510638297874 0.47233176599529625 0.42927515876147676
0.4082978723404255 0.4684904738641915 0.4296676937208766
0.4085106382978723 0.4678701966712709 0.43296028696331634
0.40872340425531917 0.4649017215768726 0.4362575788462201
0.40893617021276596 0.4645075200232897 0.4373000031814001
0.40914893617021275 0.4638346885655474 0.43337372373691224
0.40936170212765954 0.46473295036407547 0.42855668497296023
0.4095744680851064 0.4614161684246323 0.42496889988233194
0.4097872340425532 0.45972218253369623 0.42261974367022564
0.41 0.4571617875762834 0.42139468022260573
0.4102127659574468 0.45981775826934684 0.42092309391009797
0.4104255319148936 0.4564294415285212 0.42718352025187367
0.4106382978723404 0.45716659149574657 0.4354372481207826
0.41085106382978726 0.45230188624177015 0.44988544579413103
0.41106382978723405 0.4479726428920372 0.4692208409983656
0.41127659574468084 0.44464915575875236 0.4918010187345524
0.41148936170212763 0.43737327559549405 0.5130323953007501
0.4117021276595745 0.43488819632526116 0.5319783367393627
0.41191489361702127 0.4318834598930233 0.5430468573869475
0.41212765957446806 0.4331276655723569 0.5552425514704827
0.4123404255319149 0.4299704958065197 0.5618477628257571
0.4125531914893617 0.42994949935747273 0.564676783006963
0.4127659574468085 0.433708105450405 0.5682269615185027
0.4129787234042553 0.43290596219867905 0.5724677554368853
0.41319148936170214 0.43415881881060453 0.5712148988249597
0.41340425531914893 0.4354999003772884 0.5719422823467734
0.4136170212765957 0.43845957410533204 0.5695628046630244
0.41382978723404257 0.4352711284807034 0.565968643561503
0.41404255319148936 0.4340132762330216 0.5615861758339001
0.41425531914893615 0.4328805936326733 0.5539493152609569
0.414468085106383 0.43066925220939034 0.5495847581827065
0.4146808510638298 0.42704724362524454 0.5417126000665617
0.4148936170212766 0.4264777723497801 0.533448612875212
0.4151063829787234 0.4226200457492838 0.5226499413108824
0.4153191489361702 0.4235466536394723 0.5117946337636824
0.415531914893617 0.42212919842586105 0.5057141858111751
0.4157446808510638 0.4190611649441894 0.4967801547612218
0.41595744680851066 0.41963849535906195 0.49144412919113545
0.41617021276595745 0.42138483264844384 0.48726196754696394
0.41638297872340424 0.42186607695582323 0.4867807232395847
0.4165957446808511 0.4240753878119934 0.4820885990706885
0.4168085106382979 0.42928058797241436 0.4802406093229573
0.41702127659574467 0.43262998579321404 0.4809986709269796
0.41723404255319146 0.43593906129299553 0.47812468778149975
0.4174468085106383 0.4382022471910112 0.4726153825457899
0.4176595744680851 0.43773039552549386 0.46569270011015496
0.4178723404255319 0.44020909321759666 0.4556834256800973
0.41808510638297874 0.44280991331432723 0.4469842462721075
0.41829787234042554 0.4496003808253323 0.4409709393168493
0.41851063829787233 0.4509037616023448 0.4317367226585259
0.4187234042553191 0.4550635725433415 0.4270353908189054
0.41893617021276597 0.45877954065157867 0.4200820091289321
0.41914893617021276 0.46196523413018387 0.4091876334446587
0.41936170212765955 0.4611292315354814 0.40231934752074083
0.4195744680851064 0.4604887712341203 0.3934939222593926
0.4197872340425532 0.461108830733691 0.3882097387553501
0.42 0.45917576335313814 0.3840956115185631
0.42021276595744683 0.4558943538806538 0.38254612317109565
0.4204255319148936 0.453476874307527 0.3827794961990079
0.4206382978723404 0.44992672203224227 0.3862978509937853
0.4208510638297872 0.44992672203224227 0.3900251541466906
0.42106382978723406 0.44992672203224227 0.39038547285095937
0.42127659574468085 0.45167320199391375 0.3899324286731056
0.42148936170212764 0.4549783385238767 0.39103414084975985
0.4217021276595745 0.4566233700744177 0.39213875844764673
0.4219148936170213 0.45676599902296044 0.39418658774726373
0.4221276595744681 0.4558872797015022 0.3969761076657544
0.42234042553191486 0.45721198514161165 0.4017759316441643
0.4225531914893617 0.45941828753420405 0.39423546653639474
0.4227659574468085 0.4601999859090459 0.3947096379307196
0.4229787234042553 0.4579079804467793 0.39580888520199353
0.42319148936170214 0.45892718060244964 0.3990711211159187
0.42340425531914894 0.4588546931037968 0.4068371009927811
0.42361702127659573 0.46065527216635516 0.4127520055258049
0.4238297872340426 0.46002598668502637 0.4210540268648422
0.42404255319148937 0.4624013814858623 0.42293570850558004
0.42425531914893616 0.463742218861161 0.41698740888962765
0.42446808510638295 0.467513434294089 0.41525829645308826
0.4246808510638298 0.467513434294089 0.4105621473466413
0.4248936170212766 0.467513434294089 0.4013971427150682
0.4251063829787234 0.4683573974401306 0.395744811802741
0.42531914893617023 0.4713919901248613 0.40101553862783695
0.425531914893617 0.46808206931492685 0.39796267427587556
0.4257446808510638 0.47239863214460187 0.4051988163008994
0.4259574468085106 0.47239863214460187 0.41070414172887293
0.42617021276595746 0.4728868808369191 0.4181704961693016
0.42638297872340425 0.4758249594546572 0.4268558676142872
0.42659574468085104 0.47433840863907695 0.43309066775513516
0.4268085106382979 0.47510058329408594 0.440331279438436
0.4270212765957447 0.47822181546895665 0.4469825852898476
0.4272340425531915 0.4754705661527708 0.44644100964541517
0.4274468085106383 0.47657356223950115 0.4486829106476508
0.4276595744680851 0.47728382999511476 0.4495297929236709
0.4278723404255319 0.47583214149741965 0.4528485935042442
0.4280851063829787 0.47319248188938223 0.457315568498927
0.42829787234042555 0.4702866886862664 0.4618090611916036
0.42851063829787234 0.47029756693927616 0.46677850396848686
0.42872340425531913 0.4656683458496805 0.4722896414488051
0.428936170212766 0.4618579548418624 0.4781574905810228
0.42914893617021277 0.46225997180039063 0.4770596126262335
0.42936170212765956 0.4580930422795489 0.4777068051709559
0.42957446808510635 0.4577717022035758 0.4835342645639866
0.4297872340425532 0.45976127402535955 0.48405895069374155
0.43 0.45947910620199384 0.48289305806945426
0.4302127659574468 0.45617300429864216 0.484844116658746
0.43042553191489363 0.45774017398115785 0.48314893202763554
0.4306382978723404 0.4583430348403916 0.4866771823733669
0.4308510638297872 0.45529267118125993 0.48536382766482783
0.43106382978723407 0.4527126489776566 0.49087869039467247
0.43127659574468086 0.4494143726302828 0.49736874362167033
0.43148936170212765 0.4479726428920372 0.5050679399967036
0.43170212765957444 0.4457725721336512 0.5097721274266811
0.4319148936170213 0.4450415241817294 0.5147208754893736
0.4321276595744681 0.4440792366157503 0.517312948361074
0.4323404255319149 0.4419984359227287 0.5152764036804229
0.4325531914893617 0.441370255605115 0.5125162160286454
0.4327659574468085 0.44211040547142155 0.5025978909536448
0.4329787234042553 0.4406420700388962 0.48703756923191216
0.4331914893617021 0.4410267393866045 0.467791971354103
0.43340425531914895 0.4377719860062913 0.4522512880323577
0.43361702127659574 0.43708097853282424 0.4439528195700306
0.43382978723404253 0.43531858930837874 0.4459473725103188
0.4340425531914894 0.43436604383132826 0.45701219310522406
0.43425531914893617 0.4343304442319316 0.4746562743416541
0.43446808510638296 0.43069826850836784 0.49193155394026733
0.4346808510638298 0.4304929783611574 0.5133340513536438
0.4348936170212766 0.42829776641787864 0.5254077170416769
0.4351063829787234 0.42745481191988266 0.5415874171044905
0.4353191489361702 0.4266502767916047 0.5522853853703444
0.43553191489361703 0.4246200666930303 0.5590660334333665
0.4357446808510638 0.4255007327796776 0.5634161216154278
0.4359574468085106 0.42569371755669766 0.5646384369732875
0.43617021276595747 0.42711113002022333 0.560069520747489
0.43638297872340426 0.4288739368580208 0.5523523980270743
0.43659574468085105 0.43111267055988906 0.5378171151138635
0.43680851063829784 0.4316460974779079 0.5210231069783137
0.4370212765957447 0.4370797929341448 0.503458740015681
0.4372340425531915 0.43443329376483136 0.4894259193990374
0.4374468085106383 0.43429408891060084 0.4685977281026002
0.4376595744680851 0.4362692256688393 0.4467340284460636
0.4378723404255319 0.4420432065844531 0.4288592149134924
0.4380851063829787 0.4425422888255508 0.42018365157503546
0.43829787234042555 0.4438306567519818 0.4188952836486043
0.43851063829787235 0.4445547476586434 0.4130356335820256
0.43872340425531914 0.44848445651684743 0.40654147380924116
0.43893617021276593 0.4492867495377178 0.4049487401508916
0.4391489361702128 0.44966351575333713 0.4038184415040335
0.43936170212765957 0.4501720996939022 0.4022926896823381
