0.0 0.4655593551538837 0.5456765999022961
0.0002127659574468085 0.4623655661661587 0.5456765999022961
0.000425531914893617 0.4591717771784337 0.5456765999022961
0.0006382978723404255 0.45597798819070867 0.5456765999022961
0.000851063829787234 0.4527841992029837 0.5456765999022961
0.0010638297872340426 0.44645020310063716 0.5447715002236609
0.001276595744680851 0.43846136380426454 0.5440306957669911
0.0014893617021276596 0.42787079710982806 0.5462918374824001
0.001702127659574468 0.41300387056262905 0.5525884934904636
0.0019148936170212765 0.4022575630210608 0.5595813457726971
0.002127659574468085 0.3929551017858109 0.5667223275181389
0.002340425531914894 0.38935026868588185 0.570582387408294
0.002553191489361702 0.3917380750256007 0.5726536198799956
0.0027659574468085106 0.394674509988563 0.5744497908874394
0.0029787234042553193 0.3976785320339266 0.5774538129328031
0.0031914893617021275 0.4056741509411653 0.5722710111224112
0.003404255319148936 0.4121481872848958 0.5660314266311232
0.003617021276595745 0.4163232615245403 0.5630545028424678
0.003829787234042553 0.42115083947028087 0.5558887306323083
0.004042553191489362 0.4243778932186417 0.550561797752809
0.00425531914893617 0.4236932613855365 0.548986282588107
0.004468085106382979 0.4274035893447439 0.5495335356075675
0.004680851063829788 0.43291680674440486 0.54159188724397
0.004893617021276595 0.43688427978493843 0.5345203381210154
0.005106382978723404 0.44407195751771716 0.5202249971900414
0.005319148936170213 0.4473807553268372 0.506096349128706
0.005531914893617021 0.45842915778263743 0.4909825335160397
0.00574468085106383 0.46204004150768846 0.4717729195947086
0.005957446808510639 0.46500766853164843 0.45629429415033007
0.006170212765957446 0.4669722979428032 0.44340314443893064
0.006382978723404255 0.4694389101290947 0.4302632347847623
0.006595744680851064 0.4713052783611426 0.42233116979855884
0.006808510638297872 0.4717616889553835 0.417896730615263
0.007021276595744681 0.4702238515499547 0.4184093430837392
0.00723404255319149 0.4647063756867166 0.41952711719760993
0.007446808510638298 0.455571072055932 0.4180390753868827
0.007659574468085106 0.44710781794352683 0.4111932151993246
0.007872340425531916 0.4403931456781458 0.4063098171881384
0.008085106382978723 0.43764944134006384 0.40061199248417906
0.008297872340425531 0.4400788077370318 0.39212366449355535
0.00851063829787234 0.44475626774261107 0.3796832240448526
0.008723404255319148 0.4472048085157228 0.3687864467811681
0.008936170212765958 0.45120378517167337 0.3589128154159513
0.009148936170212766 0.45285156469260535 0.35319352854214126
0.009361702127659575 0.4508122621796382 0.35008568703636483
0.009574468085106383 0.45113733487383145 0.3458933810583948
0.00978723404255319 0.4505119616984474 0.3416687695131626
0.01 0.44838719154429685 0.33818899444883405
0.010212765957446808 0.44433572762259416 0.3426588528476646
0.010425531914893617 0.4451345088428202 0.3427687974201258
0.010638297872340425 0.4479635729147547 0.3405055461625783
0.010851063829787235 0.45253273298431845 0.3412583051961325
0.011063829787234043 0.4545266259794723 0.34078358408403514
0.01127659574468085 0.45842780292005975 0.33977511357329143
0.01148936170212766 0.4566435523357669 0.3433382073575264
0.011702127659574468 0.45282747915090416 0.3407045980837205
0.011914893617021277 0.454630138257354 0.33608457925451674
0.012127659574468085 0.45230258799854417 0.3325442298875486
0.012340425531914893 0.44940463194630664 0.3302058043937907
0.012553191489361702 0.45217232326367607 0.3329734957111601
0.01276595744680851 0.46238929324347716 0.33712499591764394
0.01297872340425532 0.47202382876055116 0.34692111896696964
0.013191489361702127 0.47967689908795763 0.3505723524796286
0.013404255319148937 0.4811919882755251 0.3552749058707209
0.013617021276595745 0.48734158059228905 0.36315902880726675
0.013829787234042552 0.49091477730110245 0.36875309325464617
0.014042553191489362 0.49004477231452415 0.3796987288010074
0.01425531914893617 0.49048400618878063 0.38153395212506114
0.01446808510638298 0.48643155651474157 0.38194906491266056
0.014680851063829787 0.48355500053064 0.3868966699964236
0.014893617021276596 0.48186575025892014 0.3961223388666199
0.015106382978723404 0.4777904195955545 0.4006174929476928
0.015319148936170212 0.4669910394798183 0.4094134549022041
0.015531914893617021 0.4593899976130443 0.4188234561773214
0.01574468085106383 0.45248114394900774 0.42836711559766916
0.015957446808510637 0.4459212148571656 0.4402140255433285
0.016170212765957447 0.4447313500347743 0.44970958214376217
0.016382978723404256 0.44430564134325584 0.45776786388023627
0.016595744680851062 0.4480326584783999 0.4652525611467505
0.01680851063829787 0.4539870323886077 0.4698946280082983
0.01702127659574468 0.46180645861591535 0.4730675050293317
0.01723404255319149 0.4714125181461737 0.47425409988496414
0.017446808510638297 0.4805342996946406 0.4752566743459225
0.017659574468085106 0.4859193939003942 0.4753297508549097
0.017872340425531916 0.48999499576411104 0.4792861659236334
0.018085106382978722 0.4908360523118736 0.4845863230896505
0.01829787234042553 0.4875820679324 0.4962181342584914
0.01851063829787234 0.4819906236726308 0.511403731891037
0.01872340425531915 0.47367923507330195 0.5242907949468436
0.018936170212765956 0.4658187559534905 0.5334102778713585
0.019148936170212766 0.45741805960479426 0.5397053352838254
0.019361702127659575 0.44660517891140555 0.5509274536837623
0.01957446808510638 0.4351177690021869 0.5605205932952714
0.01978723404255319 0.4211391065437484 0.5639785659269534
0.02 0.41121994099902914 0.5707048269540729
0.02021276595744681 0.4031617815258337 0.5708348668471909
0.020425531914893616 0.401704539461006 0.5598612729576953
0.020638297872340425 0.40663413092788714 0.5530434567629425
0.020851063829787235 0.41219509420267797 0.5508780304999626
0.02106382978723404 0.41805074133695397 0.5484245560535552
0.02127659574468085 0.42436365825573913 0.5499932604908397
0.02148936170212766 0.43517465358288204 0.5514412450985549
0.02170212765957447 0.43432769033400725 0.557300270473308
0.021914893617021276 0.4438356600565467 0.5631260174310945
0.022127659574468085 0.4406984038537838 0.5683124333009073
0.022340425531914895 0.439280021528229 0.5691255495847583
0.0225531914893617 0.4430650094154725 0.573011272239117
0.02276595744680851 0.43429408891060084 0.5639117776439064
0.02297872340425532 0.4345159312106895 0.5613092330239375
0.023191489361702126 0.432914742536751 0.5579429673897197
0.023404255319148935 0.42708000157737896 0.5488351374976987
0.023617021276595745 0.42164552060943067 0.5429228769235482
0.023829787234042554 0.4167037188491296 0.5401388230718398
0.02404255319148936 0.4134199108871448 0.542894930737023
0.02425531914893617 0.41106310013815933 0.5445905798771831
0.02446808510638298 0.4144002144082863 0.549143404307378
0.024680851063829785 0.41475329750854906 0.5404132719366859
0.024893617021276595 0.41475329750854906 0.5303435592690335
0.025106382978723404 0.41638905700550166 0.5205241170221092
0.025319148936170214 0.4197609894578804 0.5109703084070365
0.02553191489361702 0.4226035419821274 0.49662105392062095
0.02574468085106383 0.42426706543645176 0.48087661881883964
0.02595744680851064 0.4253825539144673 0.46525978012662317
0.026170212765957445 0.42645941395901465 0.45833252952732456
0.026382978723404255 0.42714335609127047 0.45239065699963177
0.026595744680851064 0.42279959631579267 0.445875017336415
0.026808510638297874 0.42159257449926724 0.4399821416829528
0.02702127659574468 0.4233143523122644 0.4315679376639181
0.02723404255319149 0.42667505781386567 0.42052561958722817
0.0274468085106383 0.43127114755648993 0.4104943534087923
0.027659574468085105 0.43722037603637315 0.40157051068896743
0.027872340425531914 0.4431696045162565 0.3926466679691424
0.028085106382978724 0.44911883299613986 0.38372282524931733
0.028297872340425533 0.4550680614760232 0.37479898252949234
0.02851063829787234 0.4610172899559064 0.36587513980966746
0.02872340425531915 0.4655593551538837 0.3592238992416939
0.02893617021276596 0.4655593551538837 0.3599082019440014
0.029148936170212764 0.4655593551538837 0.36059250464630893
0.029361702127659574 0.4655593551538837 0.36127680734861645
0.029574468085106383 0.4655593551538837 0.36196111005092396
0.029787234042553193 0.4655593551538837 0.3626454127532315
0.03 0.4655593551538837 0.36332971545553905
0.03021276595744681 0.46589456052306166 0.3640310412055089
0.030425531914893618 0.46932953802915256 0.36488978558203167
0.030638297872340424 0.47276451553524346 0.36574852995855434
0.030851063829787233 0.47619949304133435 0.3666072743350771
0.031063829787234043 0.4796344705474253 0.36746601871159984
0.03127659574468085 0.48545582792907477 0.36746777635693845
0.03148936170212766 0.49094882870481926 0.36704345771382796
0.03170212765957447 0.4871115386446245 0.36595908519288295
0.031914893617021274 0.4929620161471182 0.3550627776715671
0.03212765957446809 0.4976474641056838 0.3452804604001774
0.03234042553191489 0.5018595368712923 0.3371164685929583
0.0325531914893617 0.5059351510700607 0.33497874524629767
0.03276595744680851 0.5049026876843911 0.33492826025038525
0.03297872340425532 0.5048233275161955 0.3440677723447886
0.033191489361702124 0.5007800039093503 0.3456166753307045
0.03340425531914894 0.49488787648734917 0.34374353259416907
0.03361702127659574 0.49238030046178005 0.345163049573702
0.033829787234042556 0.48933047668382135 0.34973173280265246
0.03404255319148936 0.4821095981450676 0.34728804242100375
0.03425531914893617 0.4757373700387101 0.3420727557300895
0.03446808510638298 0.4709625084967615 0.3388895147021238
0.03468085106382979 0.4657674588800858 0.3376087922156849
0.03489361702127659 0.46432359078280555 0.3435587712915479
0.035106382978723406 0.45995296733046875 0.34718646296352035
0.03531914893617021 0.4558895501476411 0.35756411813941935
0.03553191489361702 0.4524515779249606 0.36766179121297404
0.03574468085106383 0.4495458217356072 0.3796503092304997
0.03595744680851064 0.4458738694016784 0.3919547669886449
0.036170212765957444 0.4447999253648123 0.4086281726661478
0.036382978723404256 0.4424107934228383 0.4253520962599654
0.03659574468085106 0.4434610271411092 0.43825978527738296
0.03680851063829787 0.44406448461162684 0.44994814677704026
0.03702127659574468 0.44694257567407925 0.465173047707584
0.03723404255319149 0.44720531828879945 0.47705026994017585
0.0374468085106383 0.4485827194381882 0.48342014331336797
0.03765957446808511 0.45145112131630877 0.48281354762983575
0.03787234042553191 0.4562629582538658 0.4909333420084644
0.038085106382978726 0.4520235711780348 0.495156082268136
0.03829787234042553 0.45638548532505946 0.5084050881221973
0.03851063829787234 0.44867340172648623 0.5216348607672656
0.03872340425531915 0.4479726428920372 0.5336467675286994
0.03893617021276596 0.44849390339893547 0.5419648859529675
0.03914893617021276 0.44701654345561453 0.5498545976829271
0.039361702127659576 0.44679223899168674 0.5571579283321435
0.03957446808510638 0.4442755007814057 0.5601915160073155
0.03978723404255319 0.4533346262955529 0.5663194943787253
0.04 0.4452514157869891 0.5683402970058662
0.04021276595744681 0.44178769713023913 0.5675120078788459
0.04042553191489362 0.44203246372738897 0.5651394495603151
0.040638297872340426 0.4413627075540128 0.5650446058827762
0.04085106382978723 0.44367699431730695 0.5649444853314634
0.041063829787234045 0.44255448382711576 0.5668754182074235
0.04127659574468085 0.4412619239462376 0.567171470444553
0.04148936170212766 0.4354171757085815 0.5681241688100092
0.04170212765957447 0.4309796528747955 0.5672411645037343
0.041914893617021276 0.42511126346284733 0.5683081443968159
0.04212765957446808 0.4213366597120253 0.569014607310472
0.042340425531914895 0.4244196069333229 0.5685403077379646
0.0425531914893617 0.4275025541546204 0.5680660081654573
0.04276595744680851 0.43058550137591795 0.5675917085929499
0.04297872340425532 0.43351356663562957 0.5663854012640279
0.043191489361702126 0.43523768083729775 0.5594889444573549
0.04340425531914894 0.4392719899636566 0.5537539478075979
0.043617021276595745 0.4401563263312165 0.547135358641985
0.04382978723404255 0.4378293017896472 0.5456765999022961
0.044042553191489364 0.43594574905458117 0.5436294661961721
0.04425531914893617 0.4343374345628883 0.5410561630094636
0.044468085106382976 0.4327291200711955 0.538482859822755
0.04468085106382979 0.43329056168913377 0.5345333516258922
0.044893617021276595 0.4346948119517969 0.5292177526653752
0.0451063829787234 0.43666846067095694 0.5190334263066878
0.045319148936170214 0.4385287477806866 0.5048952442727418
0.04553191489361702 0.4403890348904163 0.4907570622387962
0.045744680851063826 0.4387949922081075 0.4788644833740383
0.04595744680851064 0.4352711284807034 0.46956328132938663
0.046170212765957445 0.43468732329178483 0.4683039339783619
0.04638297872340425 0.4296832930682641 0.4499558231587857
0.046595744680851064 0.4271248710689188 0.43712374932578013
0.04680851063829787 0.42892530722958544 0.43412302239133577
0.047021276595744683 0.43019489571256647 0.42781501677314837
0.04723404255319149 0.43762173033570595 0.42466882242340137
0.047446808510638296 0.4403079075675915 0.4203628995352063
0.04765957446808511 0.4439771906800396 0.4155523879509485
0.047872340425531915 0.45036073627300616 0.41296222747282235
0.04808510638297872 0.4587932756520204 0.4041699917749639
0.048297872340425534 0.46482889257500154 0.3893410002911024
0.04851063829787234 0.47056604469053204 0.3764665167453451
0.048723404255319146 0.47239863214460187 0.36736804653068933
0.04893617021276596 0.47239863214460187 0.3605403149891602
0.049148936170212765 0.4723656078637889 0.3550217866090393
0.04936170212765957 0.47135276666221443 0.35097042180274135
0.049574468085106384 0.4702525083804022 0.3469534779234817
0.04978723404255319 0.46887634124003935 0.3456790741283926
0.05 0.46717119741747914 0.3460182907247581
0.05021276595744681 0.4661296608146663 0.347417157577865
0.050425531914893615 0.46082152580100616 0.3514531432199976
0.05063829787234043 0.4544669766684708 0.35277840702154045
0.050851063829787234 0.45647184902697074 0.35144182544920716
0.05106382978723404 0.4584767213854707 0.35010524387687386
0.05127659574468085 0.46048159374397074 0.3487686623045405
0.05148936170212766 0.4624864661024707 0.34743208073220727
0.051702127659574465 0.4639535386432118 0.3464540323717131
0.05191489361702128 0.4653796880015946 0.3455032661327912
0.052127659574468084 0.46770676719139154 0.34466768401876263
0.05234042553191489 0.4720707710343732 0.34696380358272094
0.0525531914893617 0.4753297508549097 0.3505986942981162
0.05276595744680851 0.47652642925880373 0.35367847595364355
0.05297872340425532 0.48229464800697086 0.3559337709703718
0.05319148936170213 0.48668775735064856 0.36023461510755056
0.053404255319148934 0.48288903141266865 0.3661583550064814
0.05361702127659575 0.4814279171702738 0.3676194692488761
0.05382978723404255 0.4777854746304243 0.3661521413210745
0.05404255319148936 0.4754777467089328 0.36680436064651073
0.05425531914893617 0.4782513738845139 0.37369547897593247
0.05446808510638298 0.47751866213203764 0.3679790993824881
0.054680851063829784 0.47213820649759913 0.37065541724274653
0.0548936170212766 0.473407653678707 0.3784522002503363
0.0551063829787234 0.4726155509334172 0.3877841909688708
0.05531914893617021 0.46946751343429405 0.3995119641144076
0.05553191489361702 0.4662951780543283 0.4133389126522067
0.05574468085106383 0.4692631833125461 0.4268418215546387
0.055957446808510634 0.4692182967842759 0.44025922557785896
0.05617021276595745 0.4669819418612357 0.4545540839959443
0.05638297872340425 0.469201391195491 0.4650271106762776
0.056595744680851066 0.46658365322532397 0.46992649665600933
0.05680851063829787 0.4651055305826756 0.4742566027489267
0.05702127659574468 0.46501690328361767 0.476089496575094
0.05723404255319149 0.4637927485721264 0.47946505847163157
0.0574468085106383 0.4644739691413918 0.48108364183313573
0.057659574468085104 0.4636855703412584 0.4811919882755251
0.05787234042553192 0.4661050886905183 0.48260033387909573
0.05808510638297872 0.456804357349689 0.49190106521992494
0.05829787234042553 0.4500993087467063 0.5016209471587776
0.05851063829787234 0.4449965340786648 0.5153591866496584
0.05872340425531915 0.4398937594106235 0.5290974261405387
0.058936170212765954 0.44092030389643827 0.5374047358469471
0.05914893617021277 0.4433270345150071 0.54351734587204
0.05936170212765957 0.446278987314875 0.5477607780218501
0.059574468085106386 0.44923094011474296 0.5520042101716602
0.05978723404255319 0.45218289291461083 0.5562476423214703
0.06 0.45513484571447876 0.5604910744712803
0.06021276595744681 0.4581693170223134 0.5639561661147449
0.06042553191489362 0.4618298769795356 0.5615157928099301
0.06063829787234042 0.4651235714005961 0.5598260949915289
0.060851063829787236 0.4642658262845683 0.5593551538837322
0.06106382978723404 0.4633128742190573 0.5593551538837322
0.06127659574468085 0.4606652304320089 0.5578851310928975
0.06148936170212766 0.4545440977312438 0.5588733661726769
0.06170212765957447 0.44764472377648373 0.5571209608982752
0.06191489361702127 0.44283737453826244 0.5627864136005634
0.062127659574468086 0.4340389527103542 0.5626260611820317
0.06234042553191489 0.4262481333396954 0.5631565406555686
0.0625531914893617 0.41667128268243475 0.5606144771349697
0.0627659574468085 0.40675136825569747 0.5582853079676142
0.06297872340425532 0.3959082727855903 0.5523744164976837
0.06319148936170213 0.38731713459081835 0.5446205053773353
0.06340425531914894 0.3829354499949896 0.5417684416218858
0.06361702127659574 0.38497449117240495 0.5402959154160702
0.06382978723404255 0.3875035001905784 0.5382217334131435
0.06404255319148935 0.394345799580472 0.5356984698128668
0.06425531914893617 0.3988459895022878 0.5357688667589602
0.06446808510638298 0.407803061102348 0.5339767827089501
0.06468085106382979 0.40457405671790936 0.5271807764716673
0.06489361702127659 0.40972631583218916 0.5190206874632454
0.0651063829787234 0.41599861464007143 0.5103393747677237
0.06531914893617022 0.4235466536394723 0.4955654017883108
0.06553191489361702 0.426141466787332 0.48128475108180835
0.06574468085106383 0.43297284255346963 0.466247768727941
0.06595744680851064 0.4422404825456974 0.45700496083014414
0.06617021276595744 0.44586821637108526 0.44496656889610664
0.06638297872340425 0.44916160475071465 0.4390521333879688
0.06659574468085107 0.45349983864448207 0.43541056388037963
0.06680851063829787 0.4524729382022564 0.42988262762577084
0.06702127659574468 0.4538348803126526 0.425625208220737
0.06723404255319149 0.45327511756322303 0.42172487946242687
0.06744680851063829 0.4528578407425501 0.42032512657087234
0.06765957446808511 0.45122258801323933 0.41652740310588793
0.06787234042553192 0.4480532397744121 0.4138299891933631
0.06808510638297872 0.4450415241817294 0.40683449947787914
0.06829787234042553 0.4450415241817294 0.39572752938165845
0.06851063829787234 0.4457911175982631 0.3838756686165765
0.06872340425531914 0.448004402405618 0.372613557939814
0.06893617021276596 0.4520415146157788 0.36574060556008825
0.06914893617021277 0.45574934627450414 0.3594801526188942
0.06936170212765957 0.4601295617012581 0.3544171127298581
0.06957446808510638 0.4691130289627729 0.35021507175636607
0.06978723404255319 0.4689623748201837 0.34929164631167553
0.06999999999999999 0.47225822113774113 0.3502335831300631
0.07021276595744681 0.4701904650373542 0.3536516493439985
0.07042553191489362 0.47684206388479267 0.35896853466324324
0.07063829787234042 0.47497737898943954 0.3623455325884794
0.07085106382978723 0.47775918341121093 0.3629702002931119
0.07106382978723404 0.4830230455239472 0.35991843821240854
0.07127659574468086 0.48996078959070155 0.3573552921169903
0.07148936170212766 0.4936478383121459 0.3536911333415115
0.07170212765957447 0.49684552136084376 0.3453347214493517
0.07191489361702127 0.5000337365413219 0.3377102217390046
0.07212765957446808 0.5019828321608131 0.3318629348805308
0.07234042553191489 0.5010563077713178 0.3301584926712399
0.0725531914893617 0.4993062359055218 0.3307278944797265
0.07276595744680851 0.4978076945151613 0.3326759400720394
0.07297872340425532 0.49447481150126155 0.33835863298184404
0.07319148936170213 0.4903927404597911 0.34564758450801814
0.07340425531914893 0.48301170906230884 0.35038811552926413
0.07361702127659574 0.4735372428015061 0.3586286480981329
0.07382978723404256 0.46696986716386846 0.36264484930886204
0.07404255319148936 0.46105493703635464 0.365818669188995
0.07425531914893617 0.45979126363649514 0.3707739211436576
0.07446808510638298 0.4600559649059578 0.37897966049700144
0.07468085106382978 0.4603206661754205 0.3871853998503453
0.0748936170212766 0.4605853674448832 0.3953911392036896
0.07510638297872341 0.4637331970993755 0.4027321845108121
0.07531914893617021 0.4683362624312427 0.4096367825086129
0.07553191489361702 0.471973501494847 0.4258900267590517
0.07574468085106383 0.4763236381575411 0.4475711697250517
0.07595744680851063 0.4787308066317914 0.46376921707651536
0.07617021276595745 0.4774504649314944 0.46664998590218365
0.07638297872340426 0.4761701232311975 0.4695307547278517
0.07659574468085106 0.4746425590807635 0.4748575514452299
0.07680851063829787 0.4733756717147044 0.4796238332380622
0.07702127659574468 0.4703928514446637 0.4802666502651556
0.0772340425531915 0.46538094862609136 0.4863447959177268
0.0774468085106383 0.4624515507666795 0.4907388927068445
0.07765957446808511 0.45748115477252405 0.49471945161395325
0.07787234042553191 0.45333207701248723 0.4999423858943483
0.07808510638297872 0.4460036065092936 0.5110141310274616
0.07829787234042553 0.4397064583208537 0.5231273862405592
0.07851063829787235 0.4352711284807034 0.5339327777755474
0.07872340425531915 0.43508324002383325 0.5398895178644285
0.07893617021276596 0.43405936936764117 0.5402990661269054
0.07914893617021276 0.43303549871144903 0.5407086143893822
0.07936170212765957 0.43201162805525695 0.5411181626518591
0.07957446808510638 0.43098775739906486 0.5415277109143359
0.0797872340425532 0.42996388674287267 0.5419372591768128
0.08 0.4289400160866806 0.5423468074392896
0.08021276595744681 0.42791614543048845 0.5427563557017665
0.08042553191489361 0.42689227477429637 0.5431659039642434
0.08063829787234042 0.4258684041181043 0.5435754522267201
0.08085106382978724 0.42507138561223967 0.5431705029753849
0.08106382978723405 0.42440147335515926 0.5423091872162815
0.08127659574468085 0.42373156109807886 0.5414478714571782
0.08148936170212766 0.4230616488409985 0.5405865556980749
0.08170212765957446 0.4223917365839181 0.5397252399389715
0.08191489361702127 0.4217218243268377 0.5388639241798682
0.08212765957446809 0.42105191206975723 0.5380026084207647
0.0823404255319149 0.4203819998126769 0.5371412926616614
0.0825531914893617 0.41971208755559647 0.536279976902558
0.08276595744680851 0.41904217529851606 0.5354186611434547
0.08297872340425531 0.42054472215123256 0.5337633330735699
0.08319148936170212 0.42490729081948875 0.5310626953265541
0.08340425531914894 0.4292698594877452 0.5283620575795382
0.08361702127659575 0.43363242815600134 0.5256614198325226
0.08382978723404255 0.4379949968242575 0.5229607820855069
0.08404255319148936 0.4452708538319857 0.5218469272779044
0.08425531914893616 0.4536322600804117 0.5213243393873777
0.08446808510638298 0.4574075693526466 0.5247114766095864
0.08468085106382979 0.46352548718487263 0.5241950274981734
0.0848936170212766 0.4672780057307542 0.5188256743828565
0.0851063829787234 0.464840738563143 0.5141906789112146
0.08531914893617021 0.46297737281227963 0.5066626753228622
0.08553191489361701 0.4636052760136786 0.49396473882018993
0.08574468085106383 0.461754350479554 0.4830954638419111
0.08595744680851064 0.4591647768750534 0.47040397592136024
0.08617021276595745 0.4542503320813019 0.45410419604849783
0.08638297872340425 0.45045323747071253 0.4444037336376997
0.08659574468085106 0.43667696029729963 0.43362332951656507
0.08680851063829788 0.43261582568488305 0.42422316878573996
0.08702127659574468 0.426718589989509 0.42062930394035153
0.08723404255319149 0.42783382998378977 0.4176844162188569
0.0874468085106383 0.4274245584338631 0.41969900233110136
0.0876595744680851 0.427106737150433 0.42096360969861435
0.08787234042553191 0.4312975438525278 0.4190784421561066
0.08808510638297873 0.43416018721726835 0.41502110089521405
0.08829787234042553 0.44221110115762163 0.386356215171699
0.08851063829787234 0.444933643737922 0.3846546260590113
0.08872340425531915 0.44765618631822235 0.38295303694632354
0.08893617021276595 0.4502370600254753 0.3810684451352116
0.08914893617021276 0.45209265199278126 0.37775543013341834
0.08936170212765958 0.45384877245315924 0.370730948291906
0.08957446808510638 0.45571306885537977 0.3650760606282731
0.08978723404255319 0.45728523894487705 0.3588162809177787
0.09 0.457743038593063 0.35385924607949504
0.0902127659574468 0.45931007629172577 0.3492822103454292
0.09042553191489362 0.45877383203860284 0.3464680353522426
0.09063829787234043 0.46052511024883147 0.3453089645039955
0.09085106382978723 0.45893572882146827 0.3437594964862544
0.09106382978723404 0.4618435522650911 0.3411175906622177
0.09127659574468085 0.46356247540456125 0.3414967300554136
0.09148936170212765 0.46357272650086073 0.3411713495693659
0.09170212765957447 0.4653638247302847 0.337372253594738
0.09191489361702128 0.47091783955353606 0.3319971452720686
0.09212765957446808 0.47889296498924616 0.3291043112685653
0.09234042553191489 0.4802149487054226 0.3287738153395212
0.0925531914893617 0.48714594444372666 0.331186488217656
0.0927659574468085 0.48780512184084823 0.33651766603181965
0.09297872340425532 0.4874084970187285 0.342001149868764
0.09319148936170213 0.48760463862571657 0.34721378088242133
0.09340425531914893 0.48656866861901277 0.3512279492043406
0.09361702127659574 0.4835827997227377 0.35667123056548894
0.09382978723404255 0.48293158156336535 0.3626603247490244
0.09404255319148937 0.4822469862460345 0.365745402202606
0.09425531914893617 0.4868620750559311 0.36530858071373634
0.09446808510638298 0.48495120278988685 0.3722356845110269
0.09468085106382979 0.48872717351224104 0.3790176103366464
0.09489361702127659 0.48949427325963196 0.38595359244640914
0.0951063829787234 0.48900830483634583 0.3979088379825433
0.09531914893617022 0.4851455033117553 0.40823226553656033
0.09553191489361702 0.4850398713006236 0.4199525071207339
0.09574468085106383 0.4829838282120626 0.43144048545403113
0.09595744680851064 0.47985327951706414 0.4455417444320359
0.09617021276595744 0.4738896871192604 0.45671500778395124
0.09638297872340426 0.46943231384471595 0.46612707401548586
0.09659574468085107 0.46431796272530873 0.47364002457317683
0.09680851063829787 0.46106351631017534 0.48158863138851216
0.09702127659574468 0.456993401746617 0.480385500748165
0.09723404255319149 0.451629317591268 0.4802149487054226
0.09744680851063829 0.4466349927065864 0.4802149487054226
0.09765957446808511 0.44183311137914866 0.4808566312659387
0.09787234042553192 0.43388673409946654 0.4853992814018471
0.09808510638297872 0.42934720564961265 0.49319823060544205
0.09829787234042553 0.4259865845571537 0.5090616280916253
0.09851063829787234 0.42201450815674657 0.5204067433347725
0.09872340425531914 0.4206757176859421 0.5312316459994781
0.09893617021276596 0.4232338501262225 0.5388566374267545
0.09914893617021277 0.42768159555745117 0.5461301671774329
0.09936170212765957 0.4320605944038328 0.5527948351531433
0.09957446808510638 0.4356203683552797 0.5554646656167285
0.09978723404255319 0.43840124700396677 0.5575503246032437
0.1 0.441182125652654 0.5596359835897592
0.10021276595744681 0.4440990110060999 0.5609950619653943
0.10042553191489362 0.4487884737829204 0.5575622834227464
0.10063829787234042 0.45167459914095864 0.5546761580647083
0.10085106382978723 0.44699560332193444 0.5593211969565902
0.10106382978723404 0.44648285476073807 0.5582071981265643
0.10127659574468086 0.442864010543244 0.5571009562264314
0.10148936170212766 0.4392956360601796 0.5581454157154981
0.10170212765957447 0.43479032545048946 0.5609008470772552
0.10191489361702127 0.428791621468413 0.5641479436655237
0.10212765957446808 0.42233228320325833 0.56777865566266
0.10234042553191489 0.42053372994071825 0.5661944308744504
0.1025531914893617 0.41718915882262614 0.565391460584664
0.10276595744680851 0.42168452223689523 0.5606272240646598
0.10297872340425532 0.4295180374629729 0.5573906725200047
0.10319148936170212 0.44004581774630724 0.5490409841052004
0.10340425531914893 0.4497708399908054 0.552569114243368
0.10361702127659575 0.45747638734496043 0.54410757006386
0.10382978723404256 0.4636045616065384 0.5399538375049608
0.10404255319148936 0.4702310257058678 0.5402187678481027
0.10425531914893617 0.4714793812400431 0.5370475874237635
0.10446808510638297 0.4665363947239862 0.5337666827605525
0.10468085106382978 0.4644862361943583 0.528922808126418
0.1048936170212766 0.4574832217010562 0.5209907937577247
0.1051063829787234 0.4518319438073134 0.5093795637130982
0.10531914893617021 0.4464696568633624 0.497902123106418
0.10553191489361702 0.43659191837815425 0.4809863428290426
0.10574468085106382 0.4317449783770585 0.46746939603771115
0.10595744680851064 0.42863228258918956 0.45554683391317036
0.10617021276595745 0.4258346314821721 0.4479011827956363
0.10638297872340426 0.41789269819810515 0.4453293474879482
0.10659574468085106 0.41763396905430833 0.43746680887002865
0.10680851063829787 0.4190457000076843 0.4328732190838725
0.10702127659574467 0.42256961406936977 0.4277461321506082
0.1072340425531915 0.43067231070128725 0.4225542976407985
0.1074468085106383 0.4315665903847786 0.4242182629328467
0.1076595744680851 0.4382022471910112 0.42156270126720974
0.10787234042553191 0.4397549512376583 0.4188621433357384
0.10808510638297872 0.447678315411124 0.41239867766124394
0.10829787234042552 0.4491072638536844 0.40186899567152873
0.10851063829787234 0.45566890351642214 0.38925977385167987
0.10872340425531915 0.46074426344062624 0.3810914287062676
0.10893617021276596 0.4624582956644279 0.37635147782103723
0.10914893617021276 0.47018220882178063 0.3652850026844139
0.10936170212765957 0.47078904308968017 0.3579988799212781
0.10957446808510639 0.4736816296824105 0.35621318740263425
0.1097872340425532 0.4721459342721226 0.35392414628970925
0.11 0.47136688532938825 0.3551538837322912
0.1102127659574468 0.4675355380519077 0.3538659001440335
0.11042553191489361 0.46102721462632384 0.354773856048561
0.11063829787234042 0.4559866048218642 0.3523709990487381
0.11085106382978724 0.45673103116604585 0.35033862159560747
0.11106382978723404 0.4541429455030683 0.34895715912183206
0.11127659574468085 0.4474417555268104 0.3444911836215132
0.11148936170212766 0.449677470209099 0.34001975425693626
0.11170212765957446 0.45191244153511534 0.33252377180659226
0.11191489361702127 0.454146256572654 0.32457573619415875
0.11212765957446809 0.4587134497415085 0.3229115779189058
0.1123404255319149 0.4642895213288022 0.32199309719979885
0.1125531914893617 0.47358540767253593 0.3280065117272502
0.1127659574468085 0.4765146579042116 0.3313514969173247
0.11297872340425531 0.4790129273872403 0.33435065214688436
0.11319148936170213 0.48172358680835903 0.3387311795911201
0.11340425531914894 0.4833460001862148 0.34514488420931966
0.11361702127659574 0.4851001465559355 0.3513367346344633
0.11382978723404255 0.4835042323270886 0.35878550439305035
0.11404255319148936 0.4812868425691011 0.36375753127606253
0.11425531914893616 0.4813788199140604 0.37213721970110564
0.11446808510638298 0.4840709954628827 0.37659664275159777
0.11468085106382979 0.4863075638676369 0.38107319664186345
0.1148936170212766 0.4845879137318327 0.38758589385808856
0.1151063829787234 0.48412310698583294 0.3945742621206217
0.11531914893617021 0.48491357975857524 0.4025133278585384
0.11553191489361703 0.483260425550703 0.41596404877143245
0.11574468085106383 0.4863493213754687 0.4296066920244388
0.11595744680851064 0.4780478419178025 0.44372652798376855
0.11617021276595745 0.4776330448099294 0.4491614970851639
0.11638297872340425 0.4748293072771702 0.45726303580278893
0.11659574468085106 0.47142159257449934 0.4653883105282202
0.11680851063829788 0.4706471662903109 0.4715881790009447
0.11702127659574468 0.467694199915901 0.47606576959592956
0.11723404255319149 0.4642289146220071 0.4824517486150469
0.1174468085106383 0.45908745558383973 0.48668684827546654
0.1176595744680851 0.4557802057572539 0.4913084891229944
0.11787234042553191 0.4500914570552914 0.4963155097342341
0.11808510638297873 0.4441947931627603 0.5022959331643814
0.11829787234042553 0.4391674393329559 0.5134579889452263
0.11851063829787234 0.43330810017539473 0.5251766672603487
0.11872340425531915 0.42797749193861 0.5358378837339184
0.11893617021276595 0.4256826720082931 0.5409733412803985
0.11914893617021277 0.42726918835782535 0.5436735990022751
0.11936170212765958 0.4259356288630481 0.5481728225292333
0.11957446808510638 0.4242383272399988 0.5501554901218588
0.11978723404255319 0.42516434338748155 0.553560949507923
0.12 0.42583371786057755 0.5548029411141193
0.1202127659574468 0.4272362079251866 0.5534929164631168
0.12042553191489362 0.4284318514899854 0.5534929164631168
0.12063829787234043 0.4303384235065679 0.5525396304548253
0.12085106382978723 0.4318114639558665 0.5537043347889286
0.12106382978723404 0.42769051142801984 0.557568291176556
0.12127659574468085 0.42981252018671934 0.5645855189084287
0.12148936170212765 0.4318597711037036 0.5671383459711163
0.12170212765957447 0.431362970200293 0.5734795868458537
0.12191489361702128 0.4321259956224018 0.574438775731259
0.12212765957446808 0.4359465527189222 0.5731091116981396
0.12234042553191489 0.4343600689202988 0.5687956495362682
0.1225531914893617 0.43568064606490614 0.563011798981637
0.12276595744680852 0.4382604747768138 0.5569977581057562
0.12297872340425532 0.4411271703919741 0.5525282679117041
0.12319148936170213 0.44709764662845375 0.551185202897438
0.12340425531914893 0.4476440783993449 0.5477344312680827
0.12361702127659574 0.45059367468879 0.5475531573141125
0.12382978723404255 0.4497907242786609 0.5437905196388815
0.12404255319148937 0.4473348540269246 0.5442743677554517
0.12425531914893617 0.4446881470564221 0.542392104066681
0.12446808510638298 0.4435729677945267 0.5412769248047856
0.12468085106382978 0.44372048110135676 0.5382592578124527
0.12489361702127659 0.44251305396712376 0.5291260905488576
0.1251063829787234 0.44211040547142155 0.5225349759526613
0.12531914893617022 0.4382022471910112 0.5114644168696938
0.125531914893617 0.43840636391524923 0.49473991010369844
0.12574468085106383 0.43952205110905135 0.47766183784872984
0.12595744680851065 0.4430818732156043 0.46166234052531324
0.12617021276595744 0.44917972271158446 0.45009887332530313
0.12638297872340426 0.4578816922785849 0.43846702138430793
0.12659574468085105 0.45969711773326827 0.43168050725335466
0.12680851063829787 0.46470787266424357 0.427266476299189
0.1270212765957447 0.46673943433266224 0.4235084951661952
0.12723404255319148 0.46786257214838234 0.4192893575047686
0.1274468085106383 0.4689829677920387 0.4166914800775706
0.1276595744680851 0.46501810185417286 0.4115751463798911
0.12787234042553192 0.46496411692554296 0.4075322191760691
0.1280851063829787 0.4627830563786288 0.3949063529216243
0.12829787234042553 0.4648905252358491 0.38096066933817435
0.12851063829787235 0.4584865927239668 0.37473777294765054
0.12872340425531914 0.45736871382671845 0.36839463352693425
0.12893617021276596 0.45419275236271406 0.36245555096106263
0.12914893617021275 0.44926954298275457 0.36003471708073953
0.12936170212765957 0.44955601682874574 0.35985372898105583
0.1295744680851064 0.4443266710681315 0.3563057142733968
0.12978723404255318 0.44554367583215226 0.3543777048223578
0.13 0.4506619581193591 0.3561309233023937
0.1302127659574468 0.4575149612985913 0.3565190166820638
0.13042553191489362 0.4725534781374472 0.3576393737094074
0.13063829787234044 0.4785645874466632 0.358085002442599
0.13085106382978723 0.48479608019341336 0.3564511997855499
0.13106382978723405 0.48989427098960814 0.35326810965471606
0.13127659574468084 0.4943952299580758 0.35210393694726194
0.13148936170212766 0.49017276383621433 0.3496664851712073
0.13170212765957448 0.48923803152555345 0.34417672177195513
0.13191489361702127 0.49042615436538445 0.3413799100986243
0.1321276595744681 0.48863140596820553 0.33914435174250945
0.13234042553191488 0.48885187463731544 0.3401854297826915
0.1325531914893617 0.48033450242333037 0.3404982901807523
0.1327659574468085 0.47820645592185274 0.34648945925305136
0.13297872340425532 0.4695506269283858 0.3481394095912334
0.13319148936170214 0.46660055637239756 0.3534978711435646
0.13340425531914893 0.4678541278290163 0.3607739784513951
0.13361702127659575 0.46449665723735595 0.36500993777974233
0.13382978723404254 0.4594899793135389 0.36837049702350333
0.13404255319148936 0.45678041317601326 0.36980227020730366
0.13425531914893618 0.45918115965455747 0.3681133771829802
0.13446808510638297 0.45387102964306303 0.37117942714796925
0.1346808510638298 0.4476943408239464 0.38055293611257857
0.13489361702127659 0.44433301296314326 0.3906206301673639
0.1351063829787234 0.4430874450415241 0.39862424997983176
0.13531914893617022 0.4430874450415241 0.40872406582606624
0.13553191489361702 0.44307046972093145 0.4226714659929256
0.13574468085106384 0.4425414963024861 0.4305873056453083
0.13595744680851063 0.44585149551023673 0.4449773781413746
0.13617021276595745 0.4499813895621957 0.45293984203748006
0.13638297872340424 0.4538348803126526 0.46105626067575395
0.13659574468085106 0.4553669671345259 0.46713579362023655
0.13680851063829788 0.4612729120778102 0.47461827121126515
0.13702127659574467 0.4667284310475263 0.48353014006281014
0.1372340425531915 0.46571493334036584 0.4895963989402429
0.13744680851063829 0.4706063580655105 0.4881930703273572
0.1376595744680851 0.4754785004608634 0.49274355867240827
0.13787234042553193 0.4817040656631019 0.49938500833505056
0.13808510638297872 0.48387033393230333 0.509129949906198
0.13829787234042554 0.48417270680122404 0.518071492862468
0.13851063829787233 0.4848395879921259 0.5271562378015262
0.13872340425531915 0.486077186126038 0.5355399941357796
0.13893617021276597 0.48526934714724296 0.5410916392566558
0.13914893617021276 0.48139051565916696 0.5436232570702699
0.13936170212765958 0.47901496512032554 0.5449225043471878
0.13957446808510637 0.47473037789004474 0.5478277306093721
0.1397872340425532 0.4675286421086356 0.5482871080274184
0.13999999999999999 0.4606536006023896 0.5454007906100039
0.1402127659574468 0.4525340933213516 0.5421760245516374
0.14042553191489363 0.43912394869314697 0.5431543019641443
0.14063829787234042 0.42938823077281746 0.542904877739127
0.14085106382978724 0.422781708329107 0.5446288622456142
0.14106382978723403 0.4233759503560032 0.5499261647496447
0.14127659574468085 0.421398568796805 0.5548509563803526
0.14148936170212767 0.42188519454941426 0.5622366828842091
0.14170212765957446 0.42585173841361446 0.5719492934252882
0.14191489361702128 0.4308614974137334 0.578895945285784
0.14212765957446807 0.43954372709738826 0.578895945285784
0.1423404255319149 0.4518422014439353 0.578895945285784
0.1425531914893617 0.4631643170495465 0.5779630016120947
0.1427659574468085 0.4575023178343837 0.5758043460696901
0.14297872340425533 0.4535756373161772 0.5733926061519822
0.14319148936170212 0.44729336761853594 0.5710796287249633
0.14340425531914894 0.4426919136212439 0.5701645813980414
0.14361702127659573 0.435872138314548 0.5662026453698853
0.14382978723404255 0.4309183255244104 0.5592644568732967
0.14404255319148937 0.42118147399733463 0.5540539996043069
0.14425531914893616 0.41386975388393327 0.5486856319005093
0.14446808510638298 0.4104865007752083 0.5394557240287501
0.14468085106382977 0.3982403571354678 0.5260487386255456
0.1448936170212766 0.3901472303976277 0.5120970988020949
0.1451063829787234 0.38257626539218376 0.49791588993705427
0.1453191489361702 0.3792051332658213 0.48554168531693914
0.14553191489361703 0.37957987298485585 0.4741787472579128
0.14574468085106382 0.3881155038017214 0.4620323986759473
0.14595744680851064 0.39913574281542274 0.452842762314035
0.14617021276595746 0.4083402838148806 0.4442760862541918
0.14638297872340425 0.41870919760356934 0.4376421146840451
0.14659574468085107 0.42235922143815535 0.4306337850543898
0.14680851063829786 0.42303749944247365 0.4229136929707893
0.14702127659574468 0.42384177726273425 0.4177302505690154
0.14723404255319147 0.42376061394949627 0.4144181388685183
0.1474468085106383 0.42533422148504085 0.41020112224730965
0.14765957446808511 0.4284318514899854 0.3977909259239641
0.1478723404255319 0.4289455198249881 0.3882726349159735
0.14808510638297873 0.43315405291355263 0.37531918177377743
0.14829787234042552 0.43935052896741944 0.36317969118130095
0.14851063829787234 0.4448654952910564 0.34884269341359175
0.14872340425531916 0.44969896527808745 0.3377214858976898
0.14893617021276595 0.4485004516890863 0.3340108857214002
0.14914893617021277 0.4414800259160242 0.33087646305745727
0.14936170212765956 0.44017978755751125 0.32882073779211074
0.14957446808510638 0.44064280613397744 0.33014411871641336
0.1497872340425532 0.44552038970687685 0.32558395534683215
0.15 0.4481512489104843 0.32741156057323545
0.15021276595744681 0.44992672203224227 0.32999473415819536
0.1504255319148936 0.45327996893163364 0.34140041555834916
0.15063829787234043 0.45643435634951884 0.3453834880312652
0.15085106382978725 0.46151843761355144 0.3548883652124474
0.15106382978723404 0.4684904738641915 0.3544042523339499
0.15127659574468086 0.4695023767741823 0.3568898504848868
0.15148936170212765 0.47239863214460187 0.3594579347702085
0.15170212765957447 0.4772744246664115 0.35949732685815855
0.15191489361702126 0.47981457430792557 0.35699592106130207
0.15212765957446808 0.47840634727921083 0.35363623773406644
0.1523404255319149 0.477284191272376 0.3551531611777687
0.1525531914893617 0.4811919882755251 0.35794282983272063
0.15276595744680851 0.48091195887360294 0.35710796287249624
0.1529787234042553 0.47980129514918357 0.3579352699849744
0.15319148936170213 0.47923790913532005 0.36008537355731485
0.15340425531914895 0.4810560607679023 0.36344032332968307
0.15361702127659574 0.4850897883869184 0.36857523010993054
0.15382978723404256 0.48522201555389066 0.37151981842812476
0.15404255319148935 0.48803338714979577 0.37859912011853647
0.15425531914893617 0.4923237571679864 0.371891667631146
0.154468085106383 0.4953836221135379 0.37376675570729057
0.15468085106382978 0.49644275198763166 0.38008557896036216
0.1548936170212766 0.495342114930566 0.38847491178445975
0.1551063829787234 0.49233760812784777 0.3982699166811496
0.15531914893617021 0.48716523833348047 0.40888664525474233
0.155531914893617 0.48164430879008435 0.4205974693672369
0.15574468085106383 0.47407996029044824 0.42975957090997774
0.15595744680851065 0.4671819674415652 0.43952811460110613
0.15617021276595744 0.4637941374209849 0.44807798444021385
0.15638297872340426 0.45716695969140747 0.45454461277045727
0.15659574468085105 0.45328701352579415 0.46060106653097
0.15680851063829787 0.44611728951110985 0.4629312208905345
0.1570212765957447 0.44229326994941826 0.46421658662778775
0.15723404255319148 0.4430242658732927 0.46823775719126587
0.1574468085106383 0.4470547158587859 0.4676907719046434
0.1576595744680851 0.44854133613015745 0.47139237506793047
0.15787234042553192 0.4509037616023448 0.47848220316687173
0.15808510638297874 0.45046303028340284 0.4899481910642971
0.15829787234042553 0.451069664364171 0.5055625916484575
0.15851063829787235 0.45188080117244755 0.5194549745976496
0.15872340425531914 0.4560276342009073 0.5313506828824454
0.15893617021276596 0.45196348699981026 0.5416196071326329
0.15914893617021275 0.4519686854325138 0.5462323219710687
0.15936170212765957 0.44480138963756216 0.5517624704736451
0.1595744680851064 0.44259237972873 0.5558150218240461
0.15978723404255318 0.43767474072481893 0.556920352294704
0.16 0.42965989137480143 0.5617653702703397
0.1602127659574468 0.42122926863221083 0.559741634262043
0.16042553191489362 0.417893466915306 0.5609956569792639
0.16063829787234044 0.4157492902164066 0.5593930601592423
0.16085106382978723 0.41728021848828245 0.5615956539437016
0.16106382978723405 0.42167538125447673 0.5635282737454705
0.16127659574468084 0.42760208536298355 0.5650099497725973
0.16148936170212766 0.4338694844866361 0.5677239055906909
0.16170212765957448 0.43845297232518465 0.5710346558914469
0.16191489361702127 0.443209024419089 0.5720566682950659
0.1621276595744681 0.4512066092432839 0.5711639027161087
0.16234042553191488 0.45000751069288886 0.568229298675302
0.1625531914893617 0.4513747457312312 0.5699339040077886
0.1627659574468085 0.4498401598078374 0.5682350722390606
0.16297872340425532 0.45188080117244755 0.5640734461069039
0.16319148936170214 0.4491434727178898 0.5591193702602915
0.16340425531914893 0.44498588580792703 0.5500321105254996
0.16361702127659575 0.4400792452813241 0.539480208677854
0.16382978723404254 0.4373229518673404 0.5322912786601549
0.16404255319148936 0.43456144513489353 0.5311787137609372
0.16425531914893618 0.4244129697191041 0.5335945262801651
0.16446808510638297 0.41539465948841336 0.5355780249111849
0.1646808510638298 0.4096249220040494 0.5326618100852429
0.16489361702127658 0.4088658051100851 0.5248134120622279
0.1651063829787234 0.41649670572214065 0.5127732609087283
0.16531914893617022 0.4202397581707984 0.4984780191356279
0.16553191489361702 0.42695740740391225 0.4840698186596755
0.16574468085106384 0.42887350157522747 0.4667957529055706
0.16595744680851063 0.4367924412352553 0.45354194911904044
0.16617021276595745 0.44011432255843314 0.4457908926982919
0.16638297872340424 0.44255294845122156 0.4371504790831189
0.16659574468085106 0.44365944144759945 0.42948002774001937
0.16680851063829788 0.4489728951569308 0.42605240890693874
0.16702127659574467 0.44841936844491026 0.4246726017271994
0.1672340425531915 0.4489301197846422 0.42452369320957506
0.16744680851063828 0.4481940555312234 0.4269012803219172
0.1676595744680851 0.4510982688506998 0.42256961406936977
0.16787234042553192 0.456556314635214 0.419429703514944
0.16808510638297872 0.45969711773326827 0.4094781034676475
0.16829787234042554 0.4633370234898545 0.39770309029435064
0.16851063829787233 0.46629396893517827 0.3866469029346405
0.16872340425531915 0.4682599970315556 0.37929426391266113
0.16893617021276597 0.47043094646693073 0.37366320941437714
0.16914893617021276 0.46918253410387034 0.3692395186229826
0.16936170212765958 0.467513434294089 0.36668149876736833
0.16957446808510637 0.467513434294089 0.3665283266703501
0.1697872340425532 0.46700271803544574 0.35939518648260965
0.17 0.46844277276499713 0.35930822003741175
0.1702127659574468 0.4671818483454564 0.35720667933817724
0.17042553191489362 0.4638699217265512 0.35879739629982893
0.17063829787234042 0.45777870982780455 0.3551182124975496
0.17085106382978724 0.45920791754058354 0.35433945728799465
0.17106382978723403 0.46223337900860634 0.3534073373268923
0.17127659574468085 0.46528734023522417 0.3488711302562892
0.17148936170212767 0.46915597902880474 0.34940963656471696
0.17170212765957446 0.47179321550133085 0.3435253733971072
0.17191489361702128 0.4828215295671248 0.33809300616017
0.17212765957446807 0.48788927524232584 0.3366374619083144
0.1723404255319149 0.4871343626275462 0.33553295539883393
0.1725531914893617 0.4878207015852863 0.3352677438030079
0.1727659574468085 0.48806471376560434 0.33689351275746876
0.17297872340425532 0.49091438701980744 0.337006656250278
0.17319148936170212 0.4908174680228815 0.3407881220880914
0.17340425531914894 0.48865305264566355 0.3444508069621348
0.17361702127659576 0.48644091814597584 0.3533352236326021
0.17382978723404255 0.48054178013381327 0.3551538837322912
0.17404255319148937 0.4781057536346488 0.3611712370834751
0.17425531914893616 0.4754726429370596 0.3638043477810645
0.17446808510638298 0.47340881337523216 0.3688987210347827
0.17468085106382977 0.47579462522432264 0.3764595909494415
0.1748936170212766 0.4763067904250122 0.3870598173093624
0.1751063829787234 0.47989294499746377 0.40062834971446104
0.1753191489361702 0.48203742138453565 0.4149964926545584
0.17553191489361702 0.4889970452566116 0.42743711829458597
0.17574468085106382 0.48790447001445486 0.44167786935267805
0.17595744680851064 0.48705422569614076 0.45466921100207586
0.17617021276595746 0.4862941776888205 0.46642847648017716
0.17638297872340425 0.4820827713215929 0.4749131115065541
0.17659574468085107 0.47671074712205463 0.4804427825116965
0.17680851063829786 0.4694474854501129 0.4873160100748249
0.17702127659574468 0.46580652433330205 0.49498248969909986
0.1772340425531915 0.4626599182989247 0.498747018682023
0.1774468085106383 0.4594645677991116 0.5015935442806011
0.1776595744680851 0.45823242958868093 0.5026903436600485
0.1778723404255319 0.45820306082114187 0.5089226104664292
0.17808510638297873 0.4522830582334452 0.5140337230906022
0.17829787234042552 0.4470686326758018 0.5239626412984372
0.17851063829787234 0.4407574842274792 0.5331255103838928
0.17872340425531916 0.4338821513284805 0.5411091559692398
0.17893617021276595 0.436324418635956 0.5437606460546658
0.17914893617021277 0.4388744194278399 0.5452036895098149
0.17936170212765956 0.4429978807049738 0.5494056295096057
0.17957446808510638 0.450079243173518 0.5518136767991872
0.1797872340425532 0.4589412822736126 0.5490409373700433
0.18 0.4593330763355522 0.5479371781286945
0.1802127659574468 0.4563213448829127 0.5428332124819955
0.1804255319148936 0.45300136279943387 0.5399100438529363
0.18063829787234043 0.4494455368623063 0.5401351525949711
0.18085106382978725 0.44323167995823337 0.5447635265788326
0.18106382978723404 0.43824493428906697 0.5498819799740366
0.18127659574468086 0.43185258590376435 0.5545504627320446
0.18148936170212765 0.4284318514899854 0.5552798152902535
0.18170212765957447 0.4284318514899854 0.5554659721225942
0.18191489361702126 0.42607773318953845 0.5572087412735736
0.18212765957446808 0.4236884778687963 0.555588819832646
0.1823404255319149 0.42210110086729347 0.5524638198705611
0.1825531914893617 0.41070490509170254 0.5511775016938828
0.1827659574468085 0.39344138914144156 0.5486534591563912
0.1829787234042553 0.38148708588481073 0.5488508753172101
0.18319148936170213 0.37721684644598164 0.5475621921228769
0.18340425531914895 0.37133667237815693 0.5398080214138095
0.18361702127659574 0.36965995706996474 0.5337226865602888
0.18382978723404256 0.3726724995903411 0.5320207447221252
0.18404255319148935 0.3794737125967719 0.528854606434384
0.18425531914893617 0.3786028334147533 0.5254863797616199
0.184468085106383 0.3800427194178268 0.5206335425803971
0.18468085106382978 0.3858943858644844 0.515933848383656
0.1848936170212766 0.3954323951576474 0.5068538994955435
0.1851063829787234 0.4050037086370865 0.5002286547703532
0.1853191489361702 0.40864834693755886 0.48765482160347384
0.185531914893617 0.41575188368617316 0.477232118137063
0.18574468085106383 0.42113849342857584 0.4642519589053559
0.18595744680851065 0.4255395042930176 0.4542652428276941
0.18617021276595744 0.4306655393757688 0.44657619020356715
0.18638297872340426 0.43679380482121966 0.43763376362645257
0.18659574468085105 0.44231698607741926 0.43052884973103445
0.18680851063829787 0.44406448461162684 0.42313173914537766
0.1870212765957447 0.4467250151679802 0.42247941801805167
0.18723404255319148 0.45770309100457673 0.41561049431319286
0.1874468085106383 0.45727185653940117 0.4119561225076095
0.1876595744680851 0.4611835211450859 0.4064276171060133
0.18787234042553191 0.46586204581454116 0.40004278546221134
0.18808510638297873 0.4680687890809285 0.39119135259504345
0.18829787234042553 0.46917402624411786 0.37919356098656026
0.18851063829787235 0.4743291065837475 0.3683793249802655
0.18872340425531914 0.4753297508549097 0.3659403936514417
0.18893617021276596 0.4771932778667802 0.36163095220967095
0.18914893617021278 0.4763067904250122 0.3591470522869394
0.18936170212765957 0.4756358906409069 0.3612929508328486
0.1895744680851064 0.4766809357650251 0.3566880677544681
0.18978723404255318 0.4786440566357326 0.35693544123105325
0.19 0.48042833657397194 0.3609749584542718
0.1902127659574468 0.4777733524582174 0.3611385017686823
0.19042553191489361 0.4762976884467306 0.3600481835610857
0.19063829787234043 0.47573355525590727 0.360612316751909
0.19085106382978723 0.4785278407983013 0.3572840887433471
0.19106382978723405 0.4776431329090281 0.3527617193928532
0.19127659574468084 0.4779678436180478 0.3487640277590479
0.19148936170212766 0.4795567835874187 0.3437074509155456
0.19170212765957448 0.4784513519311618 0.3359694293217479
0.19191489361702127 0.48100917664689213 0.33005554095734535
0.1921276595744681 0.4781935579686088 0.32897575012934666
0.19234042553191488 0.47728382999511476 0.33210087540716576
0.1925531914893617 0.4766283370700539 0.3349699990401559
0.19276595744680852 0.4753297508549097 0.3416635894134456
0.19297872340425531 0.47358332621302623 0.3486890937905458
0.19319148936170213 0.47380465310110104 0.3530807277947767
0.19340425531914893 0.47187381575681625 0.35665573969017933
0.19361702127659575 0.47429186550194585 0.3628485087273897
0.19382978723404254 0.476413112428583 0.3679617201471955
0.19404255319148936 0.47751696278122724 0.36906557049983985
0.19425531914893618 0.47897729085780755 0.37016768793012517
0.19446808510638297 0.487016844797464 0.372729915737373
0.1946808510638298 0.49021956530404204 0.37775628962002356
0.19489361702127658 0.4909901773447736 0.3862374251615491
0.1951063829787234 0.4936746212690584 0.3961816188666011
0.19531914893617022 0.4960281025326435 0.4110256599337182
0.19553191489361701 0.5046409379579873 0.42225409138778863
0.19574468085106383 0.5059739078770257 0.44122411737802414
0.19595744680851063 0.509918385090083 0.45580329398827585
0.19617021276595745 0.5115414524160693 0.46684258206080587
0.19638297872340427 0.5118109077406456 0.47917775391244816
0.19659574468085106 0.5114802149487054 0.48237318369629756
0.19680851063829788 0.5105835650425038 0.49203217681384576
0.19702127659574467 0.503266296230852 0.4961126499317526
0.1972340425531915 0.493747193741844 0.5026726894034944
0.19744680851063828 0.4854314710223925 0.5090163868037677
0.1976595744680851 0.4750730122316545 0.5145397029706407
0.19787234042553192 0.46350680520542853 0.5205937477668839
0.19808510638297872 0.448682231357908 0.5325733468081768
0.19829787234042554 0.43368319521505905 0.5416746081082501
0.19851063829787233 0.41561340268464503 0.5520099326717811
0.19872340425531915 0.4032056590649864 0.5549500779366798
0.19893617021276597 0.3929844605457125 0.5601236924553877
0.19914893617021276 0.3883732291157791 0.558673794400768
0.19936170212765958 0.3897926792907988 0.5588205249185468
0.19957446808510637 0.3937235230264508 0.5579130182534708
0.1997872340425532 0.4010040694767669 0.552804308067006
0.2 0.40980011771858826 0.5506924254415028
0.2002127659574468 0.4127936286090961 0.5486133083718516
0.20042553191489362 0.41708481646925377 0.5424938546449887
0.20063829787234042 0.41887938010892267 0.5392731715515043
0.20085106382978724 0.4155630688604682 0.5353106005605963
0.20106382978723403 0.41530245513952324 0.5353974718009112
0.20127659574468085 0.41356149020993577 0.5349291646311676
0.20148936170212767 0.41332772594603695 0.5364347117789632
0.20170212765957446 0.4155387282095208 0.5377644789069099
0.20191489361702128 0.41966979444331054 0.5408540002202802
0.20212765957446807 0.42109367782669965 0.5425861002261433
0.2023404255319149 0.4235466536394723 0.5417684416218858
0.2025531914893617 0.42313851387404594 0.5413603018564593
0.2027659574468085 0.4236461623180142 0.5359469349328833
0.20297872340425532 0.42585813252880633 0.52732750830355
0.20319148936170212 0.4296548438914684 0.5195988937321873
0.20340425531914894 0.42946464418184266 0.51555563259438
0.20361702127659576 0.4283641380899978 0.5159591323992927
0.20382978723404255 0.42764960776393857 0.5105031753786029
0.20404255319148937 0.42875133712473934 0.5101836897438489
0.20425531914893616 0.43074307730153477 0.5086366783142023
0.20446808510638298 0.4323400097703958 0.5041296681208108
0.20468085106382977 0.433744614798621 0.5003052142194543
0.2048936170212766 0.44090131406026667 0.4948003212452249
0.2051063829787234 0.443059758314607 0.49009609131411686
0.2053191489361702 0.4448590801323926 0.48153047367294916
0.20553191489361702 0.4441657919075288 0.474251403988905
0.20574468085106382 0.44900417786129804 0.4670061031068603
0.20595744680851064 0.45184578630384215 0.4554930214451357
0.20617021276595746 0.4546549265008706 0.44573352192949445
0.20638297872340425 0.4536012199317308 0.4379827194922278
0.20659574468085107 0.4554304261823706 0.4268153547714644
0.20680851063829786 0.4538221030716472 0.4235083219164561
0.20702127659574468 0.4530036313090257 0.4204697443626891
0.2072340425531915 0.45273649250114034 0.4207368831705742
0.2074468085106383 0.44952470699196034 0.42234060851862654
0.2076595744680851 0.44736603787869755 0.4185040088179085
0.2078723404255319 0.44732713320976975 0.41343595300390984
0.20808510638297872 0.4487536103465544 0.40791734152565484
0.20829787234042554 0.4562231683744504 0.39693593781830105
0.20851063829787234 0.46009393241358887 0.38406825615504814
0.20872340425531916 0.465988029222682 0.37689463984291177
0.20893617021276595 0.4642234836622819 0.37186301261843047
0.20914893617021277 0.46512508295655286 0.36611830935430134
0.20936170212765956 0.46734435877873237 0.3644996485022046
0.20957446808510638 0.46744125978683354 0.36087177213839605
0.2097872340425532 0.4673379399301952 0.35826049680649275
0.21 0.4712267180819533 0.35715668149563273
0.2102127659574468 0.4657067898258072 0.35718168020845803
0.2104255319148936 0.4687021950552338 0.3586793828231714
0.21063829787234042 0.4723981722738704 0.35906112227123865
0.21085106382978724 0.4695403027274416 0.35560600887076865
0.21106382978723404 0.47138305077827264 0.3555524079195775
0.21127659574468086 0.47266962812798347 0.3558599273190121
0.21148936170212765 0.47239863214460187 0.35363952744954985
0.21170212765957447 0.47716943167351467 0.3474748451573906
0.2119148936170213 0.48196132408073045 0.3426600730858548
0.21212765957446808 0.48090120138060394 0.34417769756943556
0.2123404255319149 0.4827918876812631 0.34449194809446193
0.2125531914893617 0.48265041754631854 0.34587913790067704
0.2127659574468085 0.4825405789986777 0.3465944648653705
0.2129787234042553 0.4814418815168092 0.35024615248674423
0.21319148936170212 0.4811919882755251 0.35546446707069607
0.21340425531914894 0.4811919882755251 0.3600061858665533
0.21361702127659574 0.47923790913532005 0.36453394202745276
0.21382978723404256 0.47874916390877054 0.3693211829402768
0.21404255319148935 0.47765315613588866 0.3707865168539326
0.21425531914893617 0.47924692446628253 0.3732516541065955
0.214468085106383 0.4820708607386312 0.3756717147044455
0.21468085106382978 0.48017606435677046 0.38086922005762547
0.2148936170212766 0.4757612442509023 0.3859876565795814
0.2151063829787234 0.48098340732144274 0.3937219401975864
0.2153191489361702 0.4719424148512974 0.41371165295495294
0.21553191489361703 0.46726014175130814 0.42197251331343827
0.21574468085106382 0.4600474990712506 0.4343951751357473
0.21595744680851064 0.4561701485491101 0.4448749964630751
0.21617021276595744 0.4554610852002781 0.45479217031984515
0.21638297872340426 0.4534615111836134 0.46627701558029283
0.21659574468085105 0.4519547926665119 0.4748118103964592
0.21680851063829787 0.4537826450989163 0.4774405356363237
0.2170212765957447 0.45249958169567056 0.4811105963226214
0.21723404255319148 0.45118623786831014 0.48679500415172733
0.2174468085106383 0.4515303238944436 0.4899109521425393
0.2176595744680851 0.4518591454732213 0.49089741687887267
0.2178723404255319 0.45165206541684855 0.4987166039896646
0.21808510638297873 0.4509037616023448 0.5125873013847185
0.21829787234042553 0.4475107913793589 0.5299372936911619
0.21851063829787234 0.4479706151766391 0.546623223741427
0.21872340425531914 0.44992672203224227 0.5482552143723917
0.21893617021276596 0.4501756404472031 0.552764795307975
0.21914893617021278 0.4509037616023448 0.5553547398680092
0.21936170212765957 0.44941092868033994 0.5613637801576395
0.2195744680851064 0.4479726428920372 0.5661025962378113
0.21978723404255318 0.4457305102176617 0.5634345826539272
0.22 0.445913517860195 0.5631582662725058
0.2202127659574468 0.4430639543612437 0.5592846818428909
0.2204255319148936 0.44211040547142155 0.5564240351734244
0.22063829787234043 0.44126666441209567 0.5572677762327503
0.22085106382978723 0.43675380968807304 0.5601636462414126
0.22106382978723405 0.4301510851102533 0.5618368937289784
0.22127659574468084 0.4242225799695572 0.5655185045443656
0.22148936170212766 0.4179588318689743 0.5687083978446849
0.22170212765957448 0.4104776000462293 0.5726854219290582
0.22191489361702127 0.4099057184425253 0.5770547224990464
0.2221276595744681 0.4114850530764592 0.5789131140834057
0.22234042553191488 0.41475329750854906 0.5728692637432714
0.2225531914893617 0.4172328122239126 0.5676230744394972
0.22276595744680852 0.422243307257019 0.5615273978544879
0.2229787234042553 0.4235466536394723 0.554634691401481
0.22319148936170213 0.4267633781290043 0.5484949712810991
0.22340425531914893 0.4283858399104878 0.5411134831082665
0.22361702127659575 0.42859236718163546 0.5405506285143079
0.22382978723404254 0.4305897280198202 0.5372488911725862
0.22404255319148936 0.431362970200293 0.5349291646311676
0.22425531914893618 0.431362970200293 0.5326830642848593
0.22446808510638297 0.43021879237115523 0.5248951665495344
0.2246808510638298 0.43080668278003736 0.5156594437699332
0.22489361702127658 0.431362970200293 0.5051675700995183
0.2251063829787234 0.43422211070782796 0.4950864768652802
0.22531914893617022 0.4365343546617405 0.484050795649176
0.225531914893617 0.44005171583012803 0.47304406768128554
0.22574468085106383 0.44239701545971283 0.4653835407460406
0.22595744680851063 0.4420731393487091 0.4531187036015372
0.22617021276595745 0.4448666238616641 0.442460206111552
0.22638297872340427 0.44888382261325904 0.43370949389300534
0.22659574468085106 0.4507700183959254 0.4271464883818772
0.22680851063829788 0.4499351349628577 0.41969738587336985
0.22702127659574467 0.45178470084041633 0.4147693337583393
0.2272340425531915 0.4504634885599242 0.40529953181399486
0.22744680851063828 0.4499949324707134 0.4019835726587443
0.2276595744680851 0.45140586817272793 0.3991478379575711
0.22787234042553192 0.4509037616023448 0.39513809042226494
0.22808510638297871 0.4545427769350421 0.3859803963008978
0.22829787234042553 0.453302096845282 0.3776853518475891
0.22851063829787233 0.4528578407425501 0.36941137663180257
0.22872340425531915 0.45713996062432666 0.36517907321751447
0.22893617021276597 0.45829836724633277 0.3623762527788523
0.22914893617021276 0.45150138954482955 0.3607900459532865
0.22936170212765958 0.44699560332193444 0.3598726124094532
0.22957446808510637 0.4465278644313247 0.35968569386684796
0.2297872340425532 0.444481023235464 0.36230373849497244
0.23 0.4489834601170896 0.35517077255976615
0.2302127659574468 0.4507623549412434 0.356060219971843
0.23042553191489362 0.4562333773855835 0.35841504435235316
0.23063829787234041 0.46175508569672236 0.3577246929781484
0.23085106382978723 0.467275518838738 0.35625411065485235
0.23106382978723405 0.47332633531670326 0.3567368816036557
0.23127659574468085 0.47755465545339987 0.35488305827400607
0.23148936170212767 0.47900664881555644 0.3526852856615105
0.23170212765957446 0.48119643907032006 0.3483057051519832
0.23191489361702128 0.4827733203012379 0.3457562351457577
0.23212765957446807 0.4831460674157304 0.3468252786465945
0.2323404255319149 0.4814667204894631 0.3431391998558025
0.2325531914893617 0.48213319380091924 0.3424523693209576
0.2327659574468085 0.4800565427353414 0.3436670178461819
0.23297872340425532 0.4778528494245361 0.3467685477420491
0.23319148936170211 0.4772565234218206 0.34989749506958695
0.23340425531914893 0.4767566672868193 0.3552675061325032
0.23361702127659575 0.47283968899465223 0.36130089876291227
0.23382978723404255 0.47174140203806136 0.367233390395917
0.23404255319148937 0.4729822975063769 0.370393142645605
0.23425531914893616 0.4797038113355194 0.3753066165830861
0.23446808510638298 0.4754348907973983 0.38457021077785736
0.2346808510638298 0.4764075699849912 0.38817166999582114
0.2348936170212766 0.47269671335270286 0.398574195341408
0.2351063829787234 0.4729513547119675 0.40824903226478987
0.2353191489361702 0.47294982318583273 0.4203905504332174
0.23553191489361702 0.46864981452897647 0.4329270797858215
0.23574468085106381 0.46573470895081426 0.44426502578252625
0.23595744680851063 0.4636990360604487 0.46090111649931276
0.23617021276595745 0.45986023799197484 0.4627114785550661
0.23638297872340425 0.46101538368664907 0.47414077355586554
0.23659574468085107 0.4587200781631655 0.4741785067455418
0.23680851063829786 0.4587200781631655 0.4767729688817227
0.23702127659574468 0.4571448595928344 0.4790484788503829
0.2372340425531915 0.4534515762898501 0.4808951205018751
0.2374468085106383 0.45369728077652743 0.48203142830950246
0.2376595744680851 0.4455047746738804 0.48864799889800614
0.2378723404255319 0.453062163100425 0.4926527009733253
0.23808510638297872 0.44077897459343923 0.5064990288509228
0.23829787234042554 0.43800732407624554 0.5228124195641306
0.23851063829787233 0.4352711284807034 0.5359619866935755
0.23872340425531915 0.4352711284807034 0.548597553064761
0.23893617021276595 0.43853578261129467 0.5587163630720627
0.23914893617021277 0.4409284113284508 0.5643975730128749
0.23936170212765956 0.4509737284774185 0.568795704968384
0.23957446808510638 0.4693381423047434 0.5723585342640174
0.2397872340425532 0.4677061302061822 0.578895945285784
0.24 0.47481671719620544 0.5771666907079828
0.2402127659574468 0.4778482070129676 0.569732407447171
0.2404255319148936 0.47674795636098555 0.5630738967678309
0.24063829787234042 0.4716995839471394 0.5586765436080102
0.24085106382978724 0.46480209461103406 0.5542907955280205
0.24106382978723404 0.45459308435274187 0.5462831631343675
0.24127659574468086 0.4394773637581567 0.538976425510198
0.24148936170212765 0.4242299747533259 0.5319980459208598
0.24170212765957447 0.4096903790771374 0.5315539260221159
0.2419148936170213 0.3963913555736524 0.5293616395773408
0.24212765957446808 0.3931539294761805 0.5299394692905429
0.2423404255319149 0.3952125061064973 0.5325836441499864
0.2425531914893617 0.39803590995955807 0.5322692345276971
0.2427659574468085 0.4007733486615225 0.5353034144700892
0.2429787234042553 0.408644447100888 0.5396910559881576
0.24319148936170212 0.4154675557014176 0.5359062042012701
0.24340425531914894 0.42423175401409446 0.5350751342289077
0.24361702127659574 0.434328924576944 0.5310122974341713
0.24382978723404256 0.4457202189781606 0.530420607275579
0.24404255319148935 0.4556090328076947 0.5297251216106788
0.24425531914893617 0.46589151135772205 0.5280898876404494
0.244468085106383 0.4806590268585627 0.5256561770415751
0.24468085106382978 0.4962193207113062 0.5242249651233147
0.2448936170212766 0.5071401097346953 0.5206276476365852
0.2451063829787234 0.5126680067971188 0.5115185758594313
0.2453191489361702 0.5086875370536171 0.5008685692049409
0.24553191489361703 0.5033483864739945 0.4898352144066112
0.24574468085106382 0.4924052126602555 0.47350062719063907
0.24595744680851064 0.47324797564911836 0.45472070840733664
0.24617021276595744 0.4493137404391855 0.4420982428118784
0.24638297872340426 0.4241572689800741 0.42744417099107845
0.24659574468085105 0.3982831557821806 0.41520689420069723
0.24680851063829787 0.3813475567240148 0.40524644986387537
0.2470212765957447 0.37176355642403514 0.4008487570088227
0.24723404255319148 0.37049220330533283 0.39771984044390435
0.2474468085106383 0.37157600288041426 0.39826401131337724
0.2476595744680851 0.37506617254019764 0.39305224799509986
0.2478723404255319 0.3804693809167521 0.3855296420436778
0.24808510638297873 0.38707463939122566 0.3816947272022866
0.24829787234042552 0.39375339671878373 0.367607913267379
0.24851063829787234 0.4021674867672642 0.3628544966230631
0.24872340425531914 0.4081575006609734 0.3583901323709102
0.24893617021276596 0.41299146624689875 0.35863277660894954
0.24914893617021278 0.4157303370786516 0.35753330318513415
0.24936170212765957 0.42315864744962717 0.35845856475812826
0.2495744680851064 0.430497592425556 0.3598660060278567
0.24978723404255318 0.4378729989759933 0.3618990898044328
0.25 0.44620838813927877 0.3644139854462342
0.2502127659574468 0.46010161851948667 0.37041622846315764
0.25042553191489364 0.46491513077570995 0.3730669893843614
0.25063829787234043 0.47516051914032503 0.37231553810205575
0.2508510638297872 0.4853294504770932 0.3701773627197553
0.251063829787234 0.4935028721930271 0.36681309904604265
0.25127659574468086 0.49398216792778055 0.3659013190034197
0.25148936170212766 0.49409921545914487 0.35993622519666096
0.25170212765957445 0.4985595490850797 0.357516586354241
0.2519148936170213 0.5010518368916956 0.3538379190203236
0.2521276595744681 0.4973984456484537 0.3503028076682725
0.2523404255319149 0.4936468827093635 0.34929164631167553
0.2525531914893617 0.48841038708105466 0.3507936716569095
0.2527659574468085 0.4834880815084766 0.34857111731113266
0.2529787234042553 0.48007253964243274 0.3503093741854897
0.2531914893617021 0.4736468339302824 0.3521452901032468
0.25340425531914895 0.4684904738641915 0.35149054780399125
0.25361702127659574 0.467848679407952 0.35791020594279566
0.25382978723404254 0.46458231558378116 0.3625591299568347
0.2540425531914894 0.46743245330159605 0.36516872745656365
0.2542553191489362 0.47248545311309803 0.3690060796507198
0.25446808510638297 0.4740327198730651 0.37735699843753995
0.25468085106382976 0.4774809337062377 0.3907236354246085
0.2548936170212766 0.4728308270360334 0.3986884694954761
0.2551063829787234 0.4750106617958917 0.41240717540644095
0.2553191489361702 0.46910553892134205 0.42456047389060575
0.25553191489361704 0.465981709201603 0.436074154506973
0.25574468085106383 0.46133391245006816 0.4468562601142834
0.2559574468085106 0.45858059348569435 0.45620741348527166
0.2561702127659574 0.4543303120460256 0.462132804710203
0.25638297872340426 0.45124246737655427 0.46764370942866784
0.25659574468085106 0.4509037616023448 0.47774285261590316
0.25680851063829785 0.4511769694080764 0.48523675045880127
0.2570212765957447 0.45500189800098073 0.48705422569614076
0.2572340425531915 0.4560826856042513 0.48852285645310783
0.2574468085106383 0.4582733395375888 0.49080891816068234
0.25765957446808513 0.46267033314229006 0.48900830483634583
0.2578723404255319 0.46396260328963446 0.4921068663070795
0.2580851063829787 0.46211726270664255 0.4998455559150026
0.2582978723404255 0.45824983509049516 0.5153152663795921
0.25851063829787235 0.457743038593063 0.5251053226993648
0.25872340425531914 0.4533823692942455 0.5343326185461835
0.25893617021276594 0.4494546693885944 0.5465877709067849
0.2591489361702128 0.44654180062689347 0.5539467191581577
0.2593617021276596 0.4435871141963828 0.5573787760039124
0.25957446808510637 0.4430874450415241 0.5595756262847383
0.2597872340425532 0.44236600063936427 0.5617750822581545
0.26 0.43957662956101495 0.5614416806239046
0.2602127659574468 0.43626965441274257 0.5593694781250232
0.2604255319148936 0.43624816805080613 0.5567643821676082
0.26063829787234044 0.43529911480616396 0.5586433639502506
0.26085106382978723 0.43378554255138374 0.5582309511496595
0.261063829787234 0.4333342932537121 0.5598522956253905
0.2612765957446809 0.4315527608220702 0.5601283596014492
0.26148936170212767 0.4337224190820477 0.5606180283681114
0.26170212765957446 0.4277752323592929 0.5635916217294887
0.26191489361702125 0.4264777723497801 0.5642403517342451
0.2621276595744681 0.42631205027583774 0.5582123922396873
0.2623404255319149 0.4249265727014765 0.5558197159355723
0.2625531914893617 0.4261557183568686 0.5528488084772938
0.26276595744680853 0.42505504377069275 0.5497560812869721
0.2629787234042553 0.42452369320957506 0.5459256304985443
0.2631914893617021 0.42382929980512135 0.5419219867143791
0.26340425531914896 0.4268341633056545 0.5383257698021465
0.26361702127659575 0.4265055788037682 0.5369110502253607
0.26382978723404255 0.4296025053765197 0.5288733128941201
0.26404255319148934 0.431362970200293 0.5286688811678947
0.2642553191489362 0.43274610604226627 0.530494285456132
0.264468085106383 0.4390227798162229 0.5213679908583995
0.26468085106382977 0.4436821397843102 0.5147513234827074
0.2648936170212766 0.44838594776224433 0.5038143282175728
0.2651063829787234 0.4507498075974523 0.49250192402547605
0.2653191489361702 0.45369829291489433 0.48164727960138615
0.265531914893617 0.457743038593063 0.4686063325648835
0.26574468085106384 0.45794641847541595 0.45668627933963557
0.26595744680851063 0.4587200781631655 0.4459812876580343
0.2661702127659574 0.4609973815967735 0.4369681015241654
0.2663829787234043 0.4601101313573542 0.4280743323560118
0.26659574468085107 0.4556085938950757 0.4231007300775835
0.26680851063829786 0.4522963509513844 0.41502290727525704
0.2670212765957447 0.446092249414763 0.41184674068588495
0.2672340425531915 0.44240529907968645 0.40780032952419126
0.2674468085106383 0.4360307345245411 0.40622029708990776
0.2676595744680851 0.4312386931477626 0.40180322899215426
0.26787234042553193 0.42891305443099703 0.39665611492953223
0.2680851063829787 0.4321674420709118 0.38960912023510763
0.2682978723404255 0.4410326956340239 0.37968054325215095
0.26851063829787236 0.4527249944992652 0.37236894868588283
0.26872340425531915 0.46183998205729926 0.36777449020769937
0.26893617021276595 0.4692453331149433 0.3647733075831666
0.26914893617021274 0.4738921172648059 0.36420546263826514
0.2693617021276596 0.47567190873460785 0.36492427943331696
0.2695744680851064 0.4767747738340375 0.36539226284234233
0.26978723404255317 0.4784761226079484 0.36649746530983646
0.27 0.47706854033638774 0.3704939732384093
0.2702127659574468 0.4763067904250122 0.37856215452999337
0.2704255319148936 0.4733844440984166 0.3805539884270543
0.27063829787234045 0.47605886508834316 0.3840931828303652
0.27085106382978724 0.4746019031581942 0.38103556837828667
0.27106382978723403 0.47758781036337467 0.37845084323062333
0.2712765957446808 0.4796858245914695 0.37514259059049254
0.2714893617021277 0.4770036985777916 0.3686889516145375
0.27170212765957447 0.4755503381039488 0.36211905739810213
0.27191489361702126 0.4709088803876019 0.35747942477906053
0.2721276595744681 0.4665955067476199 0.3551538837322912
0.2723404255319149 0.4692530616121974 0.3554589188314935
0.2725531914893617 0.47557016577544065 0.35710796287249624
0.2727659574468085 0.48277689118182915 0.3575041885990723
0.27297872340425533 0.4856195658795487 0.358085002442599
0.2731914893617021 0.486077186126038 0.357462323990498
0.2734042553191489 0.4824218510550961 0.35710796287249624
0.27361702127659576 0.47436184168513645 0.357961731196295
0.27382978723404255 0.45965989245568345 0.3561346458301522
0.27404255319148935 0.4486431431622687 0.3578781101944804
0.2742553191489362 0.43964551270008856 0.3629702002931119
0.274468085106383 0.43858151701152615 0.36714216831877666
0.2746808510638298 0.4411917147538279 0.3802580265405615
0.27489361702127657 0.44684361394995764 0.39080134703541314
0.2751063829787234 0.45270095606498334 0.4007609741719794
0.2753191489361702 0.46259052535087175 0.4135355967131808
0.275531914893617 0.467536782057363 0.42375678350893814
0.27574468085106385 0.46939013816796027 0.4341393383779333
0.27595744680851064 0.4749061397373653 0.44406448461162684
0.27617021276595743 0.47590318747941857 0.4452752934484079
0.2763829787234042 0.47427378268818116 0.4501635078221199
0.2765957446808511 0.4714095591536926 0.4574454367182442
0.27680851063829787 0.46888351744440476 0.45891659995327216
0.27702127659574466 0.4667280503257413 0.45960128993239074
0.2772340425531915 0.4616362771505669 0.4607189164720902
0.2774468085106383 0.4605383044081124 0.4636052760136786
0.2776595744680851 0.4591763549195674 0.46594870867533256
0.27787234042553194 0.45812828175430687 0.47740679324077245
0.27808510638297873 0.457697394359258 0.4927702750852423
0.2782978723404255 0.45612701151373364 0.5087015652366497
0.2785106382978723 0.4557889594528579 0.5226212920469918
0.27872340425531916 0.4575663448411494 0.5367117739540371
0.27893617021276595 0.45711710528740124 0.5470437575439996
0.27914893617021275 0.46622716670678604 0.5580935640556802
0.2793617021276596 0.4706315470559466 0.5676494729015161
0.2795744680851064 0.4766897302920356 0.5719081433692962
0.2797872340425532 0.4838855172456877 0.5751885310412986
0.27999999999999997 0.4900554231822454 0.5782679451643147
0.2802127659574468 0.4911578764199146 0.5773328510323059
0.2804255319148936 0.49447186980254093 0.576941866145579
0.2806382978723404 0.48116653404105725 0.576930118037363
0.28085106382978725 0.4668208727838574 0.5707218570648918
0.28106382978723404 0.45146194015817603 0.5679092257486141
0.28127659574468084 0.43365599691616763 0.5661518292193051
0.2814893617021277 0.4140408859154404 0.5629485957087941
0.2817021276595745 0.4003237997045116 0.5596559377131334
0.28191489361702127 0.38915094425170893 0.5577046074408755
0.28212765957446806 0.38561772522597626 0.5557982252443315
0.2823404255319149 0.38264778714180303 0.5507897901638746
0.2825531914893617 0.3834880312652662 0.5486077186126037
0.2827659574468085 0.3834880312652662 0.5477887350810539
0.28297872340425534 0.3848102663034308 0.5443690015726522
0.28319148936170213 0.38854719983081015 0.5412286651443015
0.2834042553191489 0.39131681376683747 0.5352278349495758
0.2836170212765957 0.39355526363718685 0.5313178430216519
0.28382978723404256 0.39525322576131294 0.531658792845887
0.28404255319148936 0.39716658524670256 0.5287943488675854
0.28425531914893615 0.3988512394863036 0.5250127056738435
0.284468085106383 0.4014593102056314 0.5200969106141755
0.2846808510638298 0.40444959319247603 0.5095275215901349
0.2848936170212766 0.4095746915271186 0.4993068351730234
0.2851063829787234 0.41786054363507497 0.4894569621577941
0.2853191489361702 0.4210871451504114 0.48024876783303166
0.285531914893617 0.4257167902074063 0.4694770757249407
0.2857446808510638 0.42915957983658337 0.46028165489262307
0.28595744680851065 0.4333758970601586 0.4539525757519734
0.28617021276595744 0.4335073724156354 0.44604398794624894
0.28638297872340424 0.436431106173631 0.43783637094536143
0.2865957446808511 0.43722520762090866 0.43205389671880956
0.2868085106382979 0.4391508796529887 0.42847446215217294
0.28702127659574467 0.43951045667803335 0.42603621246055395
0.28723404255319146 0.4425832140135245 0.4228060183404212
0.2874468085106383 0.4433439783354999 0.42246589422528197
0.2876595744680851 0.44647367437390506 0.4206155349291647
0.2878723404255319 0.44967972799362843 0.415719400494299
0.28808510638297874 0.453349714934008 0.40399915342460735
0.28829787234042553 0.45822368375918404 0.39425121577425515
0.2885106382978723 0.46848179836281056 0.3776396746468603
0.28872340425531917 0.4689610268821708 0.3693389242658508
0.28893617021276596 0.47285034556083533 0.3645461787547193
0.28914893617021276 0.4737010802676455 0.35938745056564264
0.28936170212765955 0.473621869787362 0.3552307812761587
0.2895744680851064 0.4763884506209145 0.35018702568587584
0.2897872340425532 0.4759781628922217 0.3505973134145687
0.29 0.4776687478276717 0.3520253911094682
0.2902127659574468 0.47735769560865704 0.3540291129351041
0.2904255319148936 0.4801028726977234 0.35677173484939867
0.2906382978723404 0.47844479999728307 0.3506939341556837
0.2908510638297872 0.47954669687475054 0.3480058190021425
0.29106382978723405 0.4810729887924344 0.3456214869974468
0.29127659574468084 0.48216902784562765 0.34177305628814353
0.29148936170212764 0.4855591425247059 0.3384642213733054
0.2917021276595745 0.48385029846768673 0.33756717147044446
0.2919148936170213 0.48036284715501176 0.33478395120972604
0.29212765957446807 0.4769766198731503 0.3377207765314267
0.2923404255319149 0.47194305635571837 0.33993056928464577
0.2925531914893617 0.4628730043158118 0.34280747171746373
0.2927659574468085 0.4539466766211408 0.34814691227884087
0.2929787234042553 0.4507108605552575 0.35534051761204594
0.29319148936170214 0.44922464167991527 0.3622974845565612
0.29340425531914893 0.45472588019929955 0.37137377981099123
0.2936170212765957 0.4615060572612047 0.3784576938024847
0.29382978723404257 0.47526779755196386 0.3860521679169094
0.29404255319148936 0.48816448700288423 0.3906200178823841
0.29425531914893616 0.502147046902952 0.3894420395679371
0.29446808510638295 0.5012021123445553 0.3937332416670056
0.2946808510638298 0.5046409379579873 0.39986608352651504
0.2948936170212766 0.5031680302385391 0.40205178309721545
0.2951063829787234 0.4983864914815102 0.4063521504334872
0.29531914893617023 0.49480345577359974 0.42260315731105064
0.295531914893617 0.48613575967753864 0.42752744779961116
0.2957446808510638 0.4783992437454313 0.4355910210248803
0.29595744680851066 0.4702426638937704 0.44231229458204774
0.29617021276595745 0.4614179006338564 0.45010169421195495
0.29638297872340424 0.4500434285035958 0.45542437743903913
0.29659574468085104 0.442181827950568 0.4598353876639716
0.2968085106382979 0.43132480710311694 0.4615658444668437
0.2970212765957447 0.42631249248267233 0.46666035462431704
0.29723404255319147 0.42320632656102203 0.47058176029468546
0.2974468085106383 0.42867885371222725 0.4779576014468475
0.2976595744680851 0.43429408891060084 0.4844609645568995
0.2978723404255319 0.43680951043491617 0.4950744455343262
0.29808510638297875 0.43855036451211055 0.5079990417377117
0.29829787234042554 0.4404735619305446 0.5220796837331944
0.29851063829787233 0.441133365901319 0.5330752694719897
0.2987234042553191 0.4391239814576207 0.5438884366725699
0.298936170212766 0.4370751239627116 0.5507854274482831
0.29914893617021276 0.43624816805080613 0.5593155763726505
0.29936170212765956 0.4366462953861355 0.5618515877222688
0.2995744680851064 0.43617730741563554 0.5609978648268124
0.2997872340425532 0.4352711284807034 0.5619721942401109
0.3 0.43372815501235745 0.5566803126188994
0.3002127659574468 0.4360062559630858 0.5518613867732054
0.30042553191489363 0.4341695552048283 0.5445335153911633
0.3006382978723404 0.4320159450544923 0.5404649146246834
0.3008510638297872 0.4323979940888887 0.5385500094723965
0.30106382978723406 0.42467845922086245 0.5378602833414754
0.30127659574468085 0.4245638844386519 0.5383688987410652
0.30148936170212765 0.4248905803946837 0.5418880848365475
0.3017021276595745 0.4215852563822897 0.5473955667961975
0.3019148936170213 0.42147503660834895 0.5511862236501566
0.3021276595744681 0.41770921400936806 0.5554221978128107
0.30234042553191487 0.4208774192201033 0.5527777611839527
0.3025531914893617 0.4218023547446708 0.5531911904920545
0.3027659574468085 0.4215474335774487 0.5503483334700611
0.3029787234042553 0.4250297219279652 0.5505267798861313
0.30319148936170215 0.4273898071986927 0.541398769033641
0.30340425531914894 0.4284318514899854 0.538391467595867
0.30361702127659573 0.4301931670072309 0.5344340341184639
0.3038297872340425 0.4314142082724196 0.5300183477445914
0.3040425531914894 0.43302101035235524 0.5292149467046234
0.30425531914893617 0.43190020657525435 0.530581203155616
0.30446808510638296 0.43607375057625464 0.531210416996358
0.3046808510638298 0.438087367018727 0.5269405278119204
0.3048936170212766 0.436887006483607 0.5177933450320299
0.3051063829787234 0.4395137407531869 0.5067828898847525
0.30531914893617024 0.4401563263312165 0.4958219582918106
0.30553191489361703 0.44214108329144225 0.4798161370451537
0.3057446808510638 0.44433685469083356 0.4651707912016337
0.3059574468085106 0.44892716790732884 0.45003413546395576
0.30617021276595746 0.44283758369899523 0.43940674230362936
0.30638297872340425 0.441133365901319 0.4364434984853395
0.30659574468085105 0.44313132591506804 0.42754646045101674
0.3068085106382979 0.44327442734851735 0.42019944228004164
0.3070212765957447 0.44582785403757963 0.4168980863630066
0.3072340425531915 0.448888911265464 0.41475329750854906
0.30744680851063827 0.4485391812614364 0.414564451385416
0.3076595744680851 0.44995058361459495 0.41155217596703003
0.3078723404255319 0.4475295730139842 0.4016201424110935
0.3080851063829787 0.4486989359919075 0.3889669529832628
0.30829787234042555 0.447838766872796 0.3782012053570301
0.30851063829787234 0.4544162508689973 0.3748471983103275
0.30872340425531913 0.45768830245845127 0.36804697461476565
0.308936170212766 0.46086922291508453 0.3569128972607825
0.3091489361702128 0.4637405458621358 0.35426403619744323
0.30936170212765957 0.4695617623561142 0.3491973973898555
0.30957446808510636 0.4719805730152097 0.3458485209310968
0.3097872340425532 0.46689163893243985 0.3487291369826725
0.31 0.46386415766650557 0.3545776333854318
0.3102127659574468 0.4669874886305559 0.3510576043770779
0.31042553191489364 0.4655665120101529 0.353189069307682
0.31063829787234043 0.4636208351311385 0.3472134923355251
0.3108510638297872 0.4687071447898876 0.3461123264278666
0.311063829787234 0.4658573778132116 0.34463278743142084
0.31127659574468086 0.46795433126187747 0.34393380294853226
0.31148936170212765 0.47286132191049496 0.34124398486790836
0.31170212765957445 0.4778323999535228 0.33723283631788376
0.3119148936170213 0.47647226188530684 0.3365901319003419
0.3121276595744681 0.4802149487054226 0.33677410265914837
0.3123404255319149 0.48108550099246916 0.3411947320103896
0.3125531914893617 0.4845021066352907 0.34709762810406436
0.3127659574468085 0.4835697474968892 0.35531820499787997
0.3129787234042553 0.48357211722421944 0.360288961489053
0.3131914893617021 0.4824726822764431 0.36199316072300936
0.31340425531914895 0.4845489015178192 0.3643730343952007
0.31361702127659574 0.483262376188611 0.3722753609026153
0.31382978723404253 0.4763740650492884 0.37280787061841386
0.3140425531914894 0.4768982291423992 0.3739104359905982
0.3142553191489362 0.4759700961666171 0.3769358837253191
0.31446808510638297 0.47593486413488834 0.3824332626985454
0.31468085106382976 0.4732021985298413 0.3892405950400949
0.3148936170212766 0.47169859142658316 0.40165891558251726
0.3151063829787234 0.4697714345706708 0.4140587708285798
0.3153191489361702 0.4656743187269388 0.4271099212007172
0.31553191489361704 0.4687207317779154 0.44011276383158704
0.31574468085106383 0.46165119687347334 0.45133785380491886
0.3159574468085106 0.4630190223455132 0.46209081230933796
0.31617021276595747 0.4679087626781189 0.4707653282676097
0.31638297872340426 0.47342394630923434 0.4771173868378122
0.31659574468085105 0.4811266986567784 0.478985488040451
0.31680851063829785 0.4857052636871383 0.4800909745591227
0.3170212765957447 0.49193767351286727 0.4772847050120079
0.3172340425531915 0.49267335212094737 0.4753297508549097
0.3174468085106383 0.49120568468554826 0.4750864501459125
0.3176595744680851 0.4904485560916766 0.47770716305850536
0.3178723404255319 0.4855197929229708 0.4891736010395844
0.3180851063829787 0.4761952632276549 0.5062445854738122
0.3182978723404255 0.4701170135828525 0.5215837287658052
0.31851063829787235 0.46325029853070265 0.5330634649365982
0.31872340425531914 0.4642410869019497 0.544177492337866
0.31893617021276593 0.45437307108407554 0.5568628839721043
0.3191489361702128 0.44478398209383624 0.5661783344939572
0.3193617021276596 0.4380466104551328 0.5657572487665382
0.31957446808510637 0.43130923881642946 0.5653361630391193
0.3197872340425532 0.42582598943934563 0.5673671322767931
0.32 0.42533443749597166 0.5673377657282589
0.3202127659574468 0.4189246633887372 0.5652925934757129
0.3204255319148936 0.42004273316636986 0.5744149852425788
0.32063829787234044 0.4149898523110404 0.5686524399797755
0.32085106382978723 0.4164800838156772 0.5664217237075274
0.321063829787234 0.41254254231318777 0.5626464543515133
0.32127659574468087 0.4027498633141024 0.5577501148519706
0.32148936170212766 0.39468494125156667 0.555650783358361
0.32170212765957445 0.39052816438287813 0.5508965579642986
0.32191489361702125 0.39055356478622594 0.5492076639656372
0.3221276595744681 0.39434125529900044 0.5462155199979849
0.3223404255319149 0.4013611174251153 0.5501088406081069
0.3225531914893617 0.4099191444175602 0.5491217607774171
0.3227659574468085 0.412799218368344 0.5524705306307128
0.3229787234042553 0.415908307055695 0.5558247329786299
0.3231914893617021 0.4157979666321574 0.5509675750738436
0.32340425531914896 0.41498216403434374 0.5491270251311171
0.32361702127659575 0.41702371753271494 0.542401123389807
0.32382978723404254 0.41222342285850555 0.5378602833414754
0.32404255319148934 0.4034113264754168 0.5353587866512453
0.3242553191489362 0.3901410895402416 0.5316922890842958
0.324468085106383 0.3775935226830308 0.5270967124895369
0.32468085106382977 0.36916410938631006 0.5149799136691551
0.3248936170212766 0.3732263544322053 0.504549308964341
0.3251063829787234 0.3805058210198582 0.49271052187555586
0.3253191489361702 0.3957731168242483 0.480032152584046
0.325531914893617 0.42097171086741536 0.46475043354275236
0.32574468085106384 0.4408686564236824 0.45180763671757046
0.32595744680851063 0.4560988036632832 0.4407520514610431
0.3261702127659574 0.4748226997454565 0.4306543694528422
0.32638297872340427 0.4927676764245824 0.42925762285017094
0.32659574468085106 0.5114772346077799 0.4203585761128706
0.32680851063829786 0.5323519737310786 0.42043774033694387
0.3270212765957447 0.5443538275941582 0.4221286899666572
0.3272340425531915 0.5497174163333987 0.4239165528797374
0.3274468085106383 0.5523555481805131 0.42207356063677015
0.3276595744680851 0.5496315903368016 0.41486257253477105
0.3278723404255319 0.5417158741490059 0.4061122081926116
0.3280851063829787 0.5318936205400259 0.3900960882302924
0.3282978723404255 0.5174367287256307 0.3724133098107971
0.32851063829787236 0.4966662111023789 0.35561412854224317
0.32872340425531915 0.4745389642534038 0.3460079592461447
0.32893617021276594 0.4507266995425617 0.33929531739978114
0.32914893617021274 0.4291167343205172 0.33458127337146737
0.3293617021276596 0.41208923379872525 0.3318582998807128
0.3295744680851064 0.4012627179855972 0.3323876228396448
0.32978723404255317 0.39931871741895514 0.3342874926565321
0.33 0.39979623628551164 0.3392588315792223
0.3302127659574468 0.4023998128209652 0.3440451135175524
0.3304255319148936 0.4082864681259933 0.34966409391983794
0.33063829787234045 0.4178856032889529 0.3522802470420108
0.33085106382978724 0.42550012440548357 0.3545023212274915
0.33106382978723403 0.4315937437761349 0.3564328765888798
0.3312765957446808 0.43740385481438987 0.35710796287249624
0.33148936170212767 0.441133365901319 0.3547568519038676
0.33170212765957446 0.4476938500217773 0.3495550911918313
0.33191489361702126 0.44905382469126964 0.348314606741573
0.3321276595744681 0.45299683908133304 0.34733756717147046
0.3323404255319149 0.4574697328035623 0.3475135006166209
0.3325531914893617 0.4638758084618001 0.3486347718574159
0.3327659574468085 0.46950951206170966 0.3483566053689886
0.33297872340425533 0.47215315361529264 0.3503898002973881
0.3331914893617021 0.47509170128493977 0.35517872502251424
0.3334042553191489 0.47704372802395956 0.36127285480954374
0.33361702127659576 0.47925021344300034 0.36493248230510383
0.33382978723404255 0.48216902784562765 0.36726777536469807
0.33404255319148934 0.48216902784562765 0.3708253442875689
0.3342553191489362 0.48216902784562765 0.3752118189623746
0.334468085106383 0.48266368146761446 0.3825723300645179
0.3346808510638298 0.48128554574154986 0.3917374067854311
0.33489361702127657 0.4817077294248083 0.4046849315720951
0.3351063829787234 0.4778238308085086 0.4157353751846454
0.3353191489361702 0.46847402025809626 0.434442171365458
0.335531914893617 0.4664981091698904 0.444537909504665
0.33574468085106385 0.4617679113791307 0.4558656644508898
0.33595744680851064 0.4569515238481022 0.46601499971968247
0.33617021276595743 0.4460185637518319 0.4742062107574589
0.3363829787234042 0.4434118876169793 0.4808675457000699
0.33659574468085107 0.4413341183300291 0.4844978892698051
0.33680851063829786 0.4429324616811863 0.4833010507760682
0.33702127659574466 0.445183514611214 0.4791905789921585
0.3372340425531915 0.4486244304268021 0.47809792268152607
0.3374468085106383 0.45188080117244755 0.4775682327884719
0.3376595744680851 0.45269659207367063 0.48070824226888664
0.33787234042553194 0.4533018147379464 0.48892069715818937
0.33808510638297873 0.4528578407425501 0.5001429554902292
0.3382978723404255 0.44973182499309716 0.5153864574483333
0.3385106382978723 0.44532397207995084 0.5237580575127069
0.33872340425531916 0.44786909154038246 0.5322569242999966
0.33893617021276595 0.4456705547233645 0.5374052573140738
0.33914893617021274 0.4449568707537726 0.5418965968133541
0.3393617021276596 0.445312995653653 0.5495982028918912
0.3395744680851064 0.4430874450415241 0.5551251581335291
0.3397872340425532 0.44108654766341865 0.5550901035880208
0.34 0.44331889884051856 0.5544699560332194
0.3402127659574468 0.4422337542724294 0.5517238605244232
0.3404255319148936 0.4441247911759253 0.5584384208779282
0.3406382978723404 0.4443120375782397 0.5606317554398391
0.34085106382978725 0.441133365901319 0.5661944308744504
0.34106382978723404 0.44026884390769994 0.5670589528680694
0.34127659574468083 0.4396893647895943 0.5686585880431361
0.3414893617021277 0.4395647224176739 0.5703087574118432
0.3417021276595745 0.44132706055293136 0.5739433271140534
0.34191489361702126 0.44378959758610165 0.5674314224893138
0.34212765957446806 0.44599298678473265 0.5671586819610033
0.3423404255319149 0.44395364847310004 0.5648848828887676
0.3425531914893617 0.4430874450415241 0.56252056638816
0.3427659574468085 0.44057928794012646 0.5611134632200875
0.34297872340425534 0.4357657047384081 0.5578835380559252
0.34319148936170213 0.43587707511652696 0.5517127013195716
0.3434042553191489 0.4347894448726615 0.5461719558643567
0.34361702127659577 0.435148344538103 0.5473851111573005
0.34382978723404256 0.4362791423300883 0.5398350120012019
0.34404255319148935 0.4430178606559925 0.5434632478522134
0.34425531914893615 0.44945883613778687 0.5415138647840622
0.344468085106383 0.4520389922513864 0.5370072998883112
0.3446808510638298 0.45733809257216335 0.5275177940912466
0.3448936170212766 0.46630306926727183 0.5179273827334824
0.3451063829787234 0.4582015323361539 0.5046474833739584
0.3453191489361702 0.4556787169024907 0.48524067587270747
0.345531914893617 0.45660962503503694 0.4691947525186859
0.3457446808510638 0.4621155819670909 0.45227084020630476
0.34595744680851065 0.46774189641845254 0.43979731442150233
0.34617021276595744 0.4738882825894212 0.42801560497393054
0.34638297872340423 0.4694888988427344 0.4189589403019376
0.3465957446808511 0.4609815937006392 0.41195273604388305
0.3468085106382979 0.4505477813227786 0.407389902704823
0.34702127659574467 0.43758909074759095 0.403046454945771
0.3472340425531915 0.4255820550159352 0.4049422406893944
0.3474468085106383 0.4190459403590892 0.4014592280972427
0.3476595744680851 0.40973375235980014 0.4047589896437966
0.3478723404255319 0.4052424698446764 0.3980642906333478
0.34808510638297874 0.39746217742388007 0.3851217151668264
0.34829787234042553 0.39898382600104 0.3763654920682984
0.3485106382978723 0.40174026742045743 0.37086202705296606
0.34872340425531917 0.40976983964301583 0.3665071947484853
0.34893617021276596 0.4199941102361957 0.36350302171413573
0.34914893617021275 0.43267529747074984 0.3611230797978647
0.34936170212765955 0.44419420930560277 0.3716554525123885
0.3495744680851064 0.457037339024739 0.3625479960882898
0.3497872340425532 0.4672464877110256 0.3664341534288686
0.35 0.47278689277674496 0.3686383073976558
0.3502127659574468 0.4714976593410599 0.37296879629381985
0.3504255319148936 0.4730661019881229 0.3716668956433194
0.3506382978723404 0.47012541862016033 0.37305973037837414
0.35085106382978726 0.4713806442159306 0.372761070173422
0.35106382978723405 0.4700753192386068 0.3694402435180402
0.35127659574468084 0.4693562196383924 0.3660885934259636
0.35148936170212763 0.47719773360494716 0.3631343763431744
0.3517021276595745 0.4811919882755251 0.36088839973288594
0.3519148936170213 0.479094816402905 0.3572428524193107
0.35212765957446807 0.4818387882625413 0.355415339562929
0.3523404255319149 0.4838494440437771 0.35445050710424447
0.3525531914893617 0.4882932949976798 0.3576520008387277
0.3527659574468085 0.49074167668298985 0.3575493774596187
0.3529787234042553 0.49008331607889427 0.35710796287249624
0.35319148936170214 0.48998534440644836 0.35988978210952227
0.35340425531914893 0.48879894257349144 0.3680124198407656
0.3536170212765957 0.4845897254941232 0.3707865168539326
0.35382978723404257 0.48245878261534747 0.370207007314493
0.35404255319148936 0.4819055004145561 0.3709000493823512
0.35425531914893615 0.4791394384821514 0.37317988045260475
0.354468085106383 0.47429618486025826 0.37604449991493705
0.3546808510638298 0.47396371036765206 0.379973411179226
0.3548936170212766 0.4734466803810478 0.38689912888127254
0.3551063829787234 0.47019562610861754 0.39951894742015415
0.3553191489361702 0.46486514849965976 0.40919315257395605
0.355531914893617 0.46165119687347334 0.42111776474696516
0.3557446808510638 0.46081983894346473 0.42868048285961835
0.35595744680851066 0.4623683221249069 0.438033775058895
0.35617021276595745 0.4613035760074738 0.4457236013081495
0.35638297872340424 0.46203034088284894 0.453416830241059
0.35659574468085103 0.46352896738859806 0.45931557460786554
0.3568085106382979 0.46951321561180426 0.4608112638359014
0.3570212765957447 0.47012277161004795 0.46392705740802725
0.35723404255319147 0.4684904738641915 0.46531511662654124
0.3574468085106383 0.46920159539216816 0.4663601194037228
0.3576595744680851 0.4675823008242242 0.4747149757646102
0.3578723404255319 0.46038099683634254 0.48861758620029966
0.35808510638297875 0.4562939343281098 0.5033126804090553
0.35829787234042554 0.45240333415756534 0.5133662676887777
0.35851063829787233 0.44799912071386955 0.5260563750347473
0.3587234042553191 0.441133365901319 0.5377130873993815
0.35893617021276597 0.440408497832587 0.5461387476578641
0.35914893617021276 0.43783627655250446 0.5564206815711711
0.35936170212765955 0.43771310762109017 0.5647245330252081
0.3595744680851064 0.43453933367591185 0.577305793802404
0.3597872340425532 0.43380514927441677 0.574013266542068
0.36 0.43343974502605065 0.5668079093022123
0.3602127659574468 0.4264730102589078 0.5671701098471609
0.3604255319148936 0.4190332898344551 0.564612185779741
0.3606382978723404 0.4145076301293797 0.5608235282121736
0.3608510638297872 0.4130334827205213 0.5615434973761149
0.36106382978723406 0.41231648713788327 0.5613208101331187
0.36127659574468085 0.41463258236318457 0.5616751512624265
0.36148936170212764 0.4252126883269715 0.5598504097549651
0.3617021276595745 0.42674695623852194 0.5635673920123907
0.3619148936170213 0.43891164119588943 0.5671097060833473
0.3621276595744681 0.44555974937969794 0.5615683456229218
0.36234042553191487 0.45273447748958057 0.5642403517342451
0.3625531914893617 0.46291070670972856 0.5642403517342451
0.3627659574468085 0.4721360370402451 0.5669088753401962
0.3629787234042553 0.4804485440985967 0.5689650795451525
0.36319148936170215 0.48343219956184935 0.5646939728947372
0.36340425531914894 0.487212722813386 0.5575699946074246
0.36361702127659573 0.48709752920575955 0.5517553548710055
0.3638297872340425 0.4816140525284549 0.5516437728231711
0.36404255319148937 0.47332207598154746 0.5409653716725409
0.36425531914893616 0.46459925563527077 0.5349799847856366
0.36446808510638296 0.4595495133366731 0.5242289337568475
0.3646808510638298 0.4546615090868717 0.5126822401094927
0.3648936170212766 0.44625122978881887 0.5009654457145638
0.3651063829787234 0.444713638839766 0.48560520748045566
0.36531914893617023 0.4450415241817294 0.46867720181263456
0.365531914893617 0.4492433917774907 0.4542734528046118
0.3657446808510638 0.45600540105044757 0.4420185168955827
0.3659574468085106 0.4645977608538098 0.4296881021880929
0.36617021276595746 0.47561482523803433 0.42312733037311884
0.36638297872340425 0.4844672041578409 0.41929439818705416
0.36659574468085104 0.49109318583368305 0.41536105660290684
0.3668085106382979 0.4905156640770154 0.41555356385512926
0.3670212765957447 0.4760765954055833 0.41387583721186966
0.3672340425531915 0.46126753137705384 0.41182217879824123
0.36744680851063827 0.44141929460185064 0.4106147689382817
0.3676595744680851 0.42382006340070144 0.4023251928584445
0.3678723404255319 0.40986906381453714 0.39019774336140467
0.3680851063829787 0.39916657732964717 0.3758094535326639
0.36829787234042555 0.3957768798202098 0.36077639201162753
0.36851063829787234 0.38867114010980974 0.34729591387746495
0.36872340425531913 0.3902226244185946 0.33784632837015044
0.368936170212766 0.3926474291554252 0.3325074028168267
0.36914893617021277 0.3857895117256952 0.3298883768132214
0.36936170212765956 0.3841412841037093 0.32518660410320843
0.36957446808510636 0.3899375929203844 0.3241822796062596
0.3697872340425532 0.39694171745006923 0.328548947542888
0.37 0.4065593281680957 0.33255608936005393
0.3702127659574468 0.41234565767316106 0.3377882765485757
0.37042553191489364 0.414700779035049 0.3432981127073099
0.3706382978723404 0.4189507604016875 0.3484110416124823
0.3708510638297872 0.42246131372834334 0.34929164631167553
0.371063829787234 0.427189494582103 0.350980408114101
0.37127659574468086 0.43455617733860047 0.35417684416218864
0.37148936170212765 0.44329588488177546 0.35300067327057094
0.37170212765957444 0.4552624544069604 0.3486674224623186
0.3719148936170213 0.4662207108154356 0.3540047961957104
0.3721276595744681 0.4751826247835585 0.3551538837322912
0.3723404255319149 0.47846968744682955 0.3567947360500779
0.3725531914893617 0.4806670600161857 0.3555331780944781
0.3727659574468085 0.48042649766355483 0.359342069509975
0.3729787234042553 0.4768112311875937 0.358085002442599
0.3731914893617021 0.4763067904250122 0.36034052844214465
0.37340425531914895 0.47498598296878586 0.3659555830916882
0.37361702127659574 0.47591985605349635 0.371773260065348
0.37382978723404253 0.4781220392439845 0.37455584481311016
0.3740425531914894 0.47918823816938444 0.3797288858826626
0.37425531914893617 0.47808645021617896 0.382685411044202
0.37446808510638296 0.4781838522856651 0.3864881055671007
0.37468085106382976 0.4793644302012709 0.3962352417308228
0.3748936170212766 0.4832193808014864 0.4045052695003604
0.3751063829787234 0.4897497234248958 0.4139788904075298
0.3753191489361702 0.49176092779455155 0.4302826215547625
0.37553191489361704 0.4947088412762561 0.43977902404290387
0.37574468085106383 0.49661775709913014 0.45068522445837583
0.3759574468085106 0.4944662566871721 0.4631560913047288
0.37617021276595747 0.4958791788974734 0.4752665567140906
0.37638297872340426 0.4903802171540571 0.48275119466812166
0.37659574468085105 0.4826967819705032 0.4904346298516756
0.37680851063829784 0.4767920290806813 0.4956547988165493
0.3770212765957447 0.47128836684719794 0.4976328981987088
0.3772340425531915 0.4605699955839414 0.4924155387379299
0.3774468085106383 0.450474504224709 0.4968961642934392
0.3776595744680851 0.4374550011120752 0.4998759732231236
0.3778723404255319 0.4261866296193243 0.5078631993987509
0.3780851063829787 0.4198087966087894 0.5170646165305993
0.37829787234042556 0.4176086664373198 0.5280179916538519
0.37851063829787235 0.41800355814629897 0.5336231762397348
0.37872340425531914 0.4209706751434899 0.5347218648459084
0.37893617021276593 0.42785314194635926 0.5349291646311676
0.3791489361702128 0.4333894967315913 0.5410811916161549
0.3793617021276596 0.43542925737509 0.5493983630845366
0.37957446808510636 0.4359693575622119 0.5548869689060879
0.3797872340425532 0.43567250700689136 0.5579767357874419
0.38 0.43782330048322016 0.5605513396083553
0.3802127659574468 0.438529692007555 0.5619641226570251
0.3804255319148936 0.4389732561028203 0.5605382241121283
0.38063829787234044 0.44365417067606255 0.5594372166708451
0.38085106382978723 0.4411765978217295 0.5574010747435272
0.381063829787234 0.4416164134940166 0.5567424187736538
0.38127659574468087 0.4374835210783215 0.5537755440769155
0.38148936170212766 0.4325053603998113 0.5552816449739063
0.38170212765957445 0.4303021103598019 0.5580153249341612
0.3819148936170213 0.42809564559224467 0.5600117766176538
0.3821276595744681 0.42667312863366025 0.5595505101676124
0.3823404255319149 0.4301005483078242 0.5602608478732433
0.3825531914893617 0.43408629134063215 0.5590434575287792
0.3827659574468085 0.43020717573533857 0.552777896883709
0.3829787234042553 0.4297173361813345 0.5483509776977202
0.3831914893617021 0.4290768445663681 0.5430584277746513
0.38340425531914896 0.4291271510594307 0.5375845769622831
0.38361702127659575 0.42700320269740055 0.5332000218550381
0.38382978723404254 0.43110332329699225 0.5263954554035452
0.38404255319148933 0.4258666453043952 0.5242340025778558
0.3842553191489362 0.4282207281121493 0.5188742847538539
0.384468085106383 0.42607513108092165 0.5117110991851783
0.38468085106382977 0.43093718688072635 0.5002566010241907
0.3848936170212766 0.4353715065199365 0.48570241479133364
0.3851063829787234 0.4380210298276808 0.46912192664610297
0.3853191489361702 0.4392562224598963 0.4587970138619481
0.38553191489361704 0.44251787737422327 0.4447961480434269
0.38574468085106384 0.44939437502005514 0.4334941926166294
0.38595744680851063 0.44832797890474413 0.4299418412932118
0.3861702127659574 0.4503055844353382 0.42775390050338596
0.38638297872340427 0.4509037616023448 0.42840769162878684
0.38659574468085106 0.45295924695729134 0.42755621813462397
0.38680851063829785 0.453143293095661 0.4305066131409602
0.3870212765957447 0.4512625661876216 0.4332783571828644
0.3872340425531915 0.45236855229147865 0.4274532745878425
0.3874468085106383 0.4510081161465684 0.42781527662465807
0.3876595744680851 0.44769939561568284 0.42151527480905765
0.3878723404255319 0.4478637688707818 0.41095683987059006
0.3880851063829787 0.4479880706183673 0.39892010394461574
0.3882978723404255 0.4503733716842748 0.3849954607534389
0.38851063829787236 0.46007709539163255 0.37502033360038767
0.38872340425531915 0.46570218373077477 0.3701574445388037
0.38893617021276594 0.4715102067386482 0.3684150376364417
0.3891489361702128 0.48007942698009864 0.36048126735169117
0.3893617021276596 0.486185594474814 0.3558921520488628
0.3895744680851064 0.4898859118538302 0.3539174526738999
0.38978723404255317 0.4931147898994255 0.35606967915591853
0.39 0.4914081452215341 0.35793641536093795
0.3902127659574468 0.4909623839765511 0.3552620386460583
0.3904255319148936 0.4917305629107129 0.3576582363680647
0.39063829787234045 0.49811624972628643 0.35197018680619496
0.39085106382978724 0.4900094164762324 0.34605089579118964
0.39106382978723403 0.48342650628280365 0.34298762891718776
0.3912765957446808 0.4813415438139075 0.3396358815497451
0.39148936170212767 0.48079705458896305 0.3341372383287827
0.39170212765957446 0.4842447366019578 0.33429388877854577
0.39191489361702125 0.4869453809357271 0.33648128713992825
0.3921276595744681 0.48998534440644836 0.341789699137524
0.3923404255319149 0.48998534440644836 0.3465437621155425
0.3925531914893617 0.49028482007166924 0.3479365185019121
0.39276595744680853 0.49432092182146187 0.3509709152341309
0.3929787234042553 0.5025548601372897 0.3575154155634207
0.3931914893617021 0.510219551791126 0.36035875340104434
0.3934042553191489 0.5132294692401089 0.36390015518930896
0.39361702127659576 0.5134342940889105 0.3720505140336394
0.39382978723404255 0.5093716775301933 0.3688633293693887
0.39404255319148934 0.5029538508168744 0.37011622040039605
0.3942553191489362 0.4900452916549033 0.3723133008571717
0.394468085106383 0.47239851991769355 0.37567174276117266
0.3946808510638298 0.4541965160174108 0.3850804747007133
0.39489361702127657 0.4357148058699609 0.3931430233793984
0.3951063829787234 0.42404257058586414 0.4022824815272836
0.3953191489361702 0.42001726001660056 0.4219985954926512
0.395531914893617 0.4167291533610949 0.437130841867433
0.39574468085106385 0.4255646454791716 0.4495919019780763
0.39595744680851064 0.4354541635613167 0.4640257682299383
0.39617021276595743 0.444253140014564 0.4742785719653559
0.3963829787234043 0.4532287743951299 0.48114922968189927
0.39659574468085107 0.4587200781631655 0.4849415490956013
0.39680851063829786 0.4572799917223991 0.4853571429056548
0.39702127659574465 0.4508684507083117 0.48847017416430616
0.3972340425531915 0.440359287524891 0.4918785351885513
0.3974468085106383 0.4283402548745716 0.49829295681668256
0.3976595744680851 0.4171329188650194 0.4954220396107987
0.39787234042553193 0.41182217879824123 0.5034517168203573
0.3980851063829787 0.40906398020748025 0.5145251931850465
0.3982978723404255 0.4047991358754528 0.5247330271562501
0.3985106382978723 0.4053132139691784 0.5292917676232766
0.39872340425531916 0.40890458014897757 0.5315608016539155
0.39893617021276595 0.4166565635402394 0.5306614510883798
0.39914893617021274 0.4207737703959093 0.5358002122133696
0.3993617021276596 0.4262538862234234 0.5397085090182027
0.3995744680851064 0.4304214727753214 0.5421533583871381
0.3997872340425532 0.4321480216951552 0.5460776752466769
0.4 0.43052635395566224 0.5493741231944989
0.4002127659574468 0.4341477090761644 0.5526134634493051
0.4004255319148936 0.4311952337335999 0.5548054289666056
0.4006382978723404 0.4298140302511633 0.5578537861209925
0.40085106382978725 0.4280255903856387 0.5625280163369774
0.40106382978723404 0.4263995636177762 0.5652956000363517
0.40127659574468083 0.42996972424305596 0.5693865676340063
0.4014893617021277 0.42555524198652217 0.5703257656378663
0.40170212765957447 0.4218001286683075 0.5709758516404432
0.40191489361702126 0.4216279986865595 0.5681012777649326
0.40212765957446805 0.4250522082253189 0.5639760942263732
0.4023404255319149 0.4294289160257593 0.5605414096564357
0.4025531914893617 0.4323400097703958 0.5547158542100313
0.4027659574468085 0.4342724023768045 0.553976014614719
0.40297872340425533 0.43805911987334006 0.555677257248242
0.4031914893617021 0.43990385035656343 0.5542503443870758
0.4034042553191489 0.4443852644203631 0.5509555536096288
0.40361702127659577 0.44793284494785424 0.5438153826318511
0.40382978723404256 0.44916293376854005 0.5448061859853935
0.40404255319148935 0.449753781442259 0.5461365919663304
0.40425531914893614 0.4477690054109309 0.5437797073924834
0.404468085106383 0.44995875713593875 0.5335757281389515
0.4046808510638298 0.44954409580211685 0.524099833380883
0.4048936170212766 0.45135578165208207 0.5145573326002699
0.4051063829787234 0.45188080117244755 0.5049801148627091
0.4053191489361702 0.45650834513501387 0.48978126650018555
0.405531914893617 0.45695243179495404 0.47134217976997145
0.4057446808510638 0.46079419415332656 0.45469188303279956
0.40595744680851065 0.4658635936224841 0.44658009887763783
0.40617021276595744 0.4639793928170018 0.43449144993164224
0.40638297872340423 0.46561406369657515 0.42294306660864717
0.4065957446808511 0.4634497544814688 0.417324176021665
0.40680851063829787 0.4575181028640159 0.4159183630389155
0.40702127659574466 0.4503762099767654 0.41025337503905596
0.4072340425531915 0.44791519446369427 0.40670718723435656
0.4074468085106383 0.4475321406233414 0.4026711311330467
0.4076595744680851 0.45111797888835736 0.39630971610265264
0.4078723404255319 0.4555055192532531 0.3821008325242705
0.40808510638297874 0.4598984588958992 0.37223724308756023
0.4082978723404255 0.4623118906344757 0.3592663792505939
0.4085106382978723 0.46654299625104617 0.3512391239248211
0.40872340425531917 0.46571006930728853 0.3439569084279771
0.40893617021276596 0.4615190881298059 0.340410217684974
0.40914893617021275 0.45839009491022975 0.33903918591995086
0.40936170212765954 0.45530586494892783 0.3417673565656614
0.4095744680851064 0.4514463392663097 0.3437557550393708
0.4097872340425532 0.45148077913162593 0.34769155814838926
0.41 0.45690241907760143 0.3528785162439285
0.4102127659574468 0.45957537258383896 0.35503213858286187
0.4104255319148936 0.4685894623456241 0.3580284375960661
0.4106382978723404 0.4771657919229912 0.3544828510068689
0.41085106382978726 0.4881994738922177 0.3569898594494514
0.41106382978723405 0.4960274759617834 0.3573736780176241
0.41127659574468084 0.5066141809996035 0.3545928377063167
0.41148936170212763 0.5081232367163855 0.3520724955240164
0.4117021276595745 0.5100912351353674 0.3537649039189531
0.41191489361702127 0.5036662344823204 0.35808617048981684
0.41212765957446806 0.505094857931675 0.35906204201270153
0.4123404255319149 0.5017098192476794 0.35906204201270153
0.4125531914893617 0.5001206184386415 0.3586647418104421
0.4127659574468085 0.4978016609672691 0.36129549025255314
0.4129787234042553 0.4964507867785148 0.3605700543913286
0.41319148936170214 0.49980741953608365 0.3622299121799173
0.41340425531914893 0.49719654094593374 0.36739049870766577
0.4136170212765957 0.49192559609490355 0.3688600926172275
0.41382978723404257 0.48992244918212197 0.370656525004629
0.41404255319148936 0.48265058373703124 0.36980947728383007
0.41425531914893615 0.4789710970836364 0.37277066553968174
0.414468085106383 0.470909962708031 0.38253666956340476
0.4146808510638298 0.464098491471708 0.3941004234894417
0.4148936170212766 0.45096567886076533 0.406890543003913
0.4151063829787234 0.437626509582436 0.417533721808535
0.4153191489361702 0.4333154546554766 0.43038854011477146
0.415531914893617 0.42167955539425 0.4489898528064598
0.4157446808510638 0.4157303370786516 0.45830967880312995
0.41595744680851066 0.41424940265334165 0.4674105231855211
0.41617021276595745 0.4147473442139589 0.4738572459894005
0.41638297872340424 0.4225372270769493 0.47849703270963795
0.4165957446808511 0.4291384931941102 0.48214811746686614
0.4168085106382979 0.43634341746285416 0.48740141515334723
0.41702127659574467 0.44112979316081696 0.4870551188812663
0.41723404255319146 0.44734392996998396 0.48475181990788596
0.4174468085106383 0.45113327892050087 0.48216902784562765
0.4176595744680851 0.4537108359746913 0.48583930753917415
0.4178723404255319 0.4503993182282379 0.49589004473121256
0.41808510638297874 0.4483322626787367 0.507782197291714
0.41829787234042554 0.4442550590890817 0.5221229724064919
0.41851063829787233 0.4369852457567169 0.5382349102547289
0.4187234042553191 0.43425635278251673 0.5437413888261329
0.41893617021276597 0.4323400097703958 0.5451272563798764
0.41914893617021276 0.43181022638747824 0.548955137499795
0.41936170212765955 0.4284418917063441 0.5529046846777834
0.4195744680851064 0.4260129638473277 0.5519562232601665
0.4197872340425532 0.42838349543485904 0.54865607466773
0.42 0.42940889106008795 0.5445943644089724
0.42021276595744683 0.4320654157107524 0.5428370125452028
0.4204255319148936 0.43614674442754003 0.5458456392744062
0.4206382978723404 0.43315711388859507 0.5510416041085189
0.4208510638297872 0.4343372215409084 0.5532076004959007
0.42106382978723406 0.4379505731924766 0.5549733040302886
0.42127659574468085 0.43624816805080613 0.5628188052508608
0.42148936170212764 0.43450792994691373 0.5665913910765888
0.4217021276595745 0.43402468002467826 0.5697325842953505
0.4219148936170213 0.430955210754674 0.5719143482639449
0.4221276595744681 0.42655050167031555 0.5701389538151285
0.42234042553191486 0.4261714713406537 0.5688192485756318
0.4225531914893617 0.42240523840477273 0.5664227139213903
0.4227659574468085 0.4183092543867572 0.567171470444553
0.4229787234042553 0.4138779154323115 0.5628891570596894
0.42319148936170214 0.40566560994827155 0.5553763359495122
0.42340425531914894 0.400857427496989 0.5491501261224588
0.42361702127659573 0.392468299894612 0.5425444096675691
0.4238297872340426 0.38935671745202954 0.5388469960607994
0.42404255319148937 0.3901751561137111 0.5339681368989372
0.42425531914893616 0.40832534248882413 0.5259090935654591
0.42446808510638295 0.43246870556651423 0.5189774178919951
0.4246808510638298 0.4552366543511739 0.508582667457678
0.4248936170212766 0.4779992619000997 0.49695542522972536
0.4251063829787234 0.49931049018333823 0.48115352617693385
0.42531914893617023 0.5148656979550366 0.4695287379870866
0.425531914893617 0.530315475472712 0.4467512454990829
0.4257446808510638 0.5415497962844883 0.4362932700079226
0.4259574468085106 0.5473515802536612 0.4245835831539673
0.42617021276595746 0.5418147300542576 0.41400770010030646
0.42638297872340425 0.5365083161350153 0.4082791906712524
0.42659574468085104 0.5256375437910383 0.4018670523214478
0.4268085106382979 0.5133997849185036 0.40009770395701016
0.4270212765957447 0.4990587187561452 0.3969521171386013
0.4272340425531915 0.4838587568207619 0.3940103019957931
0.4274468085106383 0.4656887867573805 0.39558132983103045
0.4276595744680851 0.44981354267658197 0.3909024450632028
0.4278723404255319 0.43885469521762527 0.3839081617694403
0.4280851063829787 0.43399527650566433 0.3730472740711527
0.42829787234042555 0.4261672462926156 0.3654241645680205
0.42851063829787234 0.423669409909931 0.36193178258777997
0.42872340425531913 0.4261078913625621 0.3602065763757273
0.428936170212766 0.42670330519296623 0.3553794165754771
0.42914893617021277 0.4244901083756256 0.35363794712621327
0.42936170212765956 0.42376900910277593 0.35688560740919284
0.42957446808510635 0.4197902194394552 0.3601695484150348
0.4297872340425532 0.41373001800208187 0.3618380274507197
0.43 0.412799218368344 0.3648235756103358
0.4302127659574468 0.4128504723182847 0.36669320144948986
0.43042553191489363 0.4042246420072153 0.36601817828229083
0.4306382978723404 0.4070494576148785 0.36808734744436733
0.4308510638297872 0.41273198792553784 0.3644525672589672
0.43106382978723407 0.4231749794005398 0.36093949633036065
0.43127659574468086 0.432085026491746 0.3597926770130536
0.43148936170212765 0.4410437939618642 0.356604972862197
0.43170212765957444 0.45391678777414146 0.3473152287728826
0.4319148936170213 0.46510571506567977 0.3450606978135359
0.4321276595744681 0.46798291611766146 0.3475151941988206
0.4323404255319149 0.46917760459212676 0.3435843164073034
0.4325531914893617 0.4688515548735211 0.3478968862763671
0.4327659574468085 0.46332479779879976 0.3515262036667595
0.4329787234042553 0.4573540592180362 0.3537296728007091
0.4331914893617021 0.45666105570881776 0.360281517953908
0.43340425531914895 0.4577053585767005 0.3689266377546334
0.43361702127659574 0.45534967713902236 0.374156917878076
0.43382978723404253 0.45531515047149257 0.37746785751752887
0.4340425531914894 0.46165119687347334 0.3815830113058691
0.43425531914893617 0.46059589482099744 0.38815862801903456
0.43446808510638296 0.45904419932440743 0.39848645032355484
0.4346808510638298 0.4587200781631655 0.4121911033754902
0.4348936170212766 0.45599678352896483 0.4238309462892186
0.4351063829787234 0.45883730194281663 0.4386711423096156
0.4353191489361702 0.4610445836819184 0.4484263352123916
0.43553191489361703 0.46543604272162903 0.46152788444121867
0.4357446808510638 0.4762393351700884 0.47145522369048004
0.4359574468085106 0.4771045605760797 0.4836221320365815
0.43617021276595747 0.4761406835179943 0.484860787131411
0.43638297872340426 0.4715276352231378 0.4839683809545842
0.43659574468085105 0.473303881935352 0.48412310698583294
0.43680851063829784 0.46935916775960357 0.4813003339502156
0.4370212765957447 0.46778472017434236 0.48193377661567793
0.4372340425531915 0.46522071235068196 0.47814420304670935
0.4374468085106383 0.46330309153795823 0.4762363042820706
0.4376595744680851 0.45999589754024356 0.48615788627521433
0.4378723404255319 0.45397577296544406 0.49472964960417
0.4380851063829787 0.451076056539296 0.5048720677286805
0.43829787234042555 0.44997078895453424 0.5159247435762987
0.43851063829787235 0.4432532192212527 0.5254074301997345
0.43872340425531914 0.44420390854752156 0.5303933306345209
0.43893617021276593 0.43946326598658575 0.5405074228263113
0.4391489361702128 0.4357880220161399 0.5451029588660892
0.43936170212765957 0.43468384688594386 0.5495900474461963
0.43957446808510636 0.43500610006647766 0.554386881946419
0.4397872340425532 0.4344333182161198 0.5504201340158202
0.44 0.4333291419280878 0.5476548642176802
