0.0 0.45676599902296044 0.4733756717147044
0.0002127659574468085 0.45676599902296044 0.4693601265124682
0.000425531914893617 0.45676599902296044 0.4653445813102321
0.0006382978723404255 0.45676599902296044 0.4613290361079959
0.000851063829787234 0.4595740815485595 0.4552844166216127
0.0010638297872340426 0.4630531943178279 0.4479835394944009
0.001276595744680851 0.4591970907217929 0.4415103730576511
0.0014893617021276596 0.45481191988275516 0.43540854898466574
0.001702127659574468 0.4545982034972375 0.42727172720491113
0.0019148936170212765 0.4550294895231969 0.4178465815432456
0.002127659574468085 0.45587450849876393 0.40966549173098854
0.002340425531914894 0.4523955767789067 0.39609486321266635
0.002553191489361702 0.4529844247617708 0.3789924286065307
0.0027659574468085106 0.45583093061846697 0.3624486549969019
0.0029787234042553193 0.4551956505332578 0.34866291150438355
0.0031914893617021275 0.45481191988275516 0.33729347354059547
0.003404255319148936 0.4559912524625968 0.3295991351523196
0.003617021276595745 0.4600455108587184 0.32734232588749135
0.003829787234042553 0.4622375450865447 0.3315098995488378
0.004042553191489362 0.46442179913801884 0.33847092326543043
0.00425531914893617 0.4645081913916238 0.3466570243699973
0.004468085106382979 0.4642516606471362 0.3535006090490661
0.004680851063829788 0.4699614221534726 0.35899610271064214
0.004893617021276595 0.46428776003257766 0.3662811850569856
0.005106382978723404 0.46462019787156883 0.37086228142950795
0.005319148936170213 0.4660445969911583 0.37338758511050385
0.005531914893617021 0.4687713829055469 0.3774914813986142
0.00574468085106383 0.4682562061391088 0.3799836420832509
0.005957446808510639 0.470569003546453 0.3805569125549584
0.006170212765957446 0.47212843723303505 0.37777656999024356
0.006382978723404255 0.46988646220717684 0.3739974423127862
0.006595744680851064 0.4682217901603461 0.3714948727201897
0.006808510638297872 0.4660040547463728 0.3692771373062164
0.007021276595744681 0.4637416770351338 0.3705874734267287
0.00723404255319149 0.46139956314144354 0.37819934358122204
0.007446808510638298 0.4596836756474129 0.38914108690659316
0.007659574468085106 0.4582487716523449 0.40157692153051594
0.007872340425531916 0.457743038593063 0.41608359973411796
0.008085106382978723 0.45786390860101506 0.42989237109189615
0.008297872340425531 0.4586824689181536 0.43316661236045034
0.00851063829787234 0.45950102923529224 0.4364408536290046
0.008723404255319148 0.4589566749133139 0.4424083073605885
0.008936170212765958 0.45793540354904994 0.4519112307527831
0.009148936170212766 0.458565717611538 0.4521895222757025
0.009361702127659575 0.4544762953989812 0.45357831427812123
0.009574468085106383 0.45294422154906383 0.45650685660341916
0.00978723404255319 0.45191070691516017 0.46339593581469024
0.01 0.44777868313738867 0.4706662212954235
0.010212765957446808 0.441403224206754 0.47907044448152214
0.010425531914893617 0.44351706722088 0.48801220612994767
0.010638297872340425 0.4401563263312165 0.49455019038110537
0.010851063829787235 0.44023893313233925 0.5028520724200277
0.011063829787234043 0.44229511755814854 0.5069644412716463
0.01127659574468085 0.443507232005874 0.5109489774632052
0.01148936170212766 0.4395123061759682 0.5141449181271297
0.011702127659574468 0.44102750882546327 0.5181077777877121
0.011914893617021277 0.44170973741368713 0.5258123216002092
0.012127659574468085 0.4430733137651543 0.5314061696682503
0.012340425531914893 0.44589427739879217 0.5325345551217054
0.012553191489361702 0.4440513070721677 0.5400413964904025
0.01276595744680851 0.44029480601819143 0.5531723577806005
0.01297872340425532 0.4417753194186583 0.5609741469711743
0.013191489361702127 0.43962642538819713 0.5705927197620249
0.013404255319148937 0.4382022471910112 0.5799789282661687
0.013617021276595745 0.43659556735729266 0.587450443414107
0.013829787234042552 0.43624816805080613 0.592131900182674
0.014042553191489362 0.43813087465984646 0.5935158525717406
0.01425531914893617 0.441133365901319 0.5846599758069722
0.01446808510638298 0.441133365901319 0.5818549459895481
0.014680851063829787 0.43817030385894695 0.5736913141146285
0.014893617021276596 0.43732435423881655 0.5628522990835347
0.015106382978723404 0.43872784077872956 0.5490726159209403
0.015319148936170212 0.44347377819070344 0.5356257932536813
0.015531914893617021 0.4411842483882749 0.5287676998590317
0.01574468085106383 0.43917928676111373 0.5224590112861756
0.015957446808510637 0.4395949928459164 0.5166566676002132
0.016170212765957447 0.43918626353749607 0.5095610196904113
0.016382978723404256 0.4382022471910112 0.4989995676580596
0.016595744680851062 0.4382022471910112 0.4898577197941315
0.01680851063829787 0.4361366084015775 0.4843000406435625
0.01702127659574468 0.43602480959084117 0.4725945318738027
0.01723404255319149 0.43463362984576626 0.46220209151161495
0.017446808510638297 0.43606122704082156 0.4491877594569369
0.017659574468085106 0.4459739135555437 0.4314388755339829
0.017872340425531916 0.4382607210518346 0.4125653229250503
0.018085106382978722 0.4402167610556725 0.404741162909699
0.01829787234042553 0.4416883332336658 0.39663500486833825
0.01851063829787234 0.4414784241832175 0.3919944643898839
0.01872340425531915 0.44180023403769814 0.3926380840988453
0.018936170212765956 0.443565470068028 0.39907868535271773
0.019148936170212766 0.44406448461162684 0.4059226252913172
0.019361702127659575 0.4466741630708473 0.4199853732438314
0.01957446808510638 0.44941392947205555 0.4219956288576207
0.01978723404255319 0.45211134417367377 0.42244519797455704
0.02 0.4553104327515552 0.4196265036585637
0.02021276595744681 0.45802496797184467 0.4162844825805818
0.020425531914893616 0.45902245726964613 0.4147882486338797
0.020638297872340425 0.45908568941846767 0.4122476871514451
0.020851063829787235 0.4585985202996914 0.40632461496804834
0.02106382978723404 0.4597871119305226 0.39891497679321253
0.02127659574468085 0.4571198878056036 0.39307379173930274
0.02148936170212766 0.45612220085228294 0.3850861843778738
0.02170212765957447 0.4578340914924755 0.3789506834634468
0.021914893617021276 0.45897204801395464 0.3712904565555105
0.022127659574468085 0.4581100883498343 0.36773128844341335
0.022340425531914895 0.45949083608809493 0.3651305610784903
0.0225531914893617 0.46189561101376836 0.36272578615281686
0.02276595744680851 0.46404088603729565 0.36014490110567254
0.02297872340425532 0.46745107068229147 0.35906204201270153
0.023191489361702126 0.46728470464617444 0.35853540061966455
0.023404255319148935 0.4663136622796621 0.358085002442599
0.023617021276595745 0.4699756399810255 0.3562383481773966
0.023829787234042554 0.4733583165368064 0.35579945838639354
0.02404255319148936 0.471579079286686 0.3554375153028635
0.02425531914893617 0.46889388297873225 0.3605812288221167
0.02446808510638298 0.4701854478980954 0.36623059580776934
0.024680851063829785 0.46860252739512637 0.3696413969874278
0.024893617021276595 0.471169683738147 0.37784710690569634
0.025106382978723404 0.46785834841750756 0.3839476996502409
0.025319148936170214 0.468449153239067 0.39007938450523716
0.02553191489361702 0.47142159257449934 0.39716658524670256
0.02574468085106383 0.47120724751949183 0.3974881028292138
0.02595744680851064 0.4688920817116286 0.400289514531232
0.026170212765957445 0.4662543288269762 0.40304920480618295
0.026382978723404255 0.46438745755395955 0.4102578157176792
0.026595744680851064 0.46165119687347334 0.4164283802582191
0.026808510638297874 0.46376293033204213 0.42137654166426214
0.02702127659574468 0.4665256045256398 0.4298126551261448
0.02723404255319149 0.46214979330457695 0.4386538192738709
0.0274468085106383 0.4595321279657565 0.449203616630891
0.027659574468085105 0.4587200781631655 0.45675246699056804
0.027872340425531914 0.4587200781631655 0.4647665555584256
0.028085106382978724 0.45997203697003275 0.46813941369752254
0.028297872340425533 0.4606741573033708 0.4710454727776039
0.02851063829787234 0.4584948019258932 0.4738515357295868
0.02872340425531915 0.45606364504932306 0.4785511951441571
0.02893617021276596 0.45388553698531137 0.47638277543400037
0.029148936170212764 0.4557454729477881 0.47932488214545965
0.029361702127659574 0.4549497000069123 0.4807786479030537
0.029574468085106383 0.4552974058488674 0.48071863758516975
0.029787234042553193 0.4531442544876898 0.4904484556536133
0.03 0.4506481498050718 0.5010337990938402
0.03021276595744681 0.4465799743947968 0.5090521941950316
0.030425531914893618 0.44406448461162684 0.5104613090938072
0.030638297872340424 0.4426600733754037 0.514329802833772
0.030851063829787233 0.4416611578414854 0.5179487886197176
0.031063829787234043 0.442213234913194 0.5191937020677537
0.03127659574468085 0.4423922452445783 0.5190146917363694
0.03148936170212766 0.4425712555759627 0.518835681404985
0.03170212765957447 0.44275026590734706 0.5186566710736006
0.031914893617021274 0.44292927623873146 0.5184776607422162
0.03212765957446809 0.44295357501324795 0.5189442187380457
0.03234042553191489 0.441803749652855 0.5243100704198796
0.0325531914893617 0.4406539242924621 0.5296759221017135
0.03276595744680851 0.4395157422296126 0.5318556938982811
0.03297872340425532 0.4383864430826409 0.5316047385322874
0.033191489361702124 0.4372571439356692 0.5313537831662938
0.03340425531914894 0.43612784478869754 0.5311028278003
0.03361702127659574 0.43499854564172585 0.5308518724343063
0.033829787234042556 0.43386924649475417 0.5306009170683127
0.03404255319148936 0.4327399473477825 0.530349961702319
0.03425531914893617 0.4316106482008108 0.5300990063363253
0.03446808510638298 0.431362970200293 0.5278004113367076
0.03468085106382979 0.431362970200293 0.5249265632453546
0.03489361702127659 0.4332357563686043 0.516316027453132
0.035106382978723406 0.4357637352520008 0.505698516142867
0.03531914893617021 0.4358767694196541 0.5001356113919404
0.03553191489361702 0.43541732888931606 0.4957709263537294
0.03574468085106383 0.43495788835897803 0.49140624131551824
0.03595744680851064 0.43449844782864 0.4870415562773073
0.036170212765957444 0.4355417738573069 0.4819116183587978
0.036382978723404256 0.4377890429898924 0.4761685972421904
0.03659574468085106 0.44003631212247785 0.4704255761255832
0.03680851063829787 0.4422835812550633 0.46468255500897604
0.03702127659574468 0.44453085038764883 0.45893953389236863
0.03723404255319149 0.4467781195202343 0.45319651277576145
0.0374468085106383 0.44902538865281977 0.44745349165915405
0.03765957446808511 0.4512726577854052 0.44171047054254686
0.03787234042553191 0.452923628253808 0.4372885518574752
0.038085106382978726 0.4543533618279024 0.4333567845287155
0.03829787234042553 0.45578309540199685 0.4294250171999559
0.03851063829787234 0.4572128289760912 0.4254932498711963
0.03872340425531915 0.4586425625501857 0.4215614825424365
0.03893617021276596 0.4586322916149971 0.41774874768758413
0.03914893617021276 0.45457444156729276 0.4142705905038377
0.039361702127659576 0.4536800945983333 0.41094914719283177
0.03957446808510638 0.45510522389050406 0.4077426062854474
0.03978723404255319 0.4565303531826749 0.404536065378063
0.04 0.45759267563657957 0.4004235969117377
0.04021276595744681 0.45858312325933037 0.396131657213151
0.04042553191489362 0.4595735708820812 0.3918397175145642
0.040638297872340426 0.4588935969646153 0.3925096289790664
0.04085106382978723 0.4579755619815483 0.3938866814536668
0.041063829787234045 0.457743038593063 0.39423546653639474
0.04127659574468085 0.4576335521263044 0.39478289887018747
0.04148936170212766 0.4567965584962003 0.3989678670207082
0.04170212765957447 0.45676599902296044 0.4010412652876146
0.041914893617021276 0.4558638968138209 0.40475523584705037
0.04212765957446808 0.45620923764452764 0.4132194965600137
0.042340425531914895 0.4529489855487079 0.4114357357374352
0.0425531914893617 0.45167640754912347 0.412799218368344
0.04276595744680851 0.4510301340811965 0.412799218368344
0.04297872340425532 0.44894968246213973 0.41380685329088673
0.043191489361702126 0.44837838606227504 0.4096116299097667
0.04340425531914894 0.44733118548807643 0.4059599413776258
0.043617021276595745 0.44971913581069517 0.3991511101557239
0.04382978723404255 0.4531285835072408 0.39248150916844
0.044042553191489364 0.4570411563103023 0.3913043478260869
0.04425531914893617 0.4586125484200474 0.3913043478260869
0.044468085106382976 0.4568449232907234 0.39692981244341374
0.04468085106382979 0.4607255482175048 0.40210317401134943
0.044893617021276595 0.46345156724885694 0.4048291930427016
0.0451063829787234 0.4636052760136786 0.4101950279678982
0.045319148936170214 0.46046473778091607 0.41398567746090126
0.04553191489361702 0.4618615394101519 0.4161962452931383
0.045744680851063826 0.46189690560114854 0.41524471496389953
0.04595744680851064 0.463963427999191 0.41398255379997656
0.046170212765957445 0.4637387654902906 0.42052465868637134
0.04638297872340425 0.46725563633684 0.42433034474163833
0.046595744680851064 0.46357154200370687 0.43547353254053384
0.04680851063829787 0.46250730134446066 0.4421008466942407
0.047021276595744683 0.46165119687347334 0.4506906025145062
0.04723404255319149 0.46029183196978873 0.4601898954196953
0.047446808510638296 0.45641896572418117 0.4665363947239862
0.04765957446808511 0.4549190670360372 0.4652315560987553
0.047872340425531915 0.4522775671063018 0.4610097540030939
0.04808510638297872 0.4514809934808261 0.4558339187707595
0.048297872340425534 0.4512348802826048 0.44995935497359657
0.04851063829787234 0.45017374969754387 0.4472426309872361
0.048723404255319146 0.4515156504029791 0.4533513168048814
0.04893617021276596 0.4527003351239828 0.46300725939810794
0.049148936170212765 0.45025268226724485 0.476739721801872
0.04936170212765957 0.4480483837340883 0.49704425254675805
0.049574468085106384 0.45183575223494593 0.5073608490357202
0.04978723404255319 0.4506875265934498 0.5251508048699917
0.05 0.44912794225268293 0.5432870391193878
0.05021276595744681 0.4490843993594128 0.5565757627152931
0.050425531914893615 0.44616268376141904 0.5649609517821809
0.05063829787234043 0.4468249372579706 0.5686135513928666
0.050851063829787234 0.4462485508172814 0.5648145084817534
0.05106382978723404 0.447975774758214 0.5580451267691826
0.05127659574468085 0.4491346822885009 0.5487406780006682
0.05148936170212766 0.4479726428920372 0.5335213863594628
0.051702127659574465 0.4479726428920372 0.5110120775826527
0.05191489361702128 0.44548801862494514 0.49363479037963026
0.052127659574468084 0.446018804436122 0.472070866357387
0.05234042553191489 0.4427760935632469 0.45375975324340734
0.0525531914893617 0.441133365901319 0.4336187855019176
0.05276595744680851 0.44373318197182904 0.4138099946370279
0.05297872340425532 0.44133677817953665 0.4036390595019708
0.05319148936170213 0.44306818210709065 0.4020614145644322
0.053404255319148934 0.4412054847104252 0.4199304062426562
0.05361702127659575 0.441133365901319 0.427223075610525
0.05382978723404255 0.441133365901319 0.43409137184087954
0.05404255319148936 0.44056422954273067 0.44909163423389864
0.05425531914893617 0.4399898389114193 0.463193353549009
0.05446808510638298 0.4394429886299487 0.47467720945988956
0.054680851063829784 0.43889953241475044 0.4849707725935984
0.0548936170212766 0.438359237162422 0.49415579188318276
0.0551063829787234 0.4382022471910112 0.5029618175606584
0.05531914893617021 0.4382022471910112 0.5116126191927274
0.05553191489361702 0.4382022471910112 0.5202634208247967
0.05574468085106383 0.4382022471910112 0.5214305855216813
0.055957446808510634 0.4382022471910112 0.5203993772512528
0.05617021276595745 0.4382022471910112 0.5153231945772542
0.05638297872340425 0.4382022471910112 0.5084549572411398
0.056595744680851066 0.44164112012931006 0.5041331837299962
0.05680851063829787 0.44211040547142155 0.5036638983878847
0.05702127659574468 0.4440884154298465 0.494703026529424
0.05723404255319149 0.4449359899401254 0.4877146625414313
0.0574468085106383 0.444406623266002 0.48407373059281
0.057659574468085104 0.4463171203912472 0.47744656929882795
0.05787234042553192 0.4465650511015903 0.4682090450705743
0.05808510638297872 0.4448883252654605 0.45713024292798743
0.05829787234042553 0.44467881462975556 0.4464629200951076
0.05851063829787234 0.4443876752858911 0.43818731209639195
0.05872340425531915 0.4454818015618006 0.4319962172002844
0.058936170212765954 0.4460185637518319 0.42737296620805176
0.05914893617021277 0.4428711853314174 0.422543549324262
0.05936170212765957 0.4433818383017651 0.4187318506309943
0.059574468085106386 0.44494891060242225 0.4152059379545157
0.05978723404255319 0.4472304555244649 0.41067840776623626
0.06 0.45117362164987246 0.4031544172379579
0.06021276595744681 0.45671519141094097 0.3955206931905378
0.06042553191489362 0.45852166733421656 0.39110593699713797
0.06063829787234042 0.45743154432879474 0.38735363276837886
0.060851063829787236 0.45853754934522684 0.38880268223206577
0.06106382978723404 0.4652098187624712 0.3865689512861794
0.06127659574468085 0.4594460032966468 0.3901598986315701
0.06148936170212766 0.4569621965768133 0.38994280954660193
0.06170212765957447 0.457743038593063 0.3955661061860861
0.06191489361702127 0.45819116362242124 0.39557984162446963
0.062127659574468086 0.4587200781631655 0.397737334422186
0.06234042553191489 0.4606913854922659 0.3988007272598385
0.0625531914893617 0.4623677873054509 0.39912066438690763
0.0627659574468085 0.4618388661583671 0.3975419238164901
0.06297872340425532 0.46251993559063176 0.396297846529544
0.06319148936170213 0.46262823644357587 0.3971409963759819
0.06340425531914894 0.46576347764933157 0.38899305431884806
0.06361702127659574 0.4691743568143912 0.3824132728218627
0.06382978723404255 0.4665363947239862 0.38102581357024773
0.06404255319148935 0.4665363947239862 0.3776257938446508
0.06425531914893617 0.46706176787556275 0.37893922672359204
0.06446808510638298 0.4687884177622866 0.3822130477970686
0.06468085106382979 0.4701340347551017 0.3808674308042535
0.06489361702127659 0.4702212704572463 0.38158040984694414
0.0651063829787234 0.46896031559363455 0.3868142794825842
0.06531914893617022 0.46788447699196 0.39357169919877255
0.06553191489361702 0.46714461262115425 0.39716658524670256
0.06574468085106383 0.46532211505219656 0.4015492237304872
0.06595744680851064 0.46803720408481936 0.40389254479257747
0.06617021276595744 0.4685368580346603 0.407983596773534
0.06638297872340425 0.4720270869770088 0.4144450392401141
0.06659574468085107 0.46735858456707907 0.42349871243142895
0.06680851063829787 0.4668188200904468 0.43040882905520905
0.06702127659574468 0.4666713321709924 0.43779743484999306
0.06723404255319149 0.46668123062189476 0.4473036809753795
0.06744680851063829 0.46542683143032737 0.4581406097637323
0.06765957446808511 0.4637501709857355 0.46816345868578196
0.06787234042553192 0.4626324645200518 0.47627719388968076
0.06808510638297872 0.46091938474580146 0.4802188189050428
0.06829787234042553 0.46262823644357587 0.4880878114329422
0.06851063829787234 0.4622335447847057 0.4921464589531616
0.06872340425531914 0.4621855204349063 0.49335917912542576
0.06893617021276596 0.46262823644357587 0.4929164631167562
0.06914893617021277 0.46100185391477805 0.4904768893235593
0.06936170212765957 0.4597218482591084 0.4861761082293985
0.06957446808510638 0.45849610953572717 0.49141032123142786
0.06978723404255319 0.456013348764346 0.4946196588374233
0.06999999999999999 0.4531000644246277 0.49573054240692116
0.07021276595744681 0.4505307489886935 0.49967873532654117
0.07042553191489362 0.4479281244225503 0.5007327796775769
0.07063829787234042 0.44519554370309083 0.5013327995505248
0.07085106382978723 0.4448002508029767 0.5009740530563296
0.07106382978723404 0.44587450024696845 0.5023987318080552
0.07127659574468086 0.4460185637518319 0.5008384244356083
0.07148936170212766 0.4455632386286341 0.5023264176087692
0.07170212765957447 0.44508424297743693 0.5040029023879596
0.07191489361702127 0.4446052473262397 0.50567938716715
0.07212765957446808 0.4441262516750425 0.5073558719463404
0.07234042553191489 0.4427315859269827 0.5122372020645494
0.0725531914893617 0.44211040547142155 0.5113193608327726
0.07276595744680851 0.4435150252154884 0.5123353752966338
0.07297872340425532 0.43930452784699847 0.5150209463437867
0.07319148936170213 0.43896488381707505 0.5184389197333714
0.07340425531914893 0.43857199315599993 0.5211184123248677
0.07361702127659574 0.43762549624620245 0.5213625238026208
0.07382978723404256 0.4365431067000185 0.5197389394833448
0.07404255319148936 0.43546071715383455 0.5181153551640689
0.07425531914893617 0.43437832760765066 0.516491770844793
0.07446808510638298 0.43530899794007155 0.5178877763434243
0.07468085106382978 0.4356780546924924 0.5191540031699478
0.0748936170212766 0.43290118869054917 0.5178986077493085
0.07510638297872341 0.43572733637988087 0.5152147626721407
0.07531914893617021 0.4324046378061729 0.5141071964809046
0.07553191489361702 0.4303859306301905 0.5134342940889105
0.07574468085106383 0.4294925647263295 0.5145063331735437
0.07595744680851063 0.4268785181444581 0.5179187461447456
0.07617021276595745 0.42851681685444115 0.5136636881487134
0.07638297872340426 0.42650423034482593 0.5104502593885112
0.07659574468085106 0.42808685578441247 0.5041247891866898
0.07680851063829787 0.4299597871006697 0.49483410899959984
0.07702127659574468 0.4321781510828093 0.4812670301747345
0.0772340425531915 0.4342383319646683 0.46896570092090145
0.0774468085106383 0.4338712589259403 0.4595657381324868
0.07765957446808511 0.4372001331396858 0.4538599547938755
0.07787234042553191 0.43962714004832026 0.4509850945980346
0.07808510638297872 0.4424665065363236 0.44992672203224227
0.07829787234042553 0.44406448461162684 0.4511343400101847
0.07851063829787235 0.44406448461162684 0.4512577841950409
0.07872340425531915 0.4454518871060415 0.4522911640967596
0.07893617021276596 0.45170885437557645 0.4487933474398755
0.07914893617021276 0.4500319865736681 0.44420483733352795
0.07936170212765957 0.451006616218756 0.4394363440163382
0.07957446808510638 0.45188080117244755 0.4293305078473759
0.0797872340425532 0.45294105571155435 0.4138800312111361
0.08 0.4565346738371181 0.4037227982248448
0.08021276595744681 0.45996012387527163 0.3967532366760005
0.08042553191489361 0.46126466286622386 0.3977356817055977
0.08063829787234042 0.461630102190938 0.4005756764007939
0.08085106382978724 0.46378917107360085 0.4022356781571378
0.08106382978723405 0.46458231558378116 0.39636067281236675
0.08127659574468085 0.4660767764021925 0.3880278141018521
0.08148936170212766 0.4665363947239862 0.38059227498740017
0.08170212765957446 0.4665363947239862 0.3637276964771897
0.08191489361702127 0.4634886585672651 0.34870855907960796
0.08212765957446809 0.46150034651800964 0.33906869954425867
0.0823404255319149 0.46111098629683317 0.3372453753905355
0.0825531914893617 0.46194737449435797 0.3424716523905942
0.08276595744680851 0.45969711773326827 0.3543754334264248
0.08297872340425531 0.46023586290757534 0.3636093962459306
0.08319148936170212 0.46090113124966886 0.368230430955527
0.08340425531914894 0.4616755459896151 0.3628971529446869
0.08361702127659575 0.4648562745831593 0.3502274707403522
0.08382978723404255 0.46630970968982693 0.33735627317004846
0.08404255319148936 0.46300962261526707 0.32581912248833883
0.08425531914893616 0.46661096700670546 0.32501480162454927
0.08446808510638298 0.4686600895814792 0.33013074107782286
0.08468085106382979 0.46918110285058656 0.34002705890483165
0.0848936170212766 0.4676793007527084 0.35277605885472985
0.0851063829787234 0.46759802166309844 0.36702424405604284
0.08531914893617021 0.4684904738641915 0.37945204529679516
0.08553191489361701 0.47036217428714805 0.38687829268206225
0.08574468085106383 0.47142159257449934 0.3940947412521725
0.08595744680851064 0.46979928416817407 0.409168012927201
0.08617021276595745 0.4713431402043501 0.42495156618863295
0.08638297872340425 0.4691633739944396 0.43259799117415104
0.08659574468085106 0.4668218207033272 0.4399571586605043
0.08680851063829788 0.46458231558378116 0.4473695398672725
0.08702127659574468 0.46454080036258644 0.4560588083906235
0.08723404255319149 0.4632347071581601 0.4689453269001297
0.0874468085106383 0.4648357592587616 0.4728387887955199
0.0876595744680851 0.4598443852515124 0.4800407646583749
0.08787234042553191 0.4609007112684994 0.4883710962139364
0.08808510638297873 0.46195075055971985 0.4909623839765511
0.08829787234042553 0.46083531169813474 0.4917782691518897
0.08851063829787234 0.45876016484977794 0.49193942354665365
0.08872340425531915 0.45751148247275186 0.4898695663462928
0.08893617021276595 0.45628813004542296 0.4885091342437808
0.08914893617021276 0.45582544736749503 0.48705422569614076
0.08936170212765958 0.45234279848292364 0.4885993524750202
0.08957446808510638 0.4499308511374953 0.4964851778562891
0.08978723404255319 0.4465961680528469 0.5076007881384501
0.09 0.4460185637518319 0.5141306202904565
0.0902127659574468 0.4467633254219847 0.5237466715564859
0.09042553191489362 0.4446087773374056 0.5304068285978405
0.09063829787234043 0.44723852820916415 0.5334555952442378
0.09085106382978723 0.4492315093188597 0.5391191497682979
0.09106382978723404 0.45112715410463283 0.5417684416218858
0.09127659574468085 0.45039535298646777 0.5412998106676602
0.09148936170212765 0.45030158239027923 0.5425979396879799
0.09170212765957447 0.4528804761447218 0.5392918895933716
0.09191489361702128 0.4538348803126526 0.5352683594000549
0.09212765957446808 0.451841209592477 0.5320244403075068
0.09234042553191489 0.4486506648418018 0.5338026162508961
0.0925531914893617 0.44842894274023976 0.5318284139563181
0.0927659574468085 0.44765046574639006 0.5286438936679462
0.09297872340425532 0.44154925620121677 0.5264064398298349
0.09319148936170213 0.4405076603918773 0.5232816524018163
0.09340425531914893 0.4387749626460608 0.5146301499514779
0.09361702127659574 0.4367265379430287 0.5063152325807663
0.09382978723404255 0.4337507994902291 0.4921540951551023
0.09404255319148937 0.4342826692497649 0.4745354258581824
0.09425531914893617 0.431101043940541 0.46095272684746785
0.09446808510638298 0.4284843335813225 0.45380863926698406
0.09468085106382979 0.43054033471908804 0.4536298611870379
0.09489361702127659 0.432535603003912 0.4574498803921582
0.0951063829787234 0.4331091748140824 0.4593603434229056
0.09531914893617022 0.4303859306301905 0.4671947095885644
0.09553191489361702 0.4303859306301905 0.4747053507076791
0.09574468085106383 0.4295365997959285 0.48564942960189444
0.09595744680851064 0.4303633905353153 0.49293900321163137
0.09617021276595744 0.4284318514899854 0.4941266975313236
0.09638297872340426 0.4284318514899854 0.4897098353413068
0.09659574468085107 0.42966068905255256 0.48818907979463444
0.09680851063829787 0.4319104034103061 0.4843170596460756
0.09702127659574468 0.4357603707673037 0.47874866684871975
0.09723404255319149 0.43640227104358464 0.47152327395384613
0.09744680851063829 0.43720898541632924 0.46660128354230396
0.09765957446808511 0.4386585173605432 0.467057164124557
0.09787234042553192 0.44260503635661896 0.4628633296858825
0.09808510638297872 0.44368194875366934 0.4618217648772432
0.09829787234042553 0.44411547179069566 0.46154922251533553
0.09851063829787234 0.4443993248761327 0.4584127191220747
0.09872340425531914 0.44484366812494613 0.4593014056197017
0.09893617021276596 0.4432026926620886 0.4587777019734478
0.09914893617021277 0.44488025525884856 0.4605935228419304
0.09936170212765957 0.44351222028678694 0.4592723424880054
0.09957446808510638 0.4457376056622098 0.456350875632102
0.09978723404255319 0.4460582262705538 0.4538348803126526
0.1 0.44854434281600963 0.4491644554669455
0.10021276595744681 0.4516217646720214 0.44530056068215546
0.10042553191489362 0.4552963562326693 0.444187635416674
0.10063829787234042 0.4547627112128493 0.4517987867226044
0.10085106382978723 0.4524990489162071 0.44776841300163395
0.10106382978723404 0.4560792247575057 0.45013920934456086
0.10127659574468086 0.4571943524864456 0.44473350336137646
0.10148936170212766 0.457743038593063 0.43800371986271996
0.10170212765957447 0.45844573950778866 0.4272670797633435
0.10191489361702127 0.4595591424699724 0.41613305014150737
0.10212765957446808 0.4616506775451736 0.4098673206655865
0.10234042553191489 0.46011945484895295 0.40619789099528014
0.1025531914893617 0.46353854629447816 0.400214480965611
0.10276595744680851 0.46457585380285554 0.39912066438690763
0.10297872340425532 0.46365093217925285 0.39912066438690763
0.10319148936170212 0.4636052760136786 0.39320232387669085
0.10340425531914893 0.4657044259423605 0.3824853543956735
0.10361702127659575 0.4692789904292624 0.3740318405726264
0.10382978723404256 0.4722278802222588 0.3666126627232676
0.10404255319148936 0.47153561585397014 0.35761322593551426
0.10425531914893617 0.4720334900529175 0.3512357434750481
0.10446808510638297 0.47108661516793954 0.3456905727882485
0.10468085106382978 0.46880890720528434 0.34113515686293805
0.1048936170212766 0.4670348580821751 0.3363906180869347
0.1051063829787234 0.46532505390903395 0.32787644495082574
0.10531914893617021 0.46458231558378116 0.3215107813451797
0.10553191489361702 0.46458231558378116 0.31998585682995073
0.10574468085106382 0.4656270997976015 0.31209639800405947
0.10595744680851064 0.46854448610016475 0.3094220667633758
0.10617021276595745 0.47000693426969753 0.31729763338534495
0.10638297872340426 0.4655688309439494 0.32972432269743973
0.10659574468085106 0.4635326706193903 0.34669038512845485
0.10680851063829787 0.4624284537127482 0.3661667239863546
0.10702127659574467 0.46032247752868904 0.3849142503024786
0.1072340425531915 0.4582057601043876 0.3999429143146506
0.1074468085106383 0.4575393702852771 0.4089323620567606
0.1076595744680851 0.4538739258131337 0.4178603464855407
0.10787234042553191 0.4537116696561534 0.43073827123590597
0.10808510638297872 0.4529279388708557 0.43596777553758365
0.10829787234042552 0.45745087013325586 0.441759803319653
0.10851063829787234 0.45384399959534766 0.44707767686618977
0.10872340425531915 0.45468969307282686 0.4546889181635033
0.10893617021276596 0.4519603720886724 0.4636307158865854
0.10914893617021276 0.45220250459748196 0.4687009663825482
0.10936170212765957 0.4545219543771846 0.4727957407035633
0.10957446808510639 0.45937667509894164 0.4825051821470772
0.1097872340425532 0.4509195725602112 0.4945568761407044
0.11 0.44815040695261243 0.5065054723048436
0.1102127659574468 0.4433186754247933 0.51874157858968
0.11042553191489361 0.4424395249544411 0.5244798922061904
0.11063829787234042 0.44338807021846754 0.5279646245683774
0.11085106382978724 0.4450415241817294 0.5305035567118296
0.11106382978723404 0.4431602798786345 0.5334453965667361
0.11127659574468085 0.4423258413630057 0.5345483627919083
0.11148936170212766 0.4445484332161738 0.5341986705438427
0.11170212765957446 0.4433320822885435 0.5348068460076579
0.11191489361702127 0.4439215456433669 0.5315927622237969
0.11212765957446809 0.44406448461162684 0.5300977945302185
0.1123404255319149 0.4429325836844805 0.5314560311712072
0.1125531914893617 0.44092475169778783 0.525575997337204
0.1127659574468085 0.4395019407710669 0.5274400408504216
0.11297872340425531 0.4382022471910112 0.5280898876404494
0.11319148936170213 0.43763600653643064 0.5303548502587716
0.11340425531914894 0.4379195038147952 0.5285265649514269
0.11361702127659574 0.4382022471910112 0.5279411035909126
0.11382978723404255 0.4372462049567859 0.5271338454062241
0.11404255319148936 0.4387280953874955 0.5235201987078271
0.11425531914893616 0.4417239137287195 0.5249995324062404
0.11446808510638298 0.43628214589199854 0.5209362567400946
0.11468085106382979 0.43503849510733306 0.5206457741779947
0.1148936170212766 0.43581881774905284 0.520821260347978
0.1151063829787234 0.43737218710569187 0.5202735710796287
0.11531914893617021 0.43854389233192853 0.5240859376547401
0.11553191489361703 0.4382022471910112 0.5231262353122265
0.11574468085106383 0.4373190024447927 0.5248773844584894
0.11595744680851064 0.43714110341078455 0.5281739918505735
0.11617021276595745 0.43445218906588756 0.5310210063507572
0.11638297872340425 0.4369925106811192 0.5318816974509651
0.11659574468085106 0.43863091998577913 0.5318667534647817
0.11680851063829788 0.4379973354008539 0.5236145133702511
0.11702127659574468 0.4401563263312165 0.5105030515645761
0.11723404255319149 0.44096531762722335 0.4976961128421162
0.1174468085106383 0.4430099927452336 0.48458782076357576
0.1176595744680851 0.44315406277230573 0.4713993661828771
0.11787234042553191 0.4439922409449638 0.4588266935930084
0.11808510638297873 0.44317006008900106 0.4523764914573093
0.11829787234042553 0.4421230767323572 0.4480233279357797
0.11851063829787234 0.4448911972774666 0.4439642666754517
0.11872340425531915 0.4419530835842122 0.44258237113304966
0.11893617021276595 0.44084078245944613 0.4438711904142378
0.11914893617021277 0.44101255243622794 0.4407052528488133
0.11936170212765958 0.44380298653141764 0.4384637452712204
0.11957446808510638 0.4436401937243924 0.43302121624889783
0.11978723404255319 0.44895151581384335 0.4204725530517002
0.12 0.4528060233128206 0.4129028532278029
0.1202127659574468 0.4538348803126526 0.3981579617701245
0.12042553191489362 0.4548104617230417 0.3900848710631006
0.12063829787234043 0.4588527256608691 0.3849395672184992
0.12085106382978723 0.45966382401184325 0.38251099169516367
0.12106382978723404 0.4618877908933572 0.38251099169516367
0.12127659574468085 0.46283958024885075 0.3802139044006804
0.12148936170212765 0.47071444190878875 0.383173742080506
0.12170212765957447 0.46939592766075255 0.3786744191882948
0.12191489361702128 0.46768529679288356 0.380728775053753
0.12212765957446808 0.4684904738641915 0.3806105065785376
0.12234042553191489 0.4684904738641915 0.3781856822068471
0.1225531914893617 0.471845523026476 0.3766672083697123
0.12276595744680852 0.4730384864552189 0.37853579520405894
0.12297872340425532 0.47142159257449934 0.3770555754615623
0.12319148936170213 0.47142159257449934 0.3723297157673226
0.12340425531914893 0.470445838185576 0.3678605388683424
0.12361702127659574 0.47239863214460187 0.3638157073679806
0.12382978723404255 0.47213924548324787 0.3627108136317579
0.12404255319148937 0.4718100768295584 0.3635470977432456
0.12425531914893617 0.4713486947634653 0.3695760998373975
0.12446808510638298 0.4717708513263064 0.37274059599413767
0.12468085106382978 0.4715977724118777 0.378346614123207
0.12489361702127659 0.4677020485611185 0.3823695309948915
0.1251063829787234 0.4654721696544517 0.3892450841100987
0.12531914893617022 0.4647997851809679 0.39749121602524495
0.125531914893617 0.4652086674902684 0.39591388143372797
0.12574468085106383 0.46603792701959795 0.39765178905864146
0.12595744680851065 0.4681350633208458 0.40125176995058937
0.12617021276595744 0.4670173320827683 0.4059751062301643
0.12638297872340426 0.46869637030841593 0.41269691583954077
0.12659574468085105 0.4687294990380568 0.4184433694897355
0.12680851063829787 0.46694535684723953 0.4242738464099177
0.1270212765957447 0.4681263092607425 0.43265534819508045
0.12723404255319148 0.4668119076008757 0.4418476370955215
0.1274468085106383 0.4637385678894797 0.4514809255450443
0.1276595744680851 0.46047263365895436 0.4597642922814071
0.12787234042553192 0.4575125696603594 0.461135095168778
0.1280851063829787 0.4556430536486959 0.46465526848586214
0.12829787234042553 0.45379187429289036 0.46573137923293273
0.12851063829787235 0.4528737622727082 0.46940382731366165
0.12872340425531914 0.45371950934078265 0.46946751343429405
0.12893617021276596 0.45456017907596974 0.46946751343429405
0.12914893617021275 0.4585344336433505 0.4700879323943932
0.12936170212765957 0.4578805630700806 0.47323814723768687
0.1295744680851064 0.4547018749162691 0.47804746219638156
0.12978723404255318 0.4515147455452396 0.48671132605417894
0.13 0.44860147992816024 0.4963309204247155
0.1302127659574468 0.4472420883649196 0.5014633342046945
0.13042553191489362 0.4449391249315681 0.504022295763449
0.13063829787234044 0.4432574934649514 0.5099080058966073
0.13085106382978723 0.44220176203800854 0.512274541385634
0.13106382978723405 0.43917928676111373 0.5164094663475629
0.13127659574468084 0.4394346122876903 0.5200625080892558
0.13148936170212766 0.44086909853211503 0.5241016994533256
0.13170212765957448 0.43975701579001925 0.5224485422733227
0.13191489361702127 0.4401832167241841 0.5271935192492501
0.1321276595744681 0.43992494508839997 0.5276271251548167
0.13234042553191488 0.440655230049037 0.5261358085002443
0.1325531914893617 0.4393825971292336 0.5287619616583721
0.1327659574468085 0.4382088839995918 0.5300373299720741
0.13297872340425532 0.4371300896018051 0.5341423610992722
0.13319148936170214 0.43559439890401636 0.5352524350544803
0.13340425531914893 0.4333170493404983 0.5361340804811031
0.13361702127659575 0.4313972571053865 0.5374489090928841
0.13382978723404254 0.43173267839673746 0.5323941386568
0.13404255319148936 0.4313234452838735 0.5273463031220685
0.13425531914893618 0.4303859306301905 0.5230762076077857
0.13446808510638297 0.428714203004647 0.5205559225942905
0.1346808510638298 0.42793089638441417 0.5178682781159318
0.13489361702127659 0.42898665697682253 0.5135913853650326
0.1351063829787234 0.4307577734372231 0.5101313325715702
0.13531914893617022 0.4321680920696906 0.5030851608533207
0.13553191489361702 0.4323400097703958 0.49982643824360196
0.13574468085106384 0.43156259575399375 0.49995536566117504
0.13595744680851063 0.4328443105484337 0.5019461886437118
0.13617021276595745 0.431362970200293 0.5030608826400761
0.13638297872340424 0.4334099820803634 0.5046874043279198
0.13659574468085106 0.43655354681107505 0.5062591866932757
0.13680851063829788 0.4387670414503948 0.5089077678424218
0.13702127659574467 0.4400816152562878 0.4996005223615872
0.1372340425531915 0.44320650566110714 0.49359585113790116
0.13744680851063829 0.4446998510136674 0.4883249585002219
0.1376595744680851 0.44522083733780493 0.4820524432755343
0.13787234042553193 0.45036293359388835 0.47358490460832525
0.13808510638297872 0.4509037616023448 0.46913891912722455
0.13829787234042554 0.4509037616023448 0.468730006423893
0.13851063829787233 0.45226236313469054 0.46946751343429405
0.13872340425531915 0.45204650451340045 0.46703350474684496
0.13893617021276597 0.4537684972759889 0.4618171544651326
0.13914893617021276 0.4540302517830308 0.4600880428922363
0.13936170212765958 0.4553517957367467 0.4530632650183105
0.13957446808510637 0.45553898623955175 0.44017917961433783
0.1397872340425532 0.4582502785448165 0.4199380180262978
0.13999999999999999 0.457743038593063 0.40105973947767337
0.1402127659574468 0.457743038593063 0.3839945424241032
0.14042553191489363 0.4568803333290983 0.3719298599153108
0.14063829787234042 0.4576957454594499 0.35973167621431923
0.14085106382978724 0.45547282583192006 0.3462310994981881
0.14106382978723403 0.4547195419577459 0.3369596436003793
0.14127659574468085 0.458054353878485 0.32834436372101306
0.14148936170212767 0.46193881993066677 0.3277967757694187
0.14170212765957446 0.45945895047331775 0.3312520470530526
0.14191489361702128 0.4602115874214406 0.3425561689334417
0.14212765957446807 0.46353651181809763 0.35394763017691855
0.1423404255319149 0.46421141131819993 0.36037533517249776
0.1425531914893617 0.46863399918189946 0.37276377352690865
0.1427659574468085 0.4630636754598921 0.37701833779509514
0.14297872340425533 0.46100933185898335 0.37785873824730404
0.14319148936170212 0.46033352521407717 0.3799832347475837
0.14340425531914894 0.4601419653257068 0.3824236473099382
0.14361702127659573 0.4606741573033708 0.3826501296736696
0.14382978723404255 0.4596989946397664 0.38543647968597716
0.14404255319148937 0.4619064872129875 0.38680208548484524
0.14425531914893616 0.4630797190219478 0.3896130471817472
0.14446808510638298 0.4620490497886553 0.3919187199167123
0.14468085106382977 0.46475440873168367 0.3931723803923408
0.1448936170212766 0.4672066042610378 0.391611177859138
0.1451063829787234 0.464296793739875 0.38969602754898003
0.1453191489361702 0.46548184840628243 0.3874736962932778
0.14553191489361703 0.4664422045345936 0.38286383761569465
0.14574468085106382 0.4664892067044501 0.36576323215485035
0.14595744680851064 0.4679879290863407 0.3586921459257132
0.14617021276595746 0.4665766410243928 0.359102288313108
0.14638297872340425 0.4639467777641742 0.36717239464263346
0.14659574468085107 0.4602823434500788 0.3772389701176136
0.14680851063829786 0.4629139889307938 0.39164313997557665
0.14702127659574468 0.4589895318552208 0.40900584784345934
0.14723404255319147 0.457743038593063 0.4231650979073852
0.1474468085106383 0.4575552750564907 0.43493047739516705
0.14765957446808511 0.4582965673303383 0.4511511766781445
0.1478723404255319 0.46249176611491527 0.457617441899141
0.14808510638297873 0.46413633873594545 0.4663456754994439
0.14829787234042552 0.46327862562561656 0.47207489335062314
0.14851063829787234 0.46339466874006546 0.472609239418215
0.14872340425531916 0.46272175085373807 0.47593273278436343
0.14893617021276595 0.46165119687347334 0.4782608695652173
0.14914893617021277 0.46208860867993407 0.4781150656297304
0.14936170212765956 0.46351188133062393 0.4780866556849827
0.14957446808510638 0.4595071901518373 0.48293787205900074
0.1497872340425532 0.4557222374194433 0.4895802271631654
0.15 0.4532169701600775 0.5012080758352806
0.15021276595744681 0.4521280256623483 0.5022161266169813
0.1504255319148936 0.44771639437730965 0.5057300678317423
0.15063829787234043 0.449858272040517 0.5104119087229692
0.15085106382978725 0.4478692913257515 0.5098361905073573
0.15106382978723404 0.44632002990660585 0.5133580190725795
0.15127659574468086 0.44302026928125726 0.5153211974688487
0.15148936170212765 0.440664399517799 0.5148411932394706
0.15170212765957447 0.4389854595176595 0.5175362796127754
0.15191489361702126 0.4443121953631389 0.517640608809187
0.15212765957446808 0.4454246032809633 0.5196989524307778
0.1523404255319149 0.44594509573487096 0.5238878572921952
0.1525531914893617 0.44699560332193444 0.5252817445070781
0.15276595744680851 0.44747818380686005 0.5287333282870169
0.1529787234042553 0.44992672203224227 0.5331367239936874
0.15319148936170213 0.4479339285665785 0.5386961150531994
0.15340425531914895 0.44607150317001976 0.5432604706861335
0.15361702127659574 0.4444594139770586 0.5437225207620908
0.15382978723404256 0.44007069048324304 0.5452308980412315
0.15404255319148935 0.43917928676111373 0.54655181399877
0.15425531914893617 0.4402473001274185 0.5476761659406022
0.154468085106383 0.4434090958421028 0.548536136151468
0.15468085106382978 0.43917928676111373 0.5415134248905871
0.1548936170212766 0.43917928676111373 0.5396600013363089
0.1551063829787234 0.43868435943361755 0.5358805740314905
0.15531914893617021 0.4369739600869705 0.533952125061065
0.155531914893617 0.43624816805080613 0.5288203754562093
0.15574468085106383 0.4345409316031634 0.5228447569512403
0.15595744680851065 0.43429408891060084 0.5193032547691485
0.15617021276595744 0.4357918400103243 0.5109098048981031
0.15638297872340426 0.43328267529962317 0.5056523515689652
0.15659574468085105 0.43660527647615754 0.4991157745642678
0.15680851063829787 0.4367461483952611 0.4886049300859278
0.1570212765957447 0.4374530834533967 0.4835206492845377
0.15723404255319148 0.4396525078399826 0.4708188518994741
0.1574468085106383 0.4435489872468267 0.45890290766386327
0.1576595744680851 0.44406448461162684 0.4490271470966701
0.15787234042553192 0.44624000258333735 0.4405797688225554
0.15808510638297874 0.4477387266379441 0.4341429217639688
0.15829787234042553 0.44568125051434476 0.42646904731419044
0.15851063829787235 0.4458738466126421 0.42372757847496983
0.15872340425531914 0.4468041986642418 0.4204879318240361
0.15893617021276596 0.4466189724991595 0.4186614557889594
0.15914893617021275 0.4452397040989842 0.417294986392433
0.15936170212765957 0.445428325326938 0.4160254562910986
0.1595744680851064 0.446716477181941 0.4115428564979967
0.15978723404255318 0.4476745756504082 0.40579426568719423
0.16 0.44937637732141145 0.40119839337867186
0.1602127659574468 0.4534722305896621 0.40009770395701016
0.16042553191489362 0.45575975160724225 0.3977281246457926
0.16063829787234044 0.4573775047796829 0.394397165097534
0.16085106382978723 0.45969711773326827 0.39084787678485255
0.16106382978723405 0.45999107211898393 0.38700425036472236
0.16127659574468084 0.462310697493473 0.3828529533650604
0.16148936170212766 0.46200111243498354 0.37878369990588817
0.16170212765957448 0.464025943962761 0.3758820486789867
0.16191489361702127 0.46114896625498375 0.37469467513434296
0.1621276595744681 0.4619137670764859 0.3722154555881126
0.16234042553191488 0.4641103513930439 0.36856334442973065
0.1625531914893617 0.46371807287186717 0.3678553981436248
0.1627659574468085 0.4616921400798882 0.36982994888703746
0.16297872340425532 0.4660934181652681 0.3720305879297274
0.16319148936170214 0.46946751343429405 0.3729551547824905
0.16340425531914893 0.4717149741569407 0.3704119400668249
0.16361702127659575 0.47433994458672224 0.37030438041792374
0.16382978723404254 0.47584309031189 0.37140337150322894
0.16404255319148936 0.47580806312630286 0.37176355642403514
0.16425531914893618 0.47446898732346926 0.37176355642403514
0.16446808510638297 0.4734306114039206 0.3707865168539326
0.1646808510638298 0.48008040991959516 0.37115704297257596
0.16489361702127658 0.4719281596919043 0.37536428914868175
0.1651063829787234 0.47111749842641637 0.38257574882101764
0.16531914893617022 0.47239863214460187 0.3901042870678322
0.16553191489361702 0.47298476630684405 0.39775227150984804
0.16574468085106384 0.47266761866116985 0.40576212838528686
0.16595744680851063 0.4715672786909548 0.41622755505430165
0.16617021276595745 0.46856007117585674 0.4262689804147845
0.16638297872340424 0.4686698275878126 0.4433564756269558
0.16659574468085106 0.4698124019491285 0.448125733936059
0.16680851063829788 0.46654085640344883 0.45838250049456486
0.16702127659574467 0.46416366782131474 0.4673731058758765
0.1672340425531915 0.462075219348098 0.47698880214134376
0.16744680851063828 0.45881261998749556 0.4793304509596499
0.1676595744680851 0.4570038754760252 0.48417417450151956
0.16787234042553192 0.45676599902296044 0.48521982599576485
0.16808510638297872 0.45187076178659064 0.4811468110391689
0.16829787234042554 0.4497974592510862 0.4705889532084168
0.16851063829787233 0.44819913052702975 0.4544669505308757
0.16872340425531915 0.44527633845545905 0.4387703916377436
0.16893617021276597 0.44602716407225923 0.42546633149796864
0.16914893617021276 0.44675528255589564 0.41890177655499833
0.16936170212765958 0.44383871254014706 0.4283579002058011
0.16957446808510637 0.4422393748743494 0.446628233209439
0.1697872340425532 0.44500546874188834 0.4740402308061845
0.17 0.4430874450415241 0.49118890471668897
0.1702127659574468 0.4435454835140292 0.5108392886009233
0.17042553191489362 0.44434614618701374 0.5217963819130016
0.17063829787234042 0.44543518572023355 0.5309071764549007
0.17085106382978724 0.4479726428920372 0.5363178133584723
0.17106382978723403 0.4479726428920372 0.5385744225341493
0.17127659574468085 0.4479726428920372 0.5405157170537609
0.17148936170212767 0.4489349438642909 0.5427160039962906
0.17170212765957446 0.449057386874593 0.5355830909639102
0.17191489361702128 0.44970296621567335 0.5318563064081177
0.17212765957446807 0.4486171486352057 0.5287549552943176
0.1723404255319149 0.4471487972855761 0.5275724299612715
0.1725531914893617 0.4455695422257861 0.5232836863079474
0.1727659574468085 0.44455857830853324 0.5198129208538531
0.17297872340425532 0.44349462475689694 0.5139232932409422
0.17319148936170212 0.44170595683078795 0.508026494421865
0.17340425531914894 0.4387035739386762 0.49849571055604985
0.17361702127659576 0.43913607253536757 0.4893540186423149
0.17382978723404255 0.43535126510056804 0.4806310319364726
0.17404255319148937 0.43584877442800035 0.47455240809620985
0.17425531914893616 0.43398492778071635 0.47502058972502514
0.17446808510638298 0.4337054182800722 0.47629455598267645
0.17468085106382977 0.43209020115947544 0.4810010193362204
0.1748936170212766 0.42886926165053224 0.4847649556443975
0.1751063829787234 0.43040378802612356 0.4893637470196019
0.1753191489361702 0.4259441031387505 0.49251063170842035
0.17553191489361702 0.4236310419471086 0.4964870681666215
0.17574468085106382 0.4214942023860981 0.4986803284242027
0.17595744680851064 0.4189655331621243 0.4963036978868114
0.17617021276595746 0.4197895027820025 0.4974019802921015
0.17638297872340425 0.4172851092987029 0.4906990473256267
0.17659574468085107 0.4161847464567551 0.4829414049740431
0.17680851063829786 0.4170097882398135 0.47509714406077524
0.17702127659574468 0.4214793291547855 0.4663267714471161
0.1772340425531915 0.4252140277819512 0.45753054568356405
0.1774468085106383 0.42851226380753404 0.4507429369672476
0.1776595744680851 0.43180670195145937 0.44548525593289573
0.1778723404255319 0.4348230469899027 0.44559233153517896
0.17808510638297873 0.43740550394638106 0.4380219508655388
0.17829787234042552 0.4396850459883055 0.43422513114203953
0.17851063829787234 0.4414129236196974 0.43296830841463624
0.17872340425531916 0.44361089104684 0.43556777770362587
0.17893617021276595 0.44406448461162684 0.4397509667940896
0.17914893617021277 0.44611015286124833 0.43140876475500123
0.17936170212765956 0.450469977567078 0.43250216603824465
0.17957446808510638 0.45408855379978197 0.42669379145849456
0.1797872340425532 0.45593307960094287 0.42190765386713713
0.18 0.45971433923619154 0.4152202904149462
0.1802127659574468 0.4604326621806613 0.4109714163291258
0.1804255319148936 0.4626110297067942 0.40913962166465473
0.18063829787234043 0.4636052760136786 0.41144853158195616
0.18085106382978725 0.4636052760136786 0.41182217879824123
0.18106382978723404 0.4649416610437096 0.4152324247884536
0.18127659574468086 0.46703583072949295 0.41842265400666145
0.18148936170212765 0.46664188068668777 0.4162410488417848
0.18170212765957447 0.4684904738641915 0.4137762579384465
0.18191489361702126 0.46788625746220003 0.40712987751654
0.18212765957446808 0.4689594246024758 0.40158283235893116
0.1823404255319149 0.46946751343429405 0.39940221854773056
0.1825531914893617 0.46946751343429405 0.39912066438690763
0.1827659574468085 0.46828716186497416 0.38924861268627314
0.1829787234042553 0.46634256669958196 0.3875979170181621
0.18319148936170213 0.4664424976263254 0.38328754753877986
0.18340425531914895 0.4676618692325837 0.3801426102391545
0.18361702127659574 0.4681356455064796 0.3790467893906914
0.18382978723404256 0.4668580938928618 0.3799075431854694
0.18404255319148935 0.46479660120631183 0.3805569125549584
0.18425531914893617 0.4610764383692336 0.3831863204658691
0.184468085106383 0.4645249760914101 0.3825874443516585
0.18468085106382978 0.4619302679060855 0.38711682755710436
0.1848936170212766 0.46308793553076194 0.3907870073431703
0.1851063829787234 0.46165119687347334 0.38820105902240465
0.1853191489361702 0.46114482976551124 0.3854064157596498
0.185531914893617 0.4606741573033708 0.38194593562427137
0.18574468085106383 0.45916377778485407 0.3805569125549584
0.18595744680851065 0.46753120664144115 0.3849624767940963
0.18617021276595744 0.457743038593063 0.3875710358391573
0.18638297872340426 0.4578892919984783 0.3954054937797174
0.18659574468085105 0.4581803381854752 0.4031312630525961
0.18680851063829787 0.45834898317920114 0.4107088938463479
0.1870212765957447 0.45701533218533247 0.4239566878497797
0.18723404255319148 0.4544806174926823 0.433929051320296
0.1874468085106383 0.4555782384900179 0.4446776727306946
0.1876595744680851 0.45314278887488774 0.4558161719151683
0.18787234042553191 0.4538545529586436 0.4627069270275396
0.18808510638297873 0.45509618727407897 0.46809986537626697
0.18829787234042553 0.4553445326955062 0.477893029849738
0.18851063829787235 0.450274833116358 0.48028457092224575
0.18872340425531914 0.45473356899138034 0.48124422220310836
0.18893617021276596 0.4521495785189152 0.4835492334354319
0.18914893617021278 0.4530780204653917 0.4870863325890526
0.18936170212765957 0.4505326404227604 0.49109870794520166
0.1895744680851064 0.44992672203224227 0.4973376422055076
0.18978723404255318 0.44870496249842345 0.506596857382955
0.19 0.4465113616725566 0.5175631825156429
0.1902127659574468 0.4443219968824326 0.5287564054266258
0.19042553191489361 0.44321300615791565 0.536855794410343
0.19063829787234043 0.4449841554503562 0.5397569937503073
0.19085106382978723 0.44299901539025194 0.5441646690184515
0.19106382978723405 0.4419005711471453 0.5473487126669462
0.19127659574468084 0.44179097304911674 0.543731891913685
0.19148936170212766 0.4426387676275509 0.5443305676603765
0.19170212765957448 0.44324698431975107 0.5421771917678236
0.19191489361702127 0.44205603659161347 0.5410989589485479
0.1921276595744681 0.4442278992386959 0.540791402051783
0.19234042553191488 0.43970805213474257 0.5390135780361208
0.1925531914893617 0.4401862271121863 0.5378004817795358
0.19276595744680852 0.4415863627358672 0.5353022084218725
0.19297872340425531 0.4429915515723163 0.5317298126610321
0.19319148936170213 0.43898885054752707 0.5267402618105627
0.19340425531914893 0.4362099332922478 0.5172277480936464
0.19361702127659575 0.4358986170161856 0.5031165400203355
0.19382978723404254 0.4347633932766257 0.49014313491335504
0.19404255319148936 0.43515084827922323 0.47689339347415155
0.19425531914893618 0.43331250146476713 0.47138066169291853
0.19446808510638297 0.43210209180166625 0.4620334415217522
0.1946808510638298 0.4301467560686202 0.4558296421005003
0.19489361702127658 0.42940889106008795 0.449570056334556
0.1951063829787234 0.4270410807433716 0.4498968065888262
0.19531914893617022 0.4239284410078065 0.45209426600588176
0.19553191489361701 0.4242630356000367 0.4607380423087574
0.19574468085106383 0.4278660153163692 0.4652764370670756
0.19595744680851063 0.4255793535304178 0.4750676816857756
0.19617021276595745 0.4269786817065283 0.4874549531815393
0.19638297872340427 0.43270133114722437 0.49163156445001677
0.19659574468085106 0.43826792425907446 0.4945886471123026
0.19680851063829788 0.442519989539044 0.49679304711019495
0.19702127659574467 0.4462333163020494 0.4960139727867891
0.1972340425531915 0.45490491429877783 0.49127540090385075
0.19744680851063828 0.4526786820302585 0.48745316612504624
0.1976595744680851 0.4509124284477458 0.4812439893479313
0.19787234042553192 0.4473527696049494 0.4741391965781931
0.19808510638297872 0.44943601652363135 0.4643325913823564
0.19829787234042554 0.4476260659474879 0.4582481186915259
0.19851063829787233 0.4452821010293096 0.4512646268737154
0.19872340425531915 0.4430874450415241 0.4501752720581858
0.19893617021276597 0.44376078182928375 0.44918745402140936
0.19914893617021276 0.44326752874369574 0.4471756870241061
0.19936170212765958 0.4430874450415241 0.44064967344816386
0.19957446808510637 0.44536760967930156 0.4341077543405596
0.1997872340425532 0.45188080117244755 0.42921159945573295
0.2 0.4524609956837851 0.42035558382711574
0.2002127659574468 0.4538348803126526 0.412799218368344
0.20042553191489362 0.45596264603971676 0.4080117454824496
0.20063829787234042 0.45708937278846934 0.4033521964328269
0.20085106382978724 0.45599335870368923 0.4045741033058606
0.20106382978723403 0.45935841509604874 0.41033708527230944
0.20127659574468085 0.462528617190318 0.41602919483842515
0.20148936170212767 0.460003907220759 0.425290666928302
0.20170212765957446 0.4611013479254811 0.4299587400080802
0.20191489361702128 0.46009531956846444 0.4325575757058817
0.20212765957446807 0.46171557956580045 0.43064911099209685
0.2023404255319149 0.4620214947383766 0.4280615536250821
0.2025531914893617 0.4630621386807746 0.4277263805863347
0.2027659574468085 0.4644319564486132 0.42497477061507904
0.20297872340425532 0.46458231558378116 0.41975904970167643
0.20319148936170212 0.46507524835383657 0.4143589512925047
0.20340425531914894 0.47012977107973286 0.4092998713887815
0.20361702127659576 0.47480491362305316 0.400912071765126
0.20382978723404255 0.4750459763934885 0.39334942488790553
0.20404255319148937 0.4722093758418948 0.3883629764302566
0.20425531914893616 0.4762217506361426 0.38357307105413585
0.20446808510638298 0.4747880457369314 0.3800152074369803
0.20468085106382977 0.47052915550689994 0.3776680950959025
0.2048936170212766 0.47034297601790653 0.3733113276182803
0.2051063829787234 0.46946751343429405 0.36755904026193614
0.2053191489361702 0.4691228947801454 0.3562482763871688
0.20553191489361702 0.4684904738641915 0.3428813886004779
0.20574468085106382 0.4673339577113147 0.3327218019480475
0.20595744680851064 0.4658353927127951 0.32722288442377073
0.20617021276595746 0.46638130590787186 0.3266646473832018
0.20638297872340425 0.4618398595839963 0.33151627133930606
0.20659574468085107 0.46034141306448245 0.3386485902468315
0.20680851063829786 0.45676599902296044 0.35376305635011057
0.20702127659574468 0.4561102243348436 0.37245244342251516
0.2072340425531915 0.4539097856273054 0.3916072395643145
0.2074468085106383 0.4522839739709079 0.40968274510174557
0.2076595744680851 0.45188080117244755 0.42614989123128133
0.2078723404255319 0.44779391313974654 0.4410118395152127
0.20808510638297872 0.44699560332193444 0.4534387310191052
0.20829787234042554 0.44699560332193444 0.46609280057638014
0.20851063829787234 0.44807324984501085 0.47271476840219095
0.20872340425531916 0.45087320108412415 0.4786272967795459
0.20893617021276595 0.4480383640427572 0.48483726195305493
0.20914893617021277 0.44699560332193444 0.49016771847186047
0.20936170212765956 0.44629381000581053 0.4965767305055429
0.20957446808510638 0.4526060105665144 0.5028958547965483
0.2097872340425532 0.43965783406953723 0.5121701261337539
0.21 0.4438802207949433 0.5225961778532009
0.2102127659574468 0.442322428472395 0.5257117624982974
0.2104255319148936 0.4430874450415241 0.5255133354775221
0.21063829787234042 0.4440023234478579 0.5280898876404494
0.21085106382978724 0.4421321059980353 0.5275080040037106
0.21106382978723404 0.4401563263312165 0.5249987888347499
0.21127659574468086 0.44182310071737585 0.5225149549738797
0.21148936170212765 0.44019205948018597 0.522227650219834
0.21170212765957447 0.44221823896391915 0.5184338635695454
0.2119148936170213 0.4435427689250773 0.511707876890482
0.21212765957446808 0.44328822802848583 0.5131585729801055
0.2123404255319149 0.4415821287906918 0.5134607986860296
0.2125531914893617 0.44248729759018046 0.5154579917755261
0.2127659574468085 0.4399419080204255 0.519510949820317
0.2129787234042553 0.4417238923258468 0.5211217729345397
0.21319148936170212 0.4411388184818624 0.5261085455975272
0.21340425531914894 0.4407450995545505 0.5320807981527584
0.21361702127659574 0.44408375913459974 0.5398143624816805
0.21382978723404256 0.44185791754442544 0.5427125690541063
0.21404255319148935 0.441147058326167 0.5495710657578582
0.21425531914893617 0.4420947689114532 0.5521219337529794
0.214468085106383 0.44064982044724027 0.5579793395560324
0.21468085106382978 0.43917928676111373 0.5547206545485097
0.2148936170212766 0.44009731124774654 0.552574891976484
0.2151063829787234 0.4410697872335691 0.5444452456611937
0.2153191489361702 0.4401563263312165 0.5404161221824486
0.21553191489361703 0.44298855217366145 0.5372638641102196
0.21574468085106382 0.4450103639748632 0.5300128065737885
0.21595744680851064 0.43848174664454975 0.5201350298701415
0.21617021276595744 0.43790562878983275 0.5095612011099769
0.21638297872340426 0.4382022471910112 0.4985614789264894
0.21659574468085105 0.4382022471910112 0.48938969492931295
0.21680851063829787 0.4433136309489051 0.47232013748025986
0.2170212765957447 0.44681485627715717 0.4573082401572925
0.21723404255319148 0.44992672203224227 0.44441157338734183
0.2174468085106383 0.45082252577603604 0.4336419926457337
0.2176595744680851 0.4524537597618545 0.4253981809342392
0.2178723404255319 0.45355500745360655 0.41908378051408735
0.21808510638297873 0.45465357113152666 0.41522834376223455
0.21829787234042553 0.4529270426997919 0.4128684203255858
0.21851063829787234 0.4537207783100103 0.4117841447973605
0.21872340425531914 0.4509037616023448 0.41148569442949373
0.21893617021276596 0.45175055561154076 0.41475329750854906
0.21914893617021278 0.4522069469144589 0.41312536411035533
0.21936170212765957 0.4515233022972638 0.4076519786980958
0.2195744680851064 0.4548166759257781 0.3991063962578391
0.21978723404255318 0.45810926529403995 0.39154893399423557
0.22 0.45961212375398863 0.3849750347110466
0.2202127659574468 0.4624973479043226 0.37957987298485585
0.2204255319148936 0.4587200781631655 0.37957987298485585
0.22063829787234043 0.46067269760263646 0.37957987298485585
0.22085106382978723 0.46314049669418267 0.3803861591380896
0.22106382978723405 0.46180498180470536 0.38416878221435746
0.22127659574468084 0.4636052760136786 0.39033803523930927
0.22148936170212766 0.46749434471709506 0.39539264235892263
0.22170212765957448 0.46218666047793155 0.4087971724491198
0.22191489361702127 0.4627686634925459 0.40735826209463843
0.2221276595744681 0.4655593551538837 0.41522871509541
0.22234042553191488 0.4652705420415319 0.41337684459304763
0.2225531914893617 0.466221599890611 0.4143434764318416
0.22276595744680852 0.4684904738641915 0.41484788983288257
0.2229787234042553 0.4684904738641915 0.41242920286573315
0.22319148936170213 0.469273144831124 0.4061491134265438
0.22340425531914893 0.4703760603735972 0.40044016711100705
0.22361702127659575 0.48157857182951047 0.39716658524670256
0.22382978723404254 0.4715985755227579 0.39734356819496114
0.22404255319148936 0.4748076127283291 0.3963368893790096
0.22425531914893618 0.47637935077175464 0.39355992004074547
0.22446808510638297 0.46976665227726616 0.3952125061064973
0.2246808510638298 0.46916489107060505 0.39925900934497865
0.22489361702127658 0.4678725923926296 0.40426458561044193
0.2251063829787234 0.46935424764780603 0.40958493519181605
0.22531914893617022 0.4720097185813004 0.4137762579384465
0.225531914893617 0.46672743201563416 0.4143493698133902
0.22574468085106383 0.467513434294089 0.4182889068140307
0.22595744680851063 0.4661899956258581 0.42071028205377997
0.22617021276595745 0.4657131920298865 0.4230311246973781
0.22638297872340427 0.4651699630626462 0.4282335961023578
0.22659574468085106 0.46700327409292147 0.4358647804177953
0.22680851063829788 0.46472579926788826 0.4353667842701081
0.22702127659574467 0.4663843952555175 0.43917928676111373
0.2272340425531915 0.46397114952915475 0.43979045281574014
0.22744680851063828 0.4606652845296058 0.44211040547142155
0.2276595744680851 0.4582696840778138 0.44211040547142155
0.22787234042553192 0.4588896759371304 0.44096376812735427
0.22808510638297871 0.45691059054907773 0.44085295812726405
0.22829787234042553 0.4566091404298713 0.44359390883235933
0.22851063829787233 0.4558214604907735 0.4450090231438138
0.22872340425531915 0.45676599902296044 0.44336089035471243
0.22893617021276597 0.4571966060616076 0.44644917079047913
0.22914893617021276 0.4583794143750416 0.4479726428920372
0.22936170212765958 0.4563465651272582 0.4503000986683784
0.22957446808510637 0.4577518471598363 0.4552097825642149
0.2297872340425532 0.4518883153133648 0.4638649103137817
0.23 0.44894968246213973 0.4740434124682251
0.2302127659574468 0.44703892706210646 0.48201739475502553
0.23042553191489362 0.44595006680768395 0.49231615673946744
0.23063829787234041 0.44375937601251286 0.5045175104124661
0.23085106382978723 0.44211040547142155 0.516656569923837
0.23106382978723405 0.44049164671443736 0.5262745471122944
0.23127659574468085 0.4371399970277157 0.5330602960841554
0.23148936170212767 0.43754274090929707 0.5358939843488015
0.23170212765957446 0.4382022471910112 0.5391688095568204
0.23191489361702128 0.4382022471910112 0.5406959465454977
0.23212765957446807 0.44100405523305325 0.5408560573859159
0.2323404255319149 0.4351273850352323 0.5445849814349175
0.2325531914893617 0.4340303539228457 0.5487935532194411
0.2327659574468085 0.4325511262848302 0.5478025240559008
0.23297872340425532 0.4333463302471293 0.5515681182295428
0.23319148936170211 0.4334533311660447 0.5565225786542148
0.23340425531914893 0.4316163001042181 0.5598255336459848
0.23361702127659575 0.431362970200293 0.5561132444159467
0.23382978723404255 0.4304008451954814 0.5506363705792635
0.23404255319148937 0.4289922089953653 0.5350081744801206
0.23425531914893616 0.4274149294449879 0.5152554496605377
0.23446808510638298 0.4325611171072664 0.49553386426757356
0.2346808510638298 0.42884173627098776 0.4790472196057066
0.2348936170212766 0.42940889106008795 0.47070829398627345
0.2351063829787234 0.4307249200133134 0.4665164304343532
0.2353191489361702 0.431362970200293 0.46945820920280146
0.23553191489361702 0.4331704946324489 0.47677088851694177
0.23574468085106381 0.4311623808419113 0.4892088941947276
0.23595744680851063 0.4276289953603537 0.4932648299976983
0.23617021276595745 0.42902929107467586 0.49397438287992573
0.23638297872340425 0.4316520648441143 0.49320555776057745
0.23659574468085107 0.4349580949434296 0.4910414358501219
0.23680851063829786 0.43892698666493196 0.484682741998586
0.23702127659574468 0.4401563263312165 0.4775779666030313
0.2372340425531915 0.44292949834217177 0.46983605573278286
0.2374468085106383 0.44699560332193444 0.4611265139901796
0.2376595744680851 0.4480075624780526 0.45238321790807157
0.2378723404255319 0.45220888208207793 0.4404627977644807
0.23808510638297872 0.4533103481595827 0.4280310098081806
0.23829787234042554 0.45441241046009984 0.4115530732948004
0.23851063829787233 0.45481191988275516 0.4052591796914342
0.23872340425531915 0.4539897310355085 0.40251633526578307
0.23893617021276595 0.45099957823286657 0.4048870851770015
0.23914893617021277 0.44992672203224227 0.411017035978444
0.23936170212765956 0.45034818998382437 0.41216701644097087
0.23957446808510638 0.45188080117244755 0.40819393086615635
0.2397872340425532 0.455104194500926 0.4036014475238896
0.24 0.4557895342345342 0.40087956552576287
0.2402127659574468 0.4566784362105133 0.39867592600807994
0.2404255319148936 0.45941560400275244 0.3981436248168051
0.24063829787234042 0.4568211329249297 0.39430897840568707
0.24085106382978724 0.45924386184466326 0.39228138739618945
0.24106382978723404 0.4629060885550632 0.39228138739618945
0.24127659574468086 0.4606741573033708 0.39299800142419705
0.24148936170212765 0.4606741573033708 0.39520107225899165
0.24170212765957447 0.46188859512977576 0.39801120241620735
0.2419148936170213 0.46701632664312503 0.40058336112009074
0.24212765957446808 0.46934437668971307 0.402782549178156
0.2423404255319149 0.471336084435699 0.40209453716661564
0.2425531914893617 0.4763067904250122 0.3997944455439387
0.2427659574468085 0.4767072702048592 0.39578906589675283
0.2429787234042553 0.47891026956814536 0.3916378665246826
0.24319148936170212 0.4824561283368307 0.3832814984916026
0.24340425531914894 0.4845308555385152 0.3790105819674356
0.24361702127659574 0.4848137727150415 0.3799841648731705
0.24382978723404256 0.4842861605142497 0.3805569125549584
0.24404255319148935 0.48505999275635664 0.3739987121612924
0.24425531914893617 0.4837093393251636 0.3740486496927759
0.244468085106383 0.47839451772733144 0.37593901102867355
0.24468085106382978 0.4746896688857696 0.37204976417582036
0.2448936170212766 0.4729919134601389 0.3774162707836791
0.2451063829787234 0.47108356241826804 0.38079461629197636
0.2453191489361702 0.4689414615798921 0.38454013497407025
0.24553191489361703 0.4678424673923196 0.3860901168773434
0.24574468085106382 0.4690556744315683 0.38641914997557403
0.24595744680851064 0.46768877135109793 0.39086600518356457
0.24617021276595744 0.46458231558378116 0.39242256796844843
0.24638297872340426 0.46418688377822376 0.3976394622969769
0.24659574468085105 0.4608920803374369 0.40820217517445573
0.24680851063829787 0.45834356310734375 0.41709338957974623
0.2470212765957447 0.45874147007576216 0.42849602722777497
0.24723404255319148 0.4553684159036761 0.4394019878838214
0.2474468085106383 0.45359194244946294 0.4477349931461912
0.2476595744680851 0.4538348803126526 0.4574967875583194
0.2478723404255319 0.4489499901228209 0.46067538794609547
0.24808510638297873 0.4501687070965443 0.4650662857123852
0.24829787234042552 0.4520979171138495 0.4691418216883974
0.24851063829787234 0.4525216781655713 0.4720939177284569
0.24872340425531914 0.4527985699736898 0.4729167873140833
0.24893617021276596 0.4544164839695936 0.47530665042930687
0.24914893617021278 0.4576162155151394 0.48219134735178726
0.24936170212765957 0.45543505660235306 0.4906931501074579
0.2495744680851064 0.45198969700975355 0.5069912788693298
0.24978723404255318 0.4543930281924609 0.5175383095320423
0.25 0.44952352692562325 0.5324631374203689
0.2502127659574468 0.44705135846983635 0.5451464845032888
0.25042553191489364 0.44426268787651907 0.5567994765716704
0.25063829787234043 0.4430874450415241 0.5678510752556323
0.2508510638297872 0.4418131237519093 0.5739681502294882
0.251063829787234 0.43960709168441364 0.5749877870053737
0.25127659574468086 0.43917928676111373 0.5767553336571906
0.25148936170212766 0.4382022471910112 0.5748324812016652
0.25170212765957445 0.4385049887592191 0.5688916228820291
0.2519148936170213 0.43960717663553794 0.5614625480505223
0.2521276595744681 0.4374165203122542 0.5581765635655966
0.2523404255319149 0.43676014708072375 0.554376119053754
0.2525531914893617 0.43722520762090866 0.5518850831521925
0.2527659574468085 0.4349700947749367 0.5530422458868929
0.2529787234042553 0.43079707338045486 0.5526186625805801
0.2531914893617021 0.42940889106008795 0.5505211783264543
0.25340425531914895 0.42940889106008795 0.5480277926791787
0.25361702127659574 0.42994513354156616 0.5433589541284978
0.25382978723404254 0.431362970200293 0.5343222691469723
0.2540425531914894 0.43033224947120496 0.5189207633966276
0.2542553191489362 0.4300470958298111 0.5022459782032366
0.25446808510638297 0.43108381586476696 0.484960572409366
0.25468085106382976 0.42818334553348003 0.4643168253713576
0.2548936170212766 0.424698496394925 0.4478113515202344
0.2551063829787234 0.4244610446100328 0.43250261754644953
0.2553191489361702 0.4230008148919979 0.42097942742748096
0.25553191489361704 0.4212196129688897 0.4240798091686823
0.25574468085106383 0.42341646381010184 0.42745481191988266
0.2559574468085106 0.42397745293745465 0.4334634549132063
0.2561702127659574 0.4262273335624755 0.44289343705626677
0.25638297872340426 0.4314175110210945 0.4521743825639104
0.25659574468085106 0.43325274347306997 0.45839854882602377
0.25680851063829785 0.4356065973124803 0.46165119687347334
0.2570212765957447 0.441133365901319 0.46115155717185624
0.2572340425531915 0.44142359050047536 0.45842985356400917
0.2574468085106383 0.4429331109096805 0.4573316858739335
0.25765957446808513 0.4488524237096761 0.4557020125567272
0.2578723404255319 0.4489391852289531 0.45350570137822294
0.2580851063829787 0.44776958907847214 0.4536318264990876
0.2582978723404255 0.4515551524517396 0.45473050770257817
0.25851063829787235 0.45382415056285375 0.4499535464067394
0.25872340425531914 0.4496968459326902 0.4546395789550975
0.25893617021276594 0.4479726428920372 0.4450706724604142
0.2591489361702128 0.44870040713835607 0.4399271127324649
0.2593617021276596 0.4508988715224832 0.431873495344722
0.25957446808510637 0.4537000967827046 0.42320978882928273
0.2597872340425532 0.45481191988275516 0.41552506770076125
0.26 0.4598934693872601 0.40700085859910673
0.2602127659574468 0.45970547666614914 0.40208521882873893
0.2604255319148936 0.46153393453463937 0.3935318925033909
0.26063829787234044 0.4609161619655207 0.38716320580502944
0.26085106382978723 0.4609197928095488 0.38129381907349247
0.261063829787234 0.45969711773326827 0.3776257938446508
0.2612765957446809 0.4584593227149439 0.37886358886297505
0.26148936170212767 0.457743038593063 0.38106870048622055
0.26170212765957446 0.45600449227697004 0.3824032252831076
0.26191489361702125 0.457743038593063 0.38251099169516367
0.2621276595744681 0.45760338959843305 0.38237134270053375
0.2623404255319149 0.4572983191073867 0.3810016320406348
0.2625531914893617 0.4579381102946229 0.37957987298485585
0.26276595744680853 0.45779717724820224 0.378033105646993
0.2629787234042553 0.46129111699896996 0.3740777154387436
0.2631914893617021 0.46262823644357587 0.37043528870403647
0.26340425531914896 0.46441305090637564 0.36713225558963053
0.26361702127659575 0.4655593551538837 0.36586951914213844
0.26382978723404255 0.46572238164653756 0.36404505575880675
0.26404255319148934 0.47018955259017253 0.3671333589877463
0.2642553191489362 0.4684904738641915 0.3716167650083072
0.264468085106383 0.46924590102572133 0.37844673224256103
0.26468085106382977 0.4694388912098024 0.37866007786373646
0.2648936170212766 0.4697488052438839 0.38181524393465094
0.2651063829787234 0.4712007681590941 0.38251099169516367
0.2653191489361702 0.4723005813844064 0.3772370588357209
0.265531914893617 0.47039443596209035 0.3687322036291149
0.26574468085106384 0.4684904738641915 0.36522547732408894
0.26595744680851063 0.4684904738641915 0.36964662397363884
0.2661702127659574 0.46808720492861866 0.3810847125658496
0.2663829787234043 0.4664636720762834 0.3957942872881207
0.26659574468085107 0.4655593551538837 0.41336043214762863
0.26680851063829786 0.46324989615690554 0.4309785704395092
0.2670212765957447 0.4635203429310153 0.4467835797347505
0.2672340425531915 0.45959104143171037 0.4591090246022111
0.2674468085106383 0.45661131090081386 0.47101439465575984
0.2676595744680851 0.45633630311290935 0.4833429865857062
0.26787234042553193 0.4569504642511065 0.4978563743966412
0.2680851063829787 0.45527003422939877 0.5078153001755573
0.2682978723404255 0.45481191988275516 0.5172574720417307
0.26851063829787236 0.4517470004800243 0.5241047203330422
0.26872340425531915 0.4544675397552133 0.5251587689301416
0.26893617021276595 0.4510201211471106 0.5223052232496779
0.26914893617021274 0.45367213874203793 0.5245072125012684
0.2693617021276596 0.45199631393144485 0.5284332133298582
0.2695744680851064 0.44992672203224227 0.5355964918035623
0.26978723404255317 0.44885695460269165 0.5421393530596782
0.27 0.44862971985032857 0.542391215110839
0.2702127659574468 0.44738725688562403 0.5392289764752675
0.2704255319148936 0.44609776183958977 0.5370416399468885
0.27063829787234045 0.4461156594591421 0.5367861480640624
0.27085106382978724 0.4469064017699599 0.5342183372164494
0.27106382978723403 0.442720123338953 0.5291918527481629
0.2712765957446808 0.44406448461162684 0.5230132245035366
0.2714893617021277 0.4413039804836698 0.5164088653004889
0.27170212765957447 0.43917928676111373 0.5107207947130373
0.27191489361702126 0.4399792993364863 0.5095261358085001
0.2721276595744681 0.4410741979876446 0.5058546491827877
0.2723404255319149 0.4379557156671666 0.5006095139156547
0.2725531914893617 0.4350561560115755 0.49816904685659213
0.2727659574468085 0.43835140553862445 0.49404266103447214
0.27297872340425533 0.43544924011559843 0.49114049561144596
0.2731914893617021 0.4358649507515392 0.4884144825655101
0.2734042553191489 0.43657836226932134 0.4864073803445533
0.27361702127659576 0.4354798895744285 0.4814675152677733
0.27382978723404255 0.4352711284807034 0.48200040688855095
0.27404255319148935 0.4353105345439323 0.4781032453123016
0.2742553191489362 0.43639651465388674 0.47420436468172633
0.274468085106383 0.4370432639508586 0.47264789703450405
0.2746808510638298 0.4359429974274279 0.46885717218753775
0.27489361702127657 0.438284527867407 0.46923537680077676
0.2751063829787234 0.43935147857237966 0.47197337795430766
0.2753191489361702 0.43722520762090866 0.47104960307622384
0.275531914893617 0.4364280714407518 0.47682164244565206
0.27574468085106385 0.4371679690005593 0.48194007336423017
0.27595744680851064 0.4352711284807034 0.48536729308950066
0.27617021276595743 0.43545837033529367 0.4895700304001166
0.2763829787234042 0.43624816805080613 0.49193942354665365
0.2765957446808511 0.4366825278775068 0.4923737833733543
0.27680851063829787 0.4377822940710861 0.48901685796551386
0.27702127659574466 0.44092361667943447 0.4799541047770857
0.2772340425531915 0.4404995909017806 0.47406220085583267
0.2774468085106383 0.4429496476732488 0.46778902903063957
0.2776595744680851 0.44129771754638425 0.4692209859666962
0.27787234042553194 0.4430874450415241 0.4665363947239862
0.27808510638297873 0.4430874450415241 0.4665363947239862
0.2782978723404255 0.44445036555945155 0.4660820878846771
0.2785106382978723 0.4483308670776779 0.4655593551538837
0.27872340425531916 0.4471200916931757 0.4627527248148171
0.27893617021276595 0.4460185637518319 0.4608248297739591
0.27914893617021275 0.4460185637518319 0.45877134577451184
0.2793617021276596 0.4472882776637234 0.45217493394504255
0.2795744680851064 0.4501465323307045 0.44469970196105857
0.2797872340425532 0.451597818615769 0.43807415529094396
0.27999999999999997 0.45379992755065196 0.432409915294397
0.2802127659574468 0.45481191988275516 0.4285964457774661
0.2804255319148936 0.4562506074474755 0.4267354681375226
0.2806382978723404 0.4584509896541177 0.42395028640304405
0.28085106382978725 0.4587200781631655 0.42161041893989915
0.28106382978723404 0.45992105099852526 0.42256961406936977
0.28127659574468084 0.4621194452057057 0.42256961406936977
0.2814893617021277 0.46289070484205247 0.42256961406936977
0.2817021276595745 0.46165119687347334 0.42256961406936977
0.28191489361702127 0.4610483026837764 0.42256961406936977
0.28212765957446806 0.4642995681977009 0.41821912099617364
0.2823404255319149 0.4655593551538837 0.41165964821585543
0.2825531914893617 0.46652000995380954 0.4031599008287313
0.2827659574468085 0.4665363947239862 0.3932260986483665
0.28297872340425534 0.4674730035108892 0.38263228404476246
0.28319148936170213 0.4707794776069172 0.3703683895390349
0.2834042553191489 0.4705432253631201 0.362190505440456
0.2836170212765957 0.46891211330046667 0.3567066807798397
0.28382978723404256 0.4711954927461704 0.3528243347211991
0.28404255319148936 0.4676176103476097 0.35301960198814863
0.28425531914893615 0.4665363947239862 0.3541164737576763
0.284468085106383 0.4654983277077055 0.35881733179673725
0.2846808510638298 0.4651304147177063 0.37108837526298866
0.2848936170212766 0.46720828363763633 0.37970026083907427
0.2851063829787234 0.4669647502312952 0.38641914997557403
0.2853191489361702 0.4686229394169189 0.3842001397299141
0.285531914893617 0.47082793027469516 0.3797901580143616
0.2857446808510638 0.47142159257449934 0.37699754689868
0.28595744680851065 0.4686310501941915 0.3775789350679841
0.28617021276595744 0.46735913208567376 0.38176540543768395
0.28638297872340424 0.4649732656200594 0.3854418867250759
0.2865957446808511 0.4613610704842955 0.3912510176248024
0.2868085106382979 0.4604854786824306 0.39874330714502754
0.28702127659574467 0.45867728368193555 0.4058509317827754
0.28723404255319146 0.4544469847113837 0.41395290685446484
0.2874468085106383 0.45226982184318093 0.4214025520571697
0.2876595744680851 0.45006788639694023 0.4334471027224131
0.2878723404255319 0.449816397758928 0.4376665047141656
0.28808510638297874 0.44833404352490613 0.44431872291599145
0.28829787234042553 0.4502320360865412 0.4420493080642159
0.2885106382978723 0.4517551219051485 0.44406448461162684
0.28872340425531917 0.45176396017982157 0.4418767234861699
0.28893617021276596 0.4509037616023448 0.4381458903551905
0.28914893617021276 0.4501144956997674 0.43248961220544385
0.28936170212765955 0.4462967060943088 0.4268254502778763
0.2895744680851064 0.44396366894540384 0.41157013963268374
0.2897872340425532 0.4414164514633494 0.405375584429566
0.29 0.43790852029838556 0.39990598617255885
0.2902127659574468 0.4360566817125403 0.40829045723477103
0.2904255319148936 0.43336014988618415 0.4254935962893417
0.2906382978723404 0.4335019523244567 0.44942560443854923
0.2908510638297872 0.43500144826126186 0.47613438171025085
0.29106382978723405 0.4352711284807034 0.5056503547821652
0.29127659574468084 0.4371858477741747 0.5267586094497412
0.29148936170212764 0.43701709525649896 0.5462198691350071
0.2917021276595745 0.43572761379684183 0.567171470444553
0.2919148936170213 0.4375778992941187 0.5706983871766538
0.29212765957446807 0.4382022471910112 0.5774160188459686
0.2923404255319149 0.4370112416492717 0.5844694361952492
0.2925531914893617 0.4376819024405658 0.5822145362328909
0.2927659574468085 0.43988403343343063 0.5765094123710479
0.2929787234042553 0.4362995349223629 0.5759648265754762
0.29319148936170214 0.435596424766181 0.5712964929152817
0.29340425531914893 0.4386635343906796 0.5721111334658318
0.2936170212765957 0.4405086278114391 0.5673640421836448
0.29382978723404257 0.441133365901319 0.5637693045175527
0.29404255319148936 0.4399516172498761 0.559718066209814
0.29425531914893616 0.43917928676111373 0.5531239792704993
0.29446808510638295 0.4415716845552866 0.5491464395287387
0.2946808510638298 0.4411998795931019 0.5404129857077268
0.2948936170212766 0.4382022471910112 0.5297179417198729
0.2951063829787234 0.43855513468988544 0.5232995106128535
0.29531914893617023 0.4389713998555787 0.5181116050338884
0.295531914893617 0.4358315427181811 0.5141384972312408
0.2957446808510638 0.43473260810083764 0.5086876118597474
0.29595744680851066 0.4323289669012359 0.5023427741791483
0.29617021276595745 0.4329031783536523 0.49611215521749946
0.29638297872340424 0.4359827521405292 0.48865056905688947
0.29659574468085104 0.4410685216628555 0.48269215774648566
0.2968085106382979 0.4396413428666462 0.46823536381954084
0.2970212765957447 0.44349722021785426 0.45915493032989446
0.29723404255319147 0.44699560332193444 0.45165149345440986
0.2974468085106383 0.4464710117222504 0.44887753883287423
0.2976595744680851 0.4498952800226523 0.44861876227050723
0.2978723404255319 0.4503412214559322 0.4466403128873668
0.29808510638297875 0.44992672203224227 0.4460185637518319
0.29829787234042554 0.44708240652821507 0.44708240652821507
0.29851063829787233 0.4487878629704339 0.44927332144555143
0.2987234042553191 0.4479726428920372 0.4509037616023448
0.298936170212766 0.44960514869502777 0.4504956351515972
0.29914893617021276 0.4492284374295769 0.44727435828937173
0.29936170212765956 0.44764687947949533 0.4404825910788041
0.2995744680851064 0.4502986677688405 0.4335501974374044
0.2997872340425532 0.4535939518473904 0.4269596292803046
0.3 0.4579599823446529 0.4215057969986313
0.3002127659574468 0.46228603149594283 0.41963849535906195
0.30042553191489363 0.4609670219509617 0.4187599014162893
0.3006382978723404 0.4620691940449322 0.41587138230583653
0.3008510638297872 0.46589016596175314 0.4131223327494604
0.30106382978723406 0.4651509919875193 0.408482696921569
0.30127659574468085 0.46439852202465626 0.4045572429147953
0.30148936170212765 0.46181546151820335 0.40031672348331687
0.3017021276595745 0.4632679603161067 0.3877660608601496
0.3019148936170213 0.45946615035128063 0.37640906618536646
0.3021276595744681 0.46231633353216645 0.36078687991324565
0.30234042553191487 0.4612158129928293 0.35308323613788534
0.3025531914893617 0.46123246225198633 0.3509665611575222
0.3027659574468085 0.4596001105776324 0.35495754674977126
0.3029787234042553 0.4619481123676619 0.3561309233023937
0.30319148936170215 0.46262823644357587 0.3589247830010997
0.30340425531914894 0.46458231558378116 0.36346278556132505
0.30361702127659573 0.4641676829062234 0.3698690194076216
0.3038297872340425 0.46329154004790235 0.37670250178370934
0.3040425531914894 0.46458231558378116 0.38434284835675325
0.30425531914893617 0.46458231558378116 0.38757941949634866
0.30446808510638296 0.46598935193644014 0.3940013745264153
0.3046808510638298 0.46819643402125005 0.39784958497386363
0.3048936170212766 0.4684904738641915 0.39909759968849606
0.3051063829787234 0.4684904738641915 0.4044204581400123
0.30531914893617024 0.4680349885577359 0.4076862778646031
0.30553191489361703 0.467945841006167 0.4083464272299091
0.3057446808510638 0.4680614804605439 0.413704826280762
0.3059574468085106 0.4655593551538837 0.4209099125015423
0.30617021276595746 0.4655593551538837 0.42716656333259845
0.30638297872340425 0.46395367025173945 0.4356574335496348
0.30659574468085105 0.4645198606556153 0.4417981308305922
0.3068085106382979 0.4614709082210412 0.4483933164143789
0.3070212765957447 0.45945109473865564 0.456456707177608
0.3072340425531915 0.4617117211964623 0.46513280142553465
0.30744680851063827 0.4579912519844572 0.4684904738641915
0.3076595744680851 0.4574397396644415 0.46298787315891243
0.3078723404255319 0.4587200781631655 0.4485983584525368
0.3080851063829787 0.4587200781631655 0.43049006935669915
0.30829787234042555 0.4614853790575091 0.4117847735186029
0.30851063829787234 0.46101871466445526 0.39779906745572063
0.30872340425531913 0.46536741102635787 0.39421814760392127
0.308936170212766 0.46552511094648485 0.40128627602581735
0.3091489361702128 0.4666334423263758 0.41583394822724884
0.30936170212765957 0.4638682313083611 0.43282893611027545
0.30957446808510636 0.46331259231605265 0.4532580763854984
0.3097872340425532 0.4652183812405952 0.47582817000243505
0.31 0.4627692788572371 0.49039821432190606
0.3102127659574468 0.46165119687347334 0.5013618909617098
0.31042553191489364 0.46204785782043023 0.5095407486057898
0.31063829787234043 0.46068297493188515 0.5137589942091099
0.3108510638297872 0.4539048628762785 0.5157719191687282
0.311063829787234 0.4522748853494114 0.5202572293350147
0.31127659574468086 0.44903861323098154 0.5229381972052004
0.31148936170212765 0.4488092269436869 0.5223681057382868
0.31170212765957445 0.444136251467101 0.5203022778218184
0.3119148936170213 0.44080250526166087 0.5214987561294748
0.3121276595744681 0.43682607735456996 0.5239821642268697
0.3123404255319149 0.4352711284807034 0.5241725983783361
0.3125531914893617 0.43260263572631996 0.525691059707847
0.3127659574468085 0.42883951245887436 0.5257281475313553
0.3129787234042553 0.4284318514899854 0.5289180419673939
0.3131914893617021 0.4243360673309488 0.5251290257898108
0.31340425531914895 0.42166581614241677 0.5223008918629835
0.31361702127659574 0.4197262576479804 0.5258725216334891
0.31382978723404253 0.420826325613607 0.5240478525277057
0.3140425531914894 0.42091816645730556 0.5274500520913277
0.3142553191489362 0.41871896352440163 0.5285496535577796
0.31446808510638297 0.4165194290679793 0.5296494207859908
0.31468085106382976 0.4171461817413313 0.5265043551239555
0.3148936170212766 0.41934652895815777 0.5234966561908406
0.3151063829787234 0.42249848558533504 0.5222513597145122
0.3153191489361702 0.42461898738830967 0.5212506106497312
0.31553191489361704 0.42594252141584976 0.5212506106497312
0.31574468085106383 0.42745481191988266 0.5198685395400474
0.3159574468085106 0.4312160430734978 0.5154618367925133
0.31617021276595747 0.4352711284807034 0.5134342940889105
0.31638297872340426 0.43598772144695624 0.5105679222238996
0.31659574468085105 0.4370876914945705 0.5019704248146207
0.31680851063829785 0.44107345013206667 0.4939983552830503
0.3170212765957447 0.44538139764559925 0.4911463854642907
0.3172340425531915 0.4484513853145303 0.4822276920209764
0.3174468085106383 0.4510229711359299 0.46899067529995403
0.3176595744680851 0.4518743335513625 0.4591924288955045
0.3178723404255319 0.4515215395375245 0.453059331411883
0.3180851063829787 0.45188080117244755 0.44941805740586094
0.3182978723404255 0.4510124637420337 0.4446079953100711
0.31851063829787235 0.45184236116833987 0.44124868591364197
0.31872340425531914 0.45204323275884817 0.4388519735366136
0.31893617021276593 0.4532233230176094 0.4443877442983834
0.3191489361702128 0.4509037616023448 0.43755251796212785
0.3193617021276596 0.4513498905730761 0.43267913628495625
0.31957446808510637 0.45188080117244755 0.4284318514899854
0.3197872340425532 0.45326683665796363 0.42427374503343696
0.32 0.46037259166718736 0.41439747487620143
0.3202127659574468 0.45505685850857663 0.4071469283412896
0.3204255319148936 0.4605815664276977 0.40326513523203583
0.32063829787234044 0.45948105103982273 0.39532527890281777
0.32085106382978723 0.4600797004545438 0.39092176510481114
0.321063829787234 0.45983977765018347 0.3865142565868508
0.32127659574468087 0.4608638807049514 0.38739212917964805
0.32148936170212766 0.45936838723137985 0.3921748612074143
0.32170212765957445 0.456085435815466 0.3990600366878817
0.32191489361702125 0.4548383618304605 0.402949496824202
0.3221276595744681 0.4550144031797429 0.40724070589320993
0.3223404255319149 0.4583527131586103 0.41145481379368604
0.3225531914893617 0.4622189021714673 0.41774715703041276
0.3227659574468085 0.45922659456701614 0.41963849535906195
0.3229787234042553 0.4616911397553787 0.41785585840373424
0.3231914893617021 0.4636052760136786 0.41238813455593115
0.32340425531914896 0.4669795756658942 0.409157989402031
0.32361702127659575 0.46461509958807723 0.4021282791072396
0.32382978723404254 0.4638339941070795 0.39177175935918657
0.32404255319148934 0.4665177244609945 0.3781609892871814
0.3242553191489362 0.46764236632264977 0.36713622263064394
0.324468085106383 0.46555877737237034 0.35759850489284434
0.32468085106382977 0.4695878507087302 0.35051509698049593
0.3248936170212766 0.4692261767873983 0.348314606741573
0.3251063829787234 0.4693448438011292 0.3525864564262616
0.3253191489361702 0.4714200468893858 0.3620070718890311
0.325531914893617 0.4705696808332378 0.37203779514234453
0.32574468085106384 0.47142159257449934 0.38281674316874875
0.32595744680851063 0.47067519894843857 0.3908430559380033
0.3261702127659574 0.46946751343429405 0.3907715949397146
0.32638297872340427 0.46946751343429405 0.3889951934293871
0.32659574468085106 0.4679724122552322 0.3908453698649437
0.32680851063829786 0.46490410544109806 0.397392781816399
0.3270212765957447 0.46458231558378116 0.4001645797407192
0.3272340425531915 0.46444111695129847 0.40471185539983395
0.3274468085106383 0.46280266754947946 0.40915859624266665
0.3276595744680851 0.45949932721543435 0.41025970968734826
0.3278723404255319 0.4603365761389043 0.4118825542464753
0.3280851063829787 0.4594362029700746 0.4083303715054421
0.3282978723404255 0.45623508034816107 0.4059599413776258
0.32851063829787236 0.4540358919443534 0.4059599413776258
0.32872340425531915 0.4518588440829003 0.4040058622374205
0.32893617021276594 0.4511898431000375 0.4052932289770377
0.32914893617021274 0.45419028490943536 0.4181289950358851
0.3293617021276596 0.45617863119353036 0.4393798430682925
0.3295744680851064 0.45178218341682336 0.4596770322874313
0.32978723404255317 0.4480241028491542 0.4805403953570824
0.33 0.445484868630882 0.4961186338424561
0.3302127659574468 0.4494341091974688 0.5075638705688507
0.3304255319148936 0.4489903110823106 0.5160403838378513
0.33063829787234045 0.4455343481332902 0.5255622819455931
0.33085106382978724 0.44036093693889766 0.5302485773883359
0.33106382978723403 0.44146384472374933 0.5316819639956178
0.3312765957446808 0.44211040547142155 0.5338681132129139
0.33148936170212767 0.44211040547142155 0.5360308163919996
0.33170212765957446 0.4407686271152979 0.5389038887295715
0.33191489361702126 0.4344908528245193 0.5451397366387012
0.3321276595744681 0.43975381797146496 0.5492073052480486
0.3323404255319149 0.433996624083703 0.5569343197378113
0.3325531914893617 0.4341351579516057 0.5631955735927107
0.3327659574468085 0.433695010807843 0.5687475881174134
0.33297872340425533 0.4323400097703958 0.5726740470378506
0.3331914893617021 0.4330961652917906 0.574766902956666
0.3334042553191489 0.430748689887026 0.5767000266410219
0.33361702127659576 0.4303859306301905 0.5681972184683014
0.33382978723404255 0.4306116659532725 0.5618348019478762
0.33404255319148934 0.4323400097703958 0.5581444934216849
0.3342553191489362 0.4319869554539059 0.5535174772621396
0.334468085106383 0.431362970200293 0.5457104996341332
0.3346808510638298 0.431362970200293 0.5417293241597313
0.33489361702127657 0.43279505719384287 0.5383822754881308
0.3351063829787234 0.4349942151268649 0.5370217004482919
0.3353191489361702 0.43719127882341086 0.5340030182573118
0.335531914893617 0.438417238834253 0.5347141729879258
0.33574468085106385 0.439012381454168 0.5320599295893236
0.33595744680851064 0.4352711284807034 0.5262976164286955
0.33617021276595743 0.4352711284807034 0.5137738764498372
0.3363829787234042 0.4382074215003454 0.4968090984691641
0.33659574468085107 0.4401563263312165 0.47402623992985504
0.33680851063829786 0.44181059693507296 0.45427926946323627
0.33702127659574466 0.4440113987827795 0.4338213647145482
0.3372340425531915 0.44485291479656874 0.4141271573047864
0.3374468085106383 0.4439380178602462 0.39741951874946335
0.3376595744680851 0.44566517261009825 0.3893087017583327
0.33787234042553194 0.4453545204722841 0.3809079595439516
0.33808510638297873 0.4479726428920372 0.3756717147044455
0.3382978723404255 0.4493633333775741 0.36941360751952895
0.3385106382978723 0.44582564409124786 0.36687835857352225
0.33872340425531916 0.44975422330435644 0.3715910576961493
0.33893617021276595 0.4500190600239393 0.38050325290182635
0.33914893617021274 0.4509037616023448 0.39106723442728314
0.3393617021276596 0.4512391730706766 0.3985082311200297
0.3395744680851064 0.4527917201958703 0.40335204108566985
0.3397872340425532 0.4526828816822547 0.4082639386384218
0.34 0.454673278596264 0.41405681579376075
0.3402127659574468 0.45988976613991067 0.42311178911534675
0.3404255319148936 0.456895461313145 0.4292470631973572
0.3406382978723404 0.45703580090226653 0.4322500758106271
0.34085106382978725 0.45927142911887925 0.431362970200293
0.34106382978723404 0.45841131544018165 0.4316971086238524
0.34127659574468083 0.4601527594068034 0.4327956514439309
0.3414893617021277 0.45893892437371786 0.4333170493404983
0.3417021276595745 0.4563440920525213 0.42981968298914386
0.34191489361702126 0.4557889594528579 0.4243198886222988
0.34212765957446806 0.4576833588721549 0.41881065509122967
0.3423404255319149 0.45870717454288135 0.4138407760398673
0.3425531914893617 0.45676599902296044 0.4072079939719225
0.3427659574468085 0.4565582390175207 0.39677354386997404
0.34297872340425534 0.4561183806055805 0.37919433239180694
0.34319148936170213 0.45676599902296044 0.36248356448302776
0.3434042553191489 0.45618964945676993 0.3447795915408615
0.34361702127659577 0.4557889594528579 0.32848479326691493
0.34382978723404256 0.4590775049594632 0.31828856604590033
0.34404255319148935 0.45969711773326827 0.31610789288085633
0.34425531914893615 0.4623713048230843 0.32253404546328346
0.344468085106383 0.46090521871635187 0.3307873169779939
0.3446808510638298 0.46459293711728267 0.34144346515035023
0.3448936170212766 0.4617403316635635 0.35088918629152016
0.3451063829787234 0.4635028455656741 0.3613769979093586
0.3453191489361702 0.46831927244448524 0.36728127764872043
0.345531914893617 0.46783737813473913 0.37274580404228996
0.3457446808510638 0.467513434294089 0.38589018407145026
0.34595744680851065 0.4684110341901119 0.3870546673682112
0.34617021276595744 0.4679168540613012 0.39605085548884966
0.34638297872340423 0.4685448012903365 0.4073348126724533
0.3465957446808511 0.46614473148894464 0.4174907031188375
0.3468085106382979 0.4655593551538837 0.42382504547314503
0.34702127659574467 0.46300398557538164 0.43418143304161505
0.3472340425531915 0.46317674825688987 0.4440901888462827
0.3474468085106383 0.4618383821057255 0.45220269242966754
0.3476595744680851 0.45498996148640564 0.45801010099853867
0.3478723404255319 0.4600646103385528 0.46638400798278173
0.34808510638297874 0.45649124565767296 0.46748262871089613
0.34829787234042553 0.4557889594528579 0.47319891731727526
0.3485106382978723 0.45474345134623534 0.4753982193914295
0.34872340425531917 0.4564103728362881 0.4756629172941034
0.34893617021276596 0.4562132638560683 0.4791541876973966
0.34914893617021275 0.45224280991968197 0.4873072477717745
0.34936170212765955 0.4480640625104525 0.49792355379182285
0.3495744680851064 0.45013776405813377 0.5026290163007326
0.3497872340425532 0.4457435368602268 0.5078470835599003
0.35 0.4450415241817294 0.5089473039814586
0.3502127659574468 0.44712058126665255 0.5090063715372694
0.3504255319148936 0.44512464239817456 0.5117366296250352
0.3506382978723404 0.4430874450415241 0.5157051173877432
0.35085106382978726 0.44396239699164824 0.5163654127992183
0.35106382978723405 0.4441066890439331 0.5173002479370147
0.35127659574468084 0.4458745656457617 0.5159643656533965
0.35148936170212763 0.4439573956904035 0.5198385957551891
0.3517021276595745 0.44390459173355507 0.5240218364819673
0.3519148936170213 0.4444354746251767 0.530111126650084
0.35212765957446807 0.4387007183074252 0.5338225316162801
0.3523404255319149 0.43650245111964003 0.542156729643854
0.3525531914893617 0.4337213847028879 0.5463840825641388
0.3527659574468085 0.4333170493404983 0.5485828233273202
0.3529787234042553 0.43256433536451433 0.5508982861439868
0.35319148936170214 0.43429408891060084 0.5546660779594809
0.35340425531914893 0.43429408891060084 0.5594549132320246
0.3536170212765957 0.4338102594504366 0.562276891944266
0.35382978723404257 0.4327103583167517 0.560836548069156
0.35404255319148936 0.43453235631610887 0.5549704607923058
0.35425531914893615 0.4318506951026649 0.5534929164631168
0.354468085106383 0.4333077686916127 0.547658520989158
0.3546808510638298 0.4323400097703958 0.5422769626879687
0.3548936170212766 0.43282027654876987 0.5381169227440167
0.3551063829787234 0.43429408891060084 0.5366334008055432
0.3553191489361702 0.43429408891060084 0.5388354013315763
0.355531914893617 0.4318564876974985 0.5398143624816805
0.3557446808510638 0.43917069405583564 0.5368861080064654
0.35595744680851066 0.43440301748178767 0.5324806984280994
0.35617021276595745 0.4352767770037809 0.5280729420712167
0.35638297872340424 0.43734833063989315 0.5203808049350664
0.35659574468085103 0.4382022471910112 0.5053602297556241
0.3568085106382979 0.43857016406184174 0.4921561968624218
0.3570212765957447 0.44114610883981276 0.47529152203942804
0.35723404255319147 0.4418565912167553 0.4645440981352187
0.3574468085106383 0.4426091768167604 0.4527963313808248
0.3576595744680851 0.4448155481587561 0.4395581033288507
0.3578723404255319 0.4421331821357373 0.4381794705266954
0.35808510638297875 0.44406448461162684 0.4358417089754842
0.35829787234042554 0.4445850256790499 0.4327965082730752
0.35851063829787233 0.4456403689957155 0.4298501911758274
0.3587234042553191 0.4485481466216769 0.4279557579827324
0.35893617021276597 0.4506279480661207 0.4284318514899854
0.35914893617021276 0.4469247866362325 0.4239289483959706
0.35936170212765955 0.45126478161998845 0.4155746569118279
0.3595744680851064 0.45583246740744815 0.40969406783967516
0.3597872340425532 0.457743038593063 0.40100748706801514
0.36 0.45801725875263777 0.3908249835533008
0.3602127659574468 0.45832809064925994 0.3740920477901773
0.3604255319148936 0.4582451316525255 0.35887201617094405
0.3606382978723404 0.4587200781631655 0.3461144619047126
0.3608510638297872 0.4579972309667996 0.33666959175003003
0.36106382978723406 0.457743038593063 0.3363213219570114
0.36127659574468085 0.45967216294025953 0.34044838059473487
0.36148936170212764 0.4649042328337923 0.35548708880237145
0.3617021276595745 0.46016142245022984 0.3686871473051892
0.3619148936170213 0.4630687921445545 0.3811697820223536
0.3621276595744681 0.46508041303948133 0.39074878434649324
0.36234042553191487 0.46458231558378116 0.39423546653639474
0.3625531914893617 0.4666026232844911 0.3969292101373413
0.3627659574468085 0.4706951176563037 0.39655278313569764
0.3629787234042553 0.4686743962878689 0.39802100986768685
0.36319148936170215 0.47136024339217414 0.39411276817174434
0.36340425531914894 0.4700805176661533 0.39155331671970284
0.36361702127659573 0.4697056691505022 0.3871580338294684
0.3638297872340425 0.47367309401555435 0.38276578834076547
0.36404255319148937 0.4753297508549097 0.3816564121943398
0.36425531914893616 0.4726254381934756 0.38115883536444656
0.36446808510638296 0.4690113336727366 0.3805569125549584
0.3646808510638298 0.47219879891650635 0.38333815634419455
0.3648936170212766 0.47247120857395813 0.3831977255478411
0.3651063829787234 0.4733756717147044 0.37858774392571404
0.36531914893617023 0.4740205394438919 0.3727600719467805
0.365531914893617 0.47577553699738 0.36749507928631636
0.3657446808510638 0.4740354549141686 0.3664691528811306
0.3659574468085106 0.4682610216478332 0.36687835857352225
0.36617021276595746 0.4673461697863009 0.3693076837604659
0.36638297872340425 0.4693692750592552 0.3744490791967458
0.36659574468085104 0.46901387286147384 0.3945437419226161
0.3668085106382979 0.4634047495708792 0.41407915495682324
0.3670212765957447 0.4616551804172041 0.434926858753259
0.3672340425531915 0.4587991262031454 0.45124841685260925
0.36744680851063827 0.4560222117918612 0.46772764280554313
0.3676595744680851 0.45202013789638845 0.48524074515676296
0.3678723404255319 0.45419019457492155 0.48998534440644836
0.3680851063829787 0.45481191988275516 0.5003644821859813
0.36829787234042555 0.4551536480898102 0.5106740394821304
0.36851063829787234 0.4570856123718485 0.5134787956383811
0.36872340425531913 0.4509037616023448 0.5176696150681248
0.368936170212766 0.4500043287726289 0.524615521747435
0.36914893617021277 0.45237690143552256 0.5285708269474769
0.36936170212765956 0.45134522548109446 0.5302958417822372
0.36957446808510636 0.4466705644213508 0.5336261247263056
0.3697872340425532 0.44320143638527043 0.5330130826055444
0.37 0.44379707952275366 0.5249804988708928
0.3702127659574468 0.4413447662817134 0.5221476878879646
0.37042553191489364 0.4414383606915246 0.5163033575997327
0.3706382978723404 0.43969131944187356 0.5105972269614365
0.3708510638297872 0.43977121499960736 0.5067733115229169
0.371063829787234 0.4394405279186334 0.5027547838777581
0.37127659574468086 0.43750316170531744 0.49249113144079965
0.37148936170212765 0.44204676191705594 0.4822835862434857
0.37170212765957444 0.43798032489618405 0.4752187897074961
0.3719148936170213 0.4352906332022559 0.4733951764362567
0.3721276595744681 0.4330628621662072 0.4700831268064909
0.3723404255319149 0.43429408891060084 0.4713946488436392
0.3725531914893617 0.43489801189206995 0.4782070555664573
0.3727659574468085 0.4352711284807034 0.48700481980092153
0.3729787234042553 0.4327231827223803 0.495802826858541
0.3731914893617021 0.43428087141363503 0.49973591386202565
0.37340425531914895 0.4394151355915768 0.5074204880048133
0.37361702127659574 0.43919698311637356 0.5148865811776197
0.37382978723404253 0.43441700590184174 0.5196631836966406
0.3740425531914894 0.4357556638942424 0.5217510835493196
0.37425531914893617 0.43350655272575095 0.5243810736265715
0.37446808510638296 0.4350928143162132 0.5251587689301416
0.37468085106382976 0.4370592941050728 0.5267810210386752
0.3748936170212766 0.44189930477225225 0.5261780286400782
0.3751063829787234 0.43454079565552456 0.521898707893269
0.3753191489361702 0.4370200323915657 0.5174987910220519
0.37553191489361704 0.4359165924694992 0.5124218801711721
0.37574468085106383 0.43618497669894224 0.5035229310380841
0.3759574468085106 0.4360572439896509 0.49312980644223825
0.37617021276595747 0.43668473914587325 0.48574451241093897
0.37638297872340426 0.4380580645326992 0.4741288240443461
0.37659574468085105 0.44012165051370217 0.4656807205151839
0.37680851063829784 0.43917928676111373 0.45654802490230656
0.3770212765957447 0.43941390248640555 0.44699560332193444
0.3772340425531915 0.4405149998416462 0.4434088682176369
0.3774468085106383 0.4420955438427396 0.4353008517380675
0.3776595744680851 0.4430874450415241 0.42970736725003195
0.3778723404255319 0.44018843263092644 0.4216567870986874
0.3780851063829787 0.4425753193442513 0.41624246277592436
0.37829787234042556 0.4440606356656825 0.4147571464544934
0.37851063829787235 0.44133796290244887 0.4117198802976763
0.37872340425531914 0.4439744949131001 0.4110669016960327
0.37893617021276593 0.44699560332193444 0.4125102504551958
0.3791489361702128 0.44746275831071214 0.4147105679160017
0.3793617021276596 0.4479726428920372 0.41218805581239665
0.37957446808510636 0.4551109893370157 0.40915426501353835
0.3797872340425532 0.457743038593063 0.4122452572831205
0.38 0.4548566958430874 0.412799218368344
0.3802127659574468 0.46230234973457085 0.4122566944102479
0.3804255319148936 0.45969711773326827 0.4145562440114214
0.38063829787234044 0.45933635996239736 0.4115666547698804
0.38085106382978723 0.45969977556669506 0.408880428754226
0.381063829787234 0.4625211537171424 0.4049829018075233
0.38127659574468087 0.4621253085118324 0.4035029343056771
0.38148936170212766 0.46165119687347334 0.40129884490803963
0.38170212765957445 0.46176586351505045 0.39910919772274994
0.3819148936170213 0.47005276522455847 0.398006742081811
0.3821276595744681 0.46269645870554404 0.39716658524670256
0.3823404255319149 0.4671003863988713 0.3963960696242087
0.3825531914893617 0.46997439859017504 0.39622627641825936
0.3827659574468085 0.47296490425689186 0.3927559705548358
0.3829787234042553 0.47133337815581106 0.38579830856249053
0.3831914893617021 0.47220174445999663 0.3791934964685689
0.38340425531914896 0.47629230102448833 0.37278406419570936
0.38361702127659575 0.4753297508549097 0.37540346203344604
0.38382978723404254 0.47558522008186904 0.3747395124720778
0.38404255319148933 0.47516558007651594 0.3791474076426458
0.3842553191489362 0.4733756717147044 0.37851135280543713
0.384468085106383 0.4740021087592449 0.3731659665262832
0.38468085106382977 0.47435271128480694 0.37176355642403514
0.3848936170212766 0.4708687059481945 0.37698956442895387
0.3851063829787234 0.46471339089731706 0.3766862043641297
0.3853191489361702 0.47127798640462265 0.3798952889436434
0.38553191489361704 0.47177051593964925 0.3903133080032323
0.38574468085106384 0.47378560249006885 0.40161795863769706
0.38595744680851063 0.4703996703773991 0.4100027475390289
0.3861702127659574 0.47010428352590755 0.41853014919286585
0.38638297872340427 0.4675785054262592 0.4251751339719389
0.38659574468085106 0.46324294053719567 0.43306468072336124
0.38680851063829785 0.46734011305211576 0.4456025927710962
0.3870212765957447 0.4597842109032988 0.44573826954197354
0.3872340425531915 0.45964863917020937 0.45449866975560843
0.3874468085106383 0.454468021570726 0.4623253296560357
0.3876595744680851 0.4532518738326716 0.46830150047433206
0.3878723404255319 0.45307164083037854 0.47432205766179386
0.3880851063829787 0.45117967889195965 0.47911127954696336
0.3882978723404255 0.4517325798556304 0.4818725852119935
0.38851063829787236 0.45188080117244755 0.4802610021612769
0.38872340425531915 0.44787025048951046 0.48520253895846216
0.38893617021276594 0.44722274871790746 0.48562289533409203
0.3891489361702128 0.4479726428920372 0.4865990972335486
0.3893617021276596 0.4465376893459408 0.4914407018252499
0.3895744680851064 0.44203365112660303 0.4961504458238306
0.38978723404255317 0.4387071309157813 0.5016770913682421
0.39 0.4382022471910112 0.5026868588177822
0.3902127659574468 0.4391730601559458 0.5085117366073901
0.3904255319148936 0.4391069428506957 0.51205896623205
0.39063829787234045 0.4389918002185016 0.5194939197663987
0.39085106382978724 0.4408106005782251 0.5231981320893208
0.39106382978723403 0.4391059769884864 0.53132625170424
0.3912765957446808 0.4401563263312165 0.5356921581293809
0.39148936170212767 0.4451208523978191 0.5397201158094314
0.39170212765957446 0.44280069705393843 0.5449863083197792
0.39191489361702125 0.4411684507019275 0.5447346451328019
0.3921276595744681 0.43901176037598527 0.5480494950053224
0.3923404255319149 0.43681737474770777 0.5523119604564136
0.3925531914893617 0.4349431758043029 0.5518667899993119
0.39276595744680853 0.43296117425442904 0.5529601817784048
0.3929787234042553 0.43247716802203556 0.5523787186413742
0.3931914893617021 0.43127792822987443 0.5488200091754131
0.3934042553191489 0.43119034451565424 0.5468262651570374
0.39361702127659576 0.4267089373263715 0.5429304131732614
0.39382978723404255 0.4337310408438734 0.535021414382127
0.39404255319148934 0.427865435591128 0.5243375215876509
0.3942553191489362 0.42973543431388156 0.5209240673959376
0.394468085106383 0.42904401314598123 0.516247818627001
0.3946808510638298 0.42859845936466606 0.5080492726143554
0.39489361702127657 0.43010602544333754 0.5000409024620929
0.3951063829787234 0.43202379535292074 0.49616379624453905
0.3953191489361702 0.4323400097703958 0.495847581827064
0.395531914893617 0.4286841906309993 0.4932205983108217
0.39574468085106385 0.431362970200293 0.4854587708368524
0.39595744680851064 0.43169381296116993 0.4811610108504693
0.39617021276595743 0.4314307993082777 0.47592001430193775
0.3963829787234043 0.43154243077980103 0.4668354603123387
0.39659574468085107 0.4358693035545489 0.45529846806199764
0.39680851063829786 0.4430368117035081 0.4495369241239219
0.39702127659574465 0.44406448461162684 0.44513110697951064
0.3972340425531915 0.4429284611468468 0.43995181241236014
0.3974468085106383 0.44970095304233265 0.4384280161809208
0.3976595744680851 0.45000356323930263 0.43917928676111373
0.39787234042553193 0.45188080117244755 0.43822720709004104
0.3980851063829787 0.4542739579215881 0.43602862924633834
0.3982978723404255 0.4565055774921943 0.4359877465200399
0.3985106382978723 0.45676599902296044 0.43371716357531553
0.39872340425531916 0.45869258334461993 0.4333170493404983
0.39893617021276595 0.45807522644183457 0.4280996636412138
0.39914893617021274 0.4611464610735705 0.42408382146907847
0.3993617021276596 0.4629903339928535 0.4160175198662863
0.3995744680851064 0.4684875188504684 0.4084034268069992
0.3997872340425532 0.4721502148288617 0.3983587827468292
0.4 0.4699536880011465 0.3873868086728812
0.4002127659574468 0.46860903472274706 0.3777158020015482
0.4004255319148936 0.4714248631338679 0.36883734355278014
0.4006382978723404 0.4733756717147044 0.3727443408927242
0.40085106382978725 0.4726403324562891 0.3812956645878249
0.40106382978723404 0.4708141638823507 0.39011525875511466
0.40127659574468083 0.47092608135911274 0.4026311914766249
0.4014893617021277 0.4704445530043966 0.4132364875076528
0.40170212765957447 0.4644623418751242 0.41722588986096976
0.40191489361702126 0.46437925250911727 0.42118644834993946
0.40212765957446805 0.45980105932116955 0.42241370168751785
0.4023404255319149 0.4637466832017176 0.41571752633248144
0.4025531914893617 0.4643615852442027 0.40788152660182986
0.4027659574468085 0.4646446686663908 0.39622424448112237
0.40297872340425533 0.4665363947239862 0.3840951390048947
0.4031914893617021 0.46534285987005325 0.37458923828529317
0.4034042553191489 0.46601565279281654 0.36791984243586173
0.40361702127659577 0.4665363947239862 0.36687835857352225
0.40382978723404256 0.4684560929948638 0.3611192637608897
0.40404255319148935 0.46804748425264586 0.36210390812589577
0.40425531914893614 0.4657511366170028 0.3634377287064005
0.404468085106383 0.46946751343429405 0.36814873060934417
0.4046808510638298 0.4704305540665222 0.3737176355642404
0.4048936170212766 0.4702087281608427 0.3725047711505838
0.4051063829787234 0.47020161397133925 0.37102945588698993
0.4053191489361702 0.4764560183175199 0.37422163989000307
0.405531914893617 0.47237680290194545 0.376648754274548
0.4057446808510638 0.4686180656807023 0.37728671335710195
0.40595744680851065 0.46845001354428356 0.38306020196007684
0.40617021276595744 0.46441484817574497 0.38930370117590773
0.40638297872340423 0.4611235723682708 0.3967953796221051
0.4065957446808511 0.45720575333484126 0.4041889490251466
0.40680851063829787 0.45354487001837573 0.41119615005808424
0.40702127659574466 0.4528578407425501 0.4215125097485816
0.4072340425531915 0.45280261471859357 0.4305147913527558
0.4074468085106383 0.450218517061758 0.4382464902242136
0.4076595744680851 0.45188080117244755 0.44514476944775905
0.4078723404255319 0.45148662736398215 0.45033768574282906
0.40808510638297874 0.4509037616023448 0.45435486318762963
0.4082978723404255 0.4541266120329351 0.4573902002272273
0.4085106382978723 0.4557889594528579 0.4633149787948724
0.40872340425531917 0.4575706343880514 0.4699273403893618
0.40893617021276596 0.4539046059826157 0.4745618882946963
0.40914893617021275 0.4553117167254115 0.4822830005243569
0.40936170212765954 0.4517285617234157 0.49715125943851024
0.4095744680851064 0.4473257577540529 0.5096019625534036
0.4097872340425532 0.44397660641408543 0.5140546311702738
0.41 0.44440601540986185 0.5180255139657912
0.4102127659574468 0.4426783350357596 0.5255983692321121
0.4104255319148936 0.44211040547142155 0.5316619795123736
0.4106382978723404 0.444184721231791 0.5360264408214342
0.41085106382978726 0.4454606801697979 0.5393479728935662
0.41106382978723405 0.4449524169435454 0.5441224566506117
0.41127659574468084 0.44763765357159846 0.5412287450152968
0.41148936170212763 0.44770766256467154 0.5445836063099517
0.4117021276595745 0.44826135675215806 0.5473419651823803
0.41191489361702127 0.450415279938715 0.5476306790425012
0.41212765957446806 0.4499661786450318 0.5457555131278752
0.4123404255319149 0.44708241568067086 0.5441786861797748
0.4125531914893617 0.44840400904014327 0.5373275413932066
0.4127659574468085 0.44889640949138054 0.5316546084072392
0.4129787234042553 0.44368237621514206 0.5267611429277383
0.41319148936170214 0.4413569035534934 0.5198264957752801
0.41340425531914893 0.4399348347698066 0.5175943017055519
0.4136170212765957 0.43662119933694693 0.5147843649451541
0.41382978723404257 0.43722470930138685 0.5105001854614721
0.41404255319148936 0.4361226545437294 0.5040133704226037
0.41425531914893615 0.43427138833776957 0.49800619485734016
0.414468085106383 0.4335381442792919 0.4907412890377574
0.4146808510638298 0.4362688990890249 0.48705422569614076
0.4148936170212766 0.4346677297059338 0.48584742814660153
0.4151063829787234 0.43283698756920247 0.4851001465559355
0.4153191489361702 0.4340446518085007 0.48254318349877784
0.415531914893617 0.4342924702388482 0.48510338389944074
0.4157446808510638 0.4318551037401859 0.49022056991187063
0.41595744680851066 0.429157178094244 0.49829514946786607
0.41617021276595745 0.4309971660072715 0.49682462139716654
0.41638297872340424 0.4303859306301905 0.49780418160919815
0.4165957446808511 0.4316114098971676 0.49877870053737183
0.4168085106382979 0.4323400097703958 0.4965641536927033
0.41702127659574467 0.43147675313339684 0.49239455527906884
0.41723404255319146 0.4362799918130798 0.4909544280359827
0.4174468085106383 0.4394847390379358 0.48998534440644836
0.4176595744680851 0.43604621998207277 0.49076043590781776
0.4178723404255319 0.44089284436967296 0.4909946079891407
0.41808510638297874 0.44402089696575514 0.48599001083429494
0.41829787234042554 0.44434792215857516 0.4797114370761544
0.41851063829787233 0.4457915265846996 0.46828380115947127
0.4187234042553191 0.44689122000715137 0.45421482383473016
0.41893617021276597 0.4469590499776216 0.44675800658390075
0.41914893617021276 0.44576874828539714 0.4324033062410646
0.41936170212765955 0.45047049238966114 0.4205050337844296
0.4195744680851064 0.45108510795161244 0.4156951831667693
0.4197872340425532 0.44992672203224227 0.40966532689548935
0.42 0.45057566377722075 0.40693698094772834
0.42021276595744683 0.4509037616023448 0.4084876110401761
0.4204255319148936 0.45000247595931175 0.4034833462297349
0.4206382978723404 0.45296062993934116 0.39778386262803633
0.4208510638297872 0.45534876071547736 0.3896938253279203
0.42106382978723406 0.45652403438636346 0.37915873012673995
0.42127659574468085 0.455978066298494 0.36533399846651093
0.42148936170212764 0.45761478495197283 0.3482656171829545
0.4217021276595745 0.4601615333840076 0.33196783353992265
0.4219148936170213 0.46325586800264185 0.32057575568816077
0.4221276595744681 0.4691600937343756 0.3199292225919449
0.42234042553191486 0.467531258128319 0.3220236575199532
0.4225531914893617 0.46888761516205535 0.32801116009290765
0.4227659574468085 0.47142159257449934 0.3373994917019087
0.4229787234042553 0.47142159257449934 0.34396881767994975
0.42319148936170214 0.4724292545734492 0.35139883759611745
0.42340425531914894 0.4714865190140338 0.36179838140440534
0.42361702127659573 0.4704445530043966 0.37097193069831014
0.4238297872340426 0.4651672696463201 0.37274059599413767
0.42404255319148937 0.4713940819876616 0.3768413283824123
0.42425531914893616 0.46998297813583567 0.3842573227128678
0.42446808510638295 0.46669218497652715 0.39001572775090276
0.4246808510638298 0.46537621236578164 0.39701410527339653
0.4248936170212766 0.46808124924694466 0.4036495010653769
0.4251063829787234 0.4682072371095955 0.4097407703517217
0.42531914893617023 0.46676266559918933 0.4148252535778393
0.425531914893617 0.46741034869214015 0.4201001069194205
0.4257446808510638 0.46073486373102845 0.4197801436902632
0.4259574468085106 0.46303241871596434 0.42748027262078014
0.42617021276595746 0.4586230078956161 0.4360023239346286
0.42638297872340425 0.45430779736008287 0.44864180288943045
0.42659574468085104 0.4527980266969318 0.46783251936239045
0.4268085106382979 0.45209886675560873 0.48733930573485795
0.4270212765957447 0.4509037616023448 0.5034387307297064
0.4272340425531915 0.45172544153329874 0.5166105359087867
0.4274468085106383 0.45188080117244755 0.5239701448922718
0.4276595744680851 0.4563089599749006 0.529413594225247
0.4278723404255319 0.4601980224355564 0.5333902781875101
0.4280851063829787 0.4554737012583757 0.5336056018799264
0.42829787234042555 0.4572220224958005 0.5287408889865569
0.42851063829787234 0.4565780961351978 0.5273007509581095
0.42872340425531913 0.4571995124764236 0.5196265694990548
0.428936170212766 0.4544372046374983 0.5105802033769801
0.42914893617021277 0.4491065240356491 0.5066891220422982
0.42936170212765956 0.44973898245056226 0.5044531983763072
0.42957446808510635 0.4479726428920372 0.5029014711644378
0.4297872340425532 0.4466272978472618 0.5036638983878847
0.43 0.4436065729682419 0.5045797216746544
0.4302127659574468 0.443667183902903 0.5067774552508474
0.43042553191489363 0.44266608290428916 0.5075720566682951
0.4306382978723404 0.4462131797239757 0.5149570503228925
0.4308510638297872 0.4460524981940583 0.5163654127992183
0.43106382978723407 0.44345564268858634 0.519112432685995
0.43127659574468086 0.447430862324388 0.5171248228680941
0.43148936170212765 0.4492932041075755 0.5156783695083468
0.43170212765957444 0.4475769896735249 0.5106517618850654
0.4319148936170213 0.4450415241817294 0.5060216232392619
0.4321276595744681 0.4457219401938311 0.4947313213344614
0.4323404255319149 0.44200672057463547 0.4843687639583734
0.4325531914893617 0.43742482420083684 0.475728984014766
0.4327659574468085 0.43248756545160716 0.4715691482557107
0.4329787234042553 0.43389969804666123 0.47377006257864407
0.4331914893617021 0.43105605557124643 0.475650739404697
0.43340425531914895 0.4319470546862887 0.477624991623626
0.43361702127659574 0.4329224468674242 0.48256363031870186
0.43382978723404253 0.42835079823804584 0.4851001465559355
0.4340425531914894 0.43306793756500633 0.4826945212794539
0.43425531914893617 0.4315156749789938 0.48309516582283013
0.43446808510638296 0.4292679703416891 0.4852410672743343
0.4346808510638298 0.42764828665908466 0.4872477004353427
0.4348936170212766 0.42874645078658197 0.4870874673764536
0.4351063829787234 0.42897299026464264 0.4877155513286076
0.4353191489361702 0.4284318514899854 0.49207953797739074
0.43553191489361703 0.4270663611110175 0.4942819534957241
0.4357446808510638 0.42970355924545395 0.49164475536128766
0.4359574468085106 0.4322445653189313 0.4918917013209214
0.43617021276595747 0.43460327622585826 0.49178482988902494
0.43638297872340426 0.4388130579681419 0.4895781372216946
0.43659574468085105 0.442122602828199 0.48770151962395
0.43680851063829784 0.44452014179301536 0.4820419967008667
0.4370212765957447 0.44910035175038865 0.4734076278759699
0.4372340425531915 0.45399121337721665 0.47142159257449934
0.4374468085106383 0.45398684177981796 0.46234573344218965
0.4376595744680851 0.45288883014104686 0.4483755050724955
0.4378723404255319 0.45616624301627773 0.439024475640957
0.4380851063829787 0.45926125166433146 0.4253807890074279
0.43829787234042555 0.45680045381399115 0.4109829583922619
0.43851063829787235 0.4532892308446024 0.3980800832933215
0.43872340425531914 0.4529098885122407 0.3848104592537708
0.43893617021276593 0.45481191988275516 0.37458964536284717
0.4391489361702128 0.45704776485010834 0.36580130317776005
0.43936170212765957 0.4586100938859426 0.3622131292774552
