0.0 0.4323400097703958 0.4929164631167562
0.0002127659574468085 0.4308225813291945 0.4916158101671551
0.000425531914893617 0.42930515288799315 0.490315157217554
0.0006382978723404255 0.42778772444679186 0.4890145042679529
0.000851063829787234 0.4262702960055906 0.48771385131835177
0.0010638297872340426 0.4247528675643893 0.4864131983687507
0.001276595744680851 0.42323543912318795 0.48511254541914955
0.0014893617021276596 0.42171801068198667 0.4838118924695485
0.001702127659574468 0.4202005822407854 0.48251123951994734
0.0019148936170212765 0.4186831537995841 0.48121058657034627
0.002127659574468085 0.42090785322847996 0.48034958923570487
0.002340425531914894 0.42318683832852644 0.47949496982318746
0.002553191489361702 0.425465823428573 0.47864035041067
0.0027659574468085106 0.4275026538090068 0.47662105923045456
0.0029787234042553193 0.4293460814978919 0.47367157492823847
0.0031914893617021275 0.43118950918677695 0.4707220906260223
0.003404255319148936 0.43274042527692164 0.46768964285113934
0.003617021276595745 0.4342609579114375 0.46464857758210765
0.003829787234042553 0.43634253684963153 0.4583426029678633
0.004042553191489362 0.43953460675602385 0.4455743233422941
0.00425531914893617 0.44272667666241616 0.4328060437167248
0.004468085106382979 0.4479803144080285 0.4173833434388519
0.004680851063829788 0.45349663999547235 0.4016224131890125
0.004893617021276595 0.45758241419406986 0.38754617940375485
0.005106382978723404 0.4595867216807184 0.3759211959811932
0.005319148936170213 0.46159102916736694 0.36429621255863154
0.005531914893617021 0.4624358003433884 0.3584550155738094
0.00574468085106383 0.4632446859104347 0.35279281660448536
0.005957446808510639 0.46516047353083 0.34782480406911176
0.006170212765957446 0.46796660682261004 0.34341516603917155
0.006382978723404255 0.4702092014303972 0.33848570368505243
0.006595744680851064 0.4681968497353976 0.32963135622705403
0.006808510638297872 0.46618449804039797 0.3207770087690556
0.007021276595744681 0.4666551393426681 0.3185742721627849
0.00723404255319149 0.4682447364935554 0.3193690707382286
0.007446808510638298 0.46964155792966905 0.3214598374192856
0.007659574468085106 0.47039577110092157 0.3278706493749314
0.007872340425531916 0.4711499842721741 0.3342814613305772
0.008085106382978723 0.47239905131119103 0.3458759898989132
0.008297872340425531 0.4739266203454767 0.3603878957246273
0.00851063829787234 0.47530026617593146 0.37383557428015335
0.008723404255319148 0.4749383213309063 0.375283353660254
0.008936170212765958 0.47457637648588114 0.37673113304035477
0.009148936170212766 0.4742144316408559 0.3781789124204554
0.009361702127659575 0.47385248679583075 0.3796266918005562
0.009574468085106383 0.4734905419508056 0.38107447118065685
0.00978723404255319 0.4731285971057804 0.38252225056075756
0.01 0.4727666522607552 0.38397002994085827
0.010212765957446808 0.47240470741573004 0.385417809320959
0.010425531914893617 0.4720427625707049 0.3868655887010597
0.010638297872340425 0.4716808177256797 0.3883133680811604
0.010851063829787235 0.4708017025255391 0.39411865367788373
0.011063829787234043 0.4686174474980415 0.41092061542786495
0.01127659574468085 0.46643319247054393 0.42772257717784623
0.01148936170212766 0.4642489374430463 0.44452453892782756
0.011702127659574468 0.4620646824155487 0.46132650067780884
0.011914893617021277 0.4598804273880511 0.47812846242779017
0.012127659574468085 0.45831138506233077 0.4897334360238354
0.012340425531914893 0.4574395373221142 0.4954488823208108
0.012553191489361702 0.45656768958189753 0.5011643286177863
0.01276595744680851 0.455695841841681 0.5068797749147618
0.01297872340425532 0.45482399410146435 0.5125952212117373
0.013191489361702127 0.45395214636124775 0.5183106675087127
0.013404255319148937 0.45308029862103116 0.5240261138056882
0.013617021276595745 0.45220845088081457 0.5297415601026636
0.013829787234042552 0.451336603140598 0.535457006399639
0.014042553191489362 0.4504647554003814 0.5411724526966145
0.01425531914893617 0.4497410152076348 0.5456899967300997
0.01446808510638298 0.44925599092791557 0.5482767928886024
0.014680851063829787 0.4487709666481963 0.5508635890471051
0.014893617021276596 0.448285942368477 0.5534503852056077
0.015106382978723404 0.44780091808875777 0.5560371813641104
0.015319148936170212 0.4473158938090385 0.558623977522613
0.015531914893617021 0.44643020497608343 0.5590883170929626
0.01574468085106383 0.4447655075202829 0.5554259826902014
0.015957446808510637 0.4431008100644824 0.5517636482874403
0.016170212765957447 0.44195692457636865 0.5468221020717535
0.016382978723404256 0.4415780102060303 0.5400016434056643
0.016595744680851062 0.44119909583569206 0.533181184739575
0.01680851063829787 0.439266921748056 0.5316869718953159
0.01702127659574468 0.43700875553706403 0.5313106108601506
0.01723404255319149 0.4347442304221034 0.5321626188110572
0.017446808510638297 0.432458478462848 0.5371150813894439
0.017659574468085106 0.4301727265035927 0.5420675439678306
0.017872340425531916 0.4286576958428796 0.5459761064137157
0.018085106382978722 0.42752948288129655 0.5493607452984648
0.01829787234042553 0.4264777723497801 0.5525892278984065
0.01851063829787234 0.4264777723497801 0.5536709654975499
0.01872340425531915 0.4269067074242582 0.5546129343913787
0.018936170212765956 0.42854773312388317 0.5551599429579204
0.019148936170212766 0.43046487268139005 0.5557109910086474
0.019361702127659575 0.43268690705717777 0.5562664996025943
0.01957446808510638 0.4348226642069001 0.556800438890025
0.01978723404255319 0.4369242689611877 0.557325840078597
0.02 0.43599984824911464 0.5610771528589091
0.02021276595744681 0.43456969910083904 0.5653676003037358
0.020425531914893616 0.4328607355216078 0.5568776338459958
0.020638297872340425 0.43108521368739355 0.5453367419236028
0.020851063829787235 0.43137610976369284 0.5359819605462003
0.02106382978723404 0.4330096549479679 0.5280475982225787
0.02127659574468085 0.43464320013224295 0.5201132358989571
0.02148936170212766 0.436276745316518 0.5121788735753353
0.02170212765957447 0.43765722243514804 0.5000117974191054
0.021914893617021276 0.4386873397246872 0.4819847448521689
0.022127659574468085 0.4398176305886007 0.4643111893643898
0.022340425531914895 0.44103949116071833 0.44696076924031997
0.0225531914893617 0.44226135173283593 0.4296103491162504
0.02276595744680851 0.4434832123049536 0.4122599289921805
0.02297872340425532 0.4442980113499188 0.39700006008866146
0.023191489361702126 0.4447434411672387 0.38363716556906335
0.023404255319148935 0.4450415241817294 0.3711605948488301
0.023617021276595745 0.4450415241817294 0.36047705977549677
0.023829787234042554 0.4455951037143045 0.34989487817282716
0.02404255319148936 0.44669842278657285 0.3394133469862774
0.02425531914893617 0.449415091181799 0.3301381642740365
0.02446808510638298 0.45272651592915497 0.3213076982810875
0.024680851063829785 0.4539357310552072 0.324191169716672
0.024893617021276595 0.4554287183202905 0.3299037283869928
0.025106382978723404 0.458240486361339 0.3439625685922349
0.025319148936170214 0.45969711773326827 0.3538785860169494
0.02553191489361702 0.45969711773326827 0.3593414986235487
0.02574468085106383 0.4608435892413382 0.3663663215239
0.02595744680851064 0.4624968611732233 0.3740815905393644
0.026170212765957445 0.4612350554784288 0.37840982437473536
0.026382978723404255 0.45972161041745147 0.38244567787067507
0.026595744680851064 0.4640535271757764 0.38468919641641774
0.026808510638297874 0.46762931260015905 0.3856080018330834
0.02702127659574468 0.4681593029369492 0.38189806947555227
0.02723404255319149 0.468783380333691 0.3798727794543553
0.0274468085106383 0.4695641773331948 0.3806535764538591
0.027659574468085105 0.4703449743326985 0.38143437345336284
0.027872340425531914 0.4711257713322023 0.3822151704528666
0.028085106382978724 0.4719065683317061 0.3829959674523704
0.028297872340425533 0.47239863214460187 0.3841973459390901
0.02851063829787234 0.47239863214460187 0.38611548626626246
0.02872340425531915 0.47239863214460187 0.3880336265934349
0.02893617021276596 0.47281780849484223 0.39088828721722146
0.029148936170212764 0.47332716535606767 0.39394442838457433
0.029361702127659574 0.4733756717147044 0.39864928654770476
0.029574468085106383 0.4733317235874897 0.4034243558122505
0.029787234042553193 0.4729019479442726 0.40729233660120434
0.03 0.47247217230105554 0.4111603173901581
0.03021276595744681 0.471889084412743 0.412501575774053
0.030425531914893618 0.471274347216853 0.41332122536857296
0.030638297872340424 0.47065961002096307 0.41414087496309293
0.030851063829787233 0.47004487282507307 0.4149605245576129
0.031063829787234043 0.46932235671790373 0.4158754937950419
0.03127659574468085 0.46693502464922026 0.4182628258637255
0.03148936170212766 0.4645601048646233 0.4206673599405331
0.03170212765957447 0.46302862702777065 0.4242408082265224
0.031914893617021274 0.4614786996616907 0.4277998063434479
0.03212765957446809 0.4597638042969447 0.43122959707293995
0.03234042553191489 0.4582838922269247 0.43157230559553494
0.0325531914893617 0.4571693994794708 0.4271143346057189
0.03276595744680851 0.4553693991181947 0.4167719833748917
0.03297872340425532 0.4531805124085797 0.4030914414397979
0.033191489361702124 0.4528578407425501 0.3922166811089983
0.03340425531914894 0.4527840379870905 0.38251099169516367
0.03361702127659574 0.45166292162396604 0.38251099169516367
0.033829787234042556 0.45163431106091967 0.3859811016233942
0.03404255319148936 0.45389710040363 0.3967293510012686
0.03425531914893617 0.45285837789524414 0.4150751277709422
0.03446808510638298 0.4495790360425116 0.4385770777155258
0.03468085106382979 0.4457931808788488 0.46563388492217367
0.03489361702127659 0.44201412857506156 0.49331939239447997
0.035106382978723406 0.44033052457028615 0.5174510497962606
0.03531914893617021 0.43917928676111373 0.5401739650414484
0.03553191489361702 0.43917928676111373 0.5598504861927985
0.03574468085106383 0.43788323676703333 0.573008697492457
0.03595744680851064 0.4356420133099053 0.581413285456687
0.036170212765957444 0.4362143004937853 0.5785598295073261
0.036382978723404256 0.43680613879681385 0.5731127428122108
0.03659574468085106 0.43283585302860195 0.564604987594614
0.03680851063829787 0.4301691298163564 0.5597887555114005
0.03702127659574468 0.4296029749070763 0.5609210653299609
0.03723404255319149 0.42793414214399456 0.5675769159173344
0.0374468085106383 0.42569011829097325 0.577114017292675
0.03765957446808511 0.4281003410585282 0.5862376522080034
0.03787234042553191 0.4304838619591105 0.5939432641530029
0.038085106382978726 0.4309860852326034 0.5959521572469747
0.03829787234042553 0.431362970200293 0.5965060853772356
0.03851063829787234 0.431362970200293 0.5926850188095591
0.03872340425531915 0.4311026286459679 0.5880170045837635
0.03893617021276596 0.4305362747616589 0.5823534657406737
0.03914893617021276 0.4324501540047324 0.5717674415780047
0.039361702127659576 0.4352603788090084 0.55940245243919
0.03957446808510638 0.4347014498878839 0.5456828676560638
0.03978723404255319 0.43446037253586445 0.5317491135696801
0.04 0.43503842122382125 0.517297896370759
0.04021276595744681 0.4352711284807034 0.5056232702182272
0.04042553191489362 0.4352711284807034 0.495819641367924
0.040638297872340426 0.4362872072943323 0.48420171471385837
0.04085106382978723 0.43714406471931366 0.4728921390560971
0.041063829787234045 0.4366558834636366 0.46410487645390947
0.04127659574468085 0.4364311312706819 0.4549363668242025
0.04148936170212766 0.4375411577273982 0.4438361022570386
0.04170212765957447 0.4384299474355374 0.4338097039530152
0.041914893617021276 0.43899295137486005 0.42536464486317516
0.04212765957446808 0.4401846471700755 0.4212291335240875
0.042340425531914895 0.4416873525753257 0.4192255263170872
0.0425531914893617 0.4437329738629069 0.41987838208257344
0.04276595744680851 0.445991332243589 0.421572150868085
0.04297872340425532 0.4437605267239523 0.42723766706896626
0.043191489361702126 0.4418031460636316 0.43197748901587296
0.04340425531914894 0.440698035132281 0.4341877108785743
0.043617021276595745 0.44119612274558556 0.43345148475555756
0.04382978723404255 0.4432356790804453 0.4298822611695531
0.044042553191489364 0.44604951180016816 0.4199954859386847
0.04425531914893617 0.4493933665099554 0.4057841034220889
0.044468085106382976 0.4527193805619548 0.3945674450376455
0.04468085106382979 0.45599357720178235 0.3920488322377782
0.044893617021276595 0.4592677738416098 0.38953021943791094
0.0451063829787234 0.46254197048143725 0.38701160663804374
0.045319148936170214 0.46458231558378116 0.3838421432177221
0.04553191489361702 0.46458231558378116 0.379596407786175
0.045744680851063826 0.4643342975512312 0.375145613519151
0.04595744680851064 0.46387145679609887 0.3705172059678273
0.046170212765957445 0.4631870213910966 0.3668097615871697
0.04638297872340425 0.4622026559267686 0.36434884792635003
0.046595744680851064 0.46190136792269576 0.36046848980088764
0.04680851063829787 0.46247022006891775 0.354779968338667
0.047021276595744683 0.46429480132280193 0.34861675117421437
0.04723404255319149 0.46660168888829906 0.34238707515664474
0.047446808510638296 0.46888565988829156 0.34010310415665224
0.04765957446808511 0.4706102324463672 0.3393726082504
0.047872340425531915 0.47113211712822634 0.3419820316596953
0.04808510638297872 0.47242810650372263 0.34821035005487067
0.048297872340425534 0.4746882757281286 0.35894615387079915
0.04851063829787234 0.4753297508549097 0.37166641176443305
0.048723404255319146 0.4753297508549097 0.3851730924497208
0.04893617021276596 0.47589375974489695 0.398414314875179
0.049148936170212765 0.4763067904250122 0.41068930797773
0.04936170212765957 0.4763067904250122 0.42052122080000026
0.049574468085106384 0.47596388311943877 0.42795276626530976
0.04978723404255319 0.4753855369153717 0.4337362283059807
0.05 0.4753297508549097 0.43429408891060084
0.05021276595744681 0.47587782555745495 0.43429408891060084
0.050425531914893615 0.47844829127062466 0.43429408891060084
0.05063829787234043 0.47953598995938074 0.4348033079701322
0.050851063829787234 0.47736477547414036 0.43643171883406257
0.05106382978723404 0.4743138282792597 0.43466282771922693
0.05127659574468085 0.4704268054077613 0.42966522688444325
0.05148936170212766 0.4686216900153995 0.4233569109766178
0.051702127659574465 0.46746254245593855 0.4166201334976393
0.05191489361702128 0.4635768689026748 0.4099589788349015
0.052127659574468084 0.4601151441762099 0.4044238886803624
0.05234042553191489 0.45790535109583036 0.40221409559998283
0.0525531914893617 0.45573537622530863 0.4015900549259388
0.05276595744680851 0.4536077829149301 0.40265385158112804
0.05297872340425532 0.451709708528008 0.4081954176327574
0.05319148936170213 0.4499365757284819 0.41617451523062493
0.053404255319148934 0.4494468220620587 0.43801542092632806
0.05361702127659575 0.4505679747049307 0.4772557634268473
0.05382978723404255 0.45168912734780264 0.5164961059273652
0.05404255319148936 0.4503575781691456 0.5248971597936053
0.05425531914893617 0.4485202415216114 0.5269386449575321
0.05446808510638298 0.44668290487407725 0.5289801301214588
0.054680851063829784 0.4448455682265431 0.5310216152853856
0.0548936170212766 0.44305936482514147 0.5327083234353276
0.0551063829787234 0.44240805115960724 0.5265208436127518
0.05531914893617021 0.44175673749407296 0.520333363790176
0.05553191489361702 0.44108549711833234 0.5147224807484267
0.05574468085106383 0.43996970328453855 0.5219751406680861
0.055957446808510634 0.4388539094507448 0.5292278005877455
0.05617021276595745 0.43773811561695103 0.5364804605074052
0.05638297872340425 0.4367838085749464 0.544669751987265
0.056595744680851066 0.43596688718969034 0.5536558872250812
0.05680851063829787 0.4351946139034744 0.5618448350645403
0.05702127659574468 0.4346787257079763 0.5654560524330273
0.05723404255319149 0.43410796180097 0.5676831922405784
0.0574468085106383 0.4333763827085252 0.5658542445094663
0.057659574468085104 0.4326448036160804 0.5640252967783541
0.05787234042553192 0.4311254238088758 0.5603483058564948
0.05808510638297872 0.42904342659324995 0.555351512538993
0.05829787234042553 0.4273615688062681 0.5435199295520567
0.05851063829787234 0.42696809744014885 0.5096813920658004
0.05872340425531915 0.42657462607402963 0.4758428545795452
0.058936170212765954 0.42694106386101566 0.46967546134652133
0.05914893617021277 0.4275556326462308 0.4725434490108588
0.05936170212765957 0.428170201431446 0.47541143667519625
0.059574468085106386 0.4287847702166612 0.4782794243395338
0.05978723404255319 0.4293993390018764 0.48114741200387123
0.06 0.428279830622156 0.5064076713893374
0.06021276595744681 0.4271329444770227 0.5320214619639806
0.06042553191489362 0.4268982669792278 0.5437101770662651
0.06063829787234042 0.4278790392311258 0.5368447713029788
0.060851063829787236 0.4288598114830239 0.5299793655396922
0.06106382978723404 0.4298405837349219 0.5231139597764058
0.06127659574468085 0.4308213559868199 0.5162485540131195
0.06148936170212766 0.4321275753722684 0.4960607213864464
0.06170212765957447 0.4338351691556378 0.4594423213653036
0.06191489361702127 0.43554276293900723 0.42282392134416086
0.062127659574468086 0.43725035672237667 0.3862055213230169
0.06234042553191489 0.43895795050574604 0.34958712130187414
0.0625531914893617 0.4406737663704123 0.3247642852476474
0.0627659574468085 0.442408931795141 0.32770071904334214
0.06297872340425532 0.4441440972198698 0.330637152839037
0.06319148936170213 0.4458792626445985 0.33357358663473174
0.06340425531914894 0.44761442806932716 0.33651002043042644
0.06361702127659574 0.44934959349405584 0.3394464542261212
0.06382978723404255 0.4510847589187845 0.3423828880218159
0.06404255319148935 0.45281992434351326 0.3453193218175106
0.06425531914893617 0.45455508976824205 0.34825575561320554
0.06446808510638298 0.45629025519297073 0.35119218940890023
0.06468085106382979 0.4580254206176994 0.35412862320459493
0.06489361702127659 0.4597605860424281 0.3570650570002897
0.0651063829787234 0.4614957514671568 0.36000149079598437
0.06531914893617022 0.4632309168918856 0.3629379245916793
0.06553191489361702 0.4649660823166143 0.36587435838737403
0.06574468085106383 0.46608811514836734 0.36539783058896796
0.06595744680851064 0.46689159357574656 0.3631480909923061
0.06617021276595744 0.4676950720031258 0.3608983513956442
0.06638297872340425 0.46849855043050503 0.35864861179898233
0.06659574468085107 0.4693020288578843 0.3563988722023203
0.06680851063829787 0.4701055072852635 0.35414913260565845
0.06702127659574468 0.469850360304341 0.33577015205712146
0.06723404255319149 0.4688223943412982 0.3056164838078635
0.06744680851063829 0.46779442837825536 0.2754628155586055
0.06765957446808511 0.4689028936520785 0.27104133565752925
0.06787234042553192 0.4708150364882892 0.27629972845710865
0.06808510638297872 0.47272717932449987 0.28155812125668805
0.06829787234042553 0.47463932216071053 0.28681651405626746
0.06851063829787234 0.4750424991293482 0.3056630447734391
0.06872340425531914 0.4745929125113877 0.3321886552331063
0.06893617021276596 0.47435271128480694 0.35674517160213143
0.06914893617021277 0.47435271128480694 0.379042796781523
0.06936170212765957 0.4740587570535644 0.3977629173113056
0.06957446808510638 0.47313623454969017 0.4088331873577968
0.06978723404255319 0.4726073322953394 0.41758006614348814
0.06999999999999999 0.47364848783701047 0.41705948837265255
0.07021276595744681 0.47435271128480694 0.41753833683723385
0.07042553191489362 0.47435271128480694 0.42010609105498803
0.07063829787234042 0.4738984217307834 0.4254540357084676
0.07085106382978723 0.47281959490308995 0.4346240637438626
0.07106382978723404 0.4736970761317423 0.4450190781234982
0.07127659574468086 0.47582638562462326 0.45619795296112337
0.07148936170212766 0.47672690546137253 0.4616608834176877
0.07170212765957447 0.477269420100998 0.4654584858950661
0.07191489361702127 0.4767497373007623 0.46502526245953124
0.07212765957446808 0.4763067904250122 0.4635358110348311
0.07234042553191489 0.4763067904250122 0.45810461233412936
0.0725531914893617 0.4756563663427839 0.45611276804721185
0.07276595744680851 0.47400447384473116 0.4594165530433173
0.07297872340425532 0.4720231621162684 0.46371730389985183
0.07319148936170213 0.46983938585463514 0.46863080048852657
0.07340425531914893 0.4667608391320779 0.47668531157353733
0.07361702127659574 0.46356950223223314 0.48538633680749926
0.07382978723404256 0.46247500413638903 0.4941423215742519
0.07404255319148936 0.46044067062470295 0.5029117269253637
0.07425531914893617 0.4555460879012499 0.5117219758275793
0.07446808510638298 0.45067587699774486 0.5195244161141263
0.07468085106382978 0.44587833346532124 0.5243219596465498
0.0748936170212766 0.4421275949136619 0.5271128480703469
0.07510638297872341 0.4398327696827469 0.5271128480703469
0.07531914893617021 0.436670990396911 0.5296211444345497
0.07553191489361702 0.43326593542942105 0.5330261994020395
0.07574468085106383 0.4320943934066614 0.5341977414247991
0.07595744680851063 0.4311446200177778 0.5334007133535612
0.07617021276595745 0.4305633987544125 0.5293321645100036
0.07638297872340426 0.4303859306301905 0.5280898876404494
0.07659574468085106 0.43032085420682603 0.5280898876404494
0.07680851063829787 0.42796114037469085 0.5280898876404494
0.07702127659574468 0.4262597180552677 0.5287440505239868
0.0772340425531915 0.425672568860651 0.530505498107837
0.0774468085106383 0.4255007327796776 0.538090954216423
0.07765957446808511 0.42551495482065893 0.5475951239400478
0.07787234042553191 0.4258270880932616 0.5468147907585412
0.07808510638297872 0.42613922136586424 0.5460344575770345
0.07829787234042553 0.4264513546384669 0.5452541243955279
0.07851063829787235 0.42676348791106955 0.5444737912140212
0.07872340425531915 0.4270756211836722 0.5436934580325146
0.07893617021276596 0.4273877544562748 0.5429131248510078
0.07914893617021276 0.42809693068033067 0.5414612436710924
0.07936170212765957 0.4289147455063645 0.5398256140190248
0.07957446808510638 0.4300248685860227 0.5378106937016867
0.0797872340425532 0.4315812583836001 0.5352167107057244
0.08 0.4323400097703958 0.527114966016268
0.08021276595744681 0.4323400097703958 0.5137739778718936
0.08042553191489361 0.4334300913421113 0.5056891884989682
0.08063829787234042 0.43546715941351355 0.502170616375637
0.08085106382978724 0.43750422748491596 0.49865204425230547
0.08106382978723405 0.4395412955563182 0.49513347212897424
0.08127659574468085 0.4415783636277205 0.491614900005643
0.08148936170212766 0.44335681392230286 0.48671866934972646
0.08170212765957446 0.4443960878103201 0.4778848413015807
0.08191489361702127 0.4453947834616821 0.46762963186523987
0.08212765957446809 0.44632697790703807 0.45504500685293436
0.0823404255319149 0.447259172352394 0.44246038184062964
0.0825531914893617 0.4481913667977499 0.4298757568283249
0.08276595744680851 0.4488230274924745 0.41792865326858114
0.08297872340425531 0.4481440081288541 0.4087618918597058
0.08319148936170212 0.4474649887652337 0.39959513045083045
0.08340425531914894 0.44678596940161325 0.39042836904195444
0.08361702127659575 0.44610695003799283 0.3812616076330791
0.08382978723404255 0.4454279306743725 0.37209484622420375
0.08404255319148936 0.44615179478975536 0.36657555749860604
0.08425531914893616 0.448728220218993 0.36587289601790485
0.08446808510638298 0.45130464564823086 0.36517023453720365
0.08468085106382979 0.45388107107746856 0.36446757305650246
0.0848936170212766 0.45625141306344036 0.36429408007115127
0.0851063829787234 0.45803362877652454 0.36563074185596445
0.08531914893617021 0.4598426786223596 0.36731504124079634
0.08553191489361701 0.46202770339474797 0.3738701155579615
0.08574468085106383 0.4642127281671365 0.38042518987512713
0.08595744680851064 0.46639775293952485 0.38698026419229237
0.08617021276595745 0.46496909674543696 0.3897471365135005
0.08638297872340425 0.4632956148366015 0.39225735937675377
0.08659574468085106 0.4629663090520129 0.39021577349035913
0.08680851063829788 0.463528635279088 0.38515483744668455
0.08702127659574468 0.4631064977258575 0.3764846182302316
0.08723404255319149 0.4629278336302321 0.36753418323821696
0.0874468085106383 0.46467149742032815 0.35997830681446774
0.0876595744680851 0.4667125531428288 0.3523830298383222
0.08787234042553191 0.46906213873031993 0.34474687667897597
0.08808510638297873 0.47091423767546947 0.33957147758125905
0.08829787234042553 0.47239863214460187 0.3357890221083251
0.08851063829787234 0.47239863214460187 0.33695424034518434
0.08872340425531915 0.4729578560716449 0.3403632911056599
0.08893617021276595 0.4741377096380116 0.3462625589374937
0.08914893617021276 0.4753095206446302 0.35403523269023296
0.08936170212765958 0.4761665257983398 0.36171744428626884
0.08957446808510638 0.47521652209793047 0.3664674627883152
0.08978723404255319 0.47424720037470364 0.37099753867413926
0.09 0.4730842766325235 0.37332338615849964
0.0902127659574468 0.4721642415407795 0.37703858117256633
0.09042553191489362 0.4715931327073306 0.38274966950705586
0.09063829787234043 0.47142159257449934 0.39295014318942995
0.09085106382978723 0.4714352093365921 0.4050691413007776
0.09106382978723404 0.47317230671455845 0.4160707580278983
0.09127659574468085 0.4724922647821838 0.42689545734419404
0.09148936170212765 0.46668695043870995 0.43734502316244717
0.09170212765957447 0.4620232134886241 0.4447892260372576
0.09191489361702128 0.45800870962645135 0.45052423155464716
0.09212765957446808 0.4561190529228087 0.4481971188185877
0.09234042553191489 0.45506965485588025 0.44550309380558173
0.0925531914893617 0.4561073438722817 0.44342771577277895
0.0927659574468085 0.45676599902296044 0.44283129014188405
0.09297872340425532 0.45676599902296044 0.44480487132362057
0.09319148936170213 0.45676599902296044 0.4475879264502503
0.09340425531914893 0.45676599902296044 0.45166387134948655
0.09361702127659574 0.45523516942178033 0.47100910601368534
0.09382978723404255 0.4530701346769792 0.49668023227347047
0.09404255319148937 0.45090509993217787 0.5223513585332573
0.09425531914893617 0.4490635442038256 0.5353907547750928
0.09446808510638298 0.44748869129032315 0.5380155096309301
0.09468085106382979 0.44591383837682075 0.5406402644867675
0.09489361702127659 0.4443389854633183 0.543265019342605
0.0951063829787234 0.4427641325498159 0.5458897741984423
0.09531914893617022 0.4411892796363134 0.5485145290542798
0.09553191489361702 0.440579660245083 0.5519299525500201
0.09574468085106383 0.4394012038913977 0.5556781519369294
0.09595744680851064 0.4365256172454868 0.5602790905703867
0.09617021276595744 0.4362560490565308 0.5629428863112583
0.09638297872340426 0.43800315173805576 0.5641076214322749
0.09659574468085107 0.4371617659697868 0.5678820360085307
0.09680851063829787 0.43598879464558626 0.5723764957510625
0.09702127659574468 0.4348204854530296 0.5782180417138456
0.09723404255319149 0.43332865623477784 0.5837463224534583
0.09744680851063829 0.4315715263982902 0.5890177119629209
0.09765957446808511 0.43187905381100145 0.5927398822211624
0.09787234042553192 0.43297090356737744 0.59474854542115
0.09808510638297872 0.43593518290138944 0.5911914102203356
0.09829787234042553 0.43607219658017754 0.5879138639958159
0.09851063829787234 0.4340307825859492 0.5848517430044733
0.09872340425531914 0.4340829858796196 0.5811003652493724
0.09893617021276596 0.4352606737922393 0.576978457555203
0.09914893617021277 0.43644105926114996 0.5705072468531232
0.09936170212765957 0.43663059456126874 0.5632213655762509
0.09957446808510638 0.43485932132831556 0.554364999411485
0.09978723404255319 0.43469580586627266 0.5081534061103512
0.1 0.43528884021689657 0.4460067559277031
0.10021276595744681 0.43600134814730573 0.44553175064076367
0.10042553191489362 0.43671385607771496 0.4450567453538242
0.10063829787234042 0.4374263640081241 0.4445817400668848
0.10085106382978723 0.4381388719385333 0.4441067347799454
0.10106382978723404 0.43885137986894246 0.44363172949300594
0.10127659574468086 0.43956388779935174 0.44315672420606644
0.10148936170212766 0.4402763957297609 0.442681718919127
0.10170212765957447 0.4409889036601701 0.44220671363218755
0.10191489361702127 0.44170141159057924 0.44173170834524816
0.10212765957446808 0.44241391952098846 0.4412567030583087
0.10234042553191489 0.44312642745139763 0.4407816977713693
0.1025531914893617 0.44383893538180685 0.4403066924844298
0.10276595744680851 0.44479982089928166 0.4364796448929422
0.10297872340425532 0.44587574979394506 0.43110000041962465
0.10319148936170212 0.4479799171385942 0.42303085542983176
0.10340425531914893 0.4502424911813231 0.41486197191867935
0.10361702127659575 0.4525114611492725 0.4086223045068185
0.10382978723404256 0.45541914701674835 0.39932480643575285
0.10404255319148936 0.4592207973939093 0.3857474836601781
0.10425531914893617 0.46349894621951376 0.37137634857749385
0.10446808510638297 0.4680720005312214 0.3565139220644441
0.10468085106382978 0.4688992306622439 0.3453437205790321
0.1048936170212766 0.4693491598000656 0.33454542127131176
0.1051063829787234 0.4699553921825497 0.3343069540405258
0.10531914893617021 0.4706174159514512 0.3378377474746669
0.10553191489361702 0.47127943972035263 0.3413685409088079
0.10574468085106382 0.4719414634892541 0.344899334342949
0.10595744680851064 0.47193456988740534 0.34934850361932207
0.10617021276595745 0.470434874618956 0.35584718311593566
0.10638297872340426 0.46946751343429405 0.36003908158280407
0.10659574468085106 0.46946751343429405 0.36003908158280407
0.10680851063829787 0.4698082762096709 0.35867603048129654
0.10702127659574467 0.47038072496847927 0.3563862354460629
0.1072340425531915 0.4699300024021056 0.35304361968864767
0.1074468085106383 0.4692334240926473 0.3501516412109549
0.1076595744680851 0.4680710985570333 0.34957047844314776
0.10787234042553191 0.46811871997689536 0.35050221767728834
0.10808510638297872 0.46928224580080197 0.3528292693251017
0.10829787234042552 0.46702097103412693 0.3566249639523199
0.10851063829787234 0.465135202682151 0.36086841223035887
0.10872340425531915 0.46854935258971125 0.36598963709169924
0.10893617021276596 0.46995886821910543 0.3715037040328288
0.10914893617021276 0.4688671922466103 0.3775079218815524
0.10936170212765957 0.46952576086448433 0.3830308296524986
0.10957446808510639 0.4711065510519633 0.3883001302774284
0.1097872340425532 0.4695604223329572 0.3916767314878095
0.11 0.4677850626657657 0.39457500200099066
0.1102127659574468 0.47006092587735565 0.39741983101547806
0.11042553191489361 0.47165139427040076 0.40095907795411906
0.11063829787234042 0.4722228532056213 0.4055307494358835
0.11085106382978724 0.47440387176880966 0.4121506039706686
0.11106382978723404 0.47725790222229747 0.4196935918762987
0.11127659574468085 0.47259387905367245 0.429604641109627
0.11148936170212766 0.46908299875829657 0.44009331481078096
0.11170212765957446 0.4679166887704796 0.45175641468895134
0.11191489361702127 0.4678141018999511 0.4636063172052735
0.11212765957446809 0.4682736643124872 0.475554939931212
0.1123404255319149 0.4678078512254331 0.4821021517938696
0.1125531914893617 0.466515558703546 0.4838252084897191
0.1127659574468085 0.4652232661816588 0.48554826518556865
0.11297872340425531 0.46393097365977165 0.48727132188141814
0.11319148936170213 0.4626386811378844 0.48899437857726774
0.11340425531914894 0.45851350306280825 0.4864365964733661
0.11361702127659574 0.4547503986701654 0.4841846281984227
0.11382978723404255 0.45417905596074803 0.48475597090784006
0.11404255319148936 0.4518103744344597 0.4880244328244363
0.11425531914893616 0.4467185857440259 0.4953792387106185
0.11446808510638298 0.44427246101103746 0.5047232295034959
0.11468085106382979 0.4431256908569918 0.5150441608899063
0.1148936170212766 0.4430874450415241 0.5232741109919637
0.1151063829787234 0.44342623260573194 0.5316078339421109
0.11531914893617021 0.44459484719864173 0.5403724433889335
0.11553191489361703 0.4439538607909154 0.5408220850532536
0.11574468085106383 0.4421932386909087 0.5361270927865692
0.11595744680851064 0.4426691415859967 0.5252902180243415
0.11617021276595745 0.4427511629953727 0.5163336062308668
0.11638297872340425 0.44157766008585264 0.5128130975023063
0.11659574468085106 0.44149667920204405 0.5114802149487054
0.11680851063829788 0.44208135297357104 0.5114802149487054
0.11702127659574468 0.4415547857597228 0.5175920317773919
0.11723404255319149 0.44064173966107667 0.5243580305942175
0.1174468085106383 0.4388810280891555 0.5319877807392088
0.1176595744680851 0.43712262998691226 0.5378081438420981
0.11787234042553191 0.43536568330763326 0.5424933349868419
0.11808510638297873 0.4330884628547147 0.54565570202664
0.11829787234042553 0.4323400097703958 0.5501567441580237
0.11851063829787234 0.4307497144231179 0.5491533943019948
0.11872340425531915 0.43318664048776206 0.5476741486600799
0.11893617021276595 0.43042120523395955 0.5424280097580665
0.11914893617021277 0.431362970200293 0.53317202701321
0.11936170212765958 0.431362970200293 0.5233748882546516
0.11957446808510638 0.430990398428292 0.5111532533168044
0.11978723404255319 0.43002153377756996 0.5040863707343847
0.12 0.4318005773453608 0.5002951725325092
0.1202127659574468 0.43291123709643065 0.5043255587157535
0.12042553191489362 0.4347303485247142 0.510398655036727
0.12063829787234043 0.43358778499029105 0.5165302454199425
0.12085106382978723 0.43624730293629266 0.5212494571637132
0.12106382978723404 0.43660641378878257 0.5237040683760704
0.12127659574468085 0.43917928676111373 0.5207737020996578
0.12148936170212765 0.44147320731585576 0.519551409572635
0.12170212765957447 0.4481301777492539 0.510755392877829
0.12191489361702128 0.4463503477604796 0.5026920909480223
0.12212765957446808 0.4503433397551482 0.4952387814269957
0.12234042553191489 0.45188080117244755 0.487960446521703
0.1225531914893617 0.4499607305095139 0.4851341550332071
0.12276595744680852 0.4479726428920372 0.478142554430398
0.12297872340425532 0.44870759885636263 0.4763038887093475
0.12319148936170213 0.4505269221270201 0.46998411643678195
0.12340425531914893 0.44890651126670855 0.46152168328717974
0.12361702127659574 0.4479726428920372 0.4531490515035541
0.12382978723404255 0.4479726428920372 0.4360005157260482
0.12404255319148937 0.44883104412089486 0.40990293947885015
0.12425531914893617 0.4519189505827508 0.3832082689230425
0.12446808510638298 0.4550887389674098 0.3603322462150814
0.12468085106382978 0.4570288844581107 0.3473769460951257
0.12489361702127659 0.4581385901309854 0.3391256990727273
0.1251063829787234 0.45924332390632183 0.34011394827001584
0.12531914893617022 0.4610039011697895 0.34343550490563685
0.125531914893617 0.46087146553408614 0.3467456424793244
0.12574468085106383 0.4633909529994289 0.35186555999823377
0.12595744680851065 0.46262823644357587 0.355463732032022
0.12617021276595744 0.46320073901703285 0.3609932525385656
0.12638297872340426 0.4649837460149303 0.3634852565859334
0.12659574468085105 0.4636052760136786 0.3596561268118117
0.12680851063829787 0.4641157762943979 0.36008304257414
0.1270212765957447 0.4678018953735587 0.3565087094472181
0.12723404255319148 0.46869175045860656 0.35495260713787613
0.1274468085106383 0.4712283498822342 0.3542412583929437
0.1276595744680851 0.4733114222128763 0.35014018687812204
0.12787234042553192 0.4729882985792076 0.34733182935056345
0.1280851063829787 0.4740241099731829 0.3437558191114918
0.12829787234042553 0.4711235750512028 0.3485786937873139
0.12851063829787235 0.4704917506664271 0.35846258373884343
0.12872340425531914 0.47135951742988746 0.365404717846526
0.12893617021276596 0.4722272841933479 0.37234685195420947
0.12914893617021275 0.47309505095680826 0.379288986061892
0.12936170212765957 0.4739628177202687 0.38623112016957545
0.1295744680851064 0.47483058448372917 0.3931732542772589
0.12978723404255318 0.4756983512471895 0.40011538838494143
0.13 0.4765661180106499 0.4070575224926249
0.1302127659574468 0.47743388477411025 0.4139996566003074
0.13042553191489362 0.4783016515375707 0.42094179070799087
0.13063829787234044 0.47916941830103116 0.42788392481567433
0.13085106382978723 0.47696880021519106 0.43549130146372
0.13106382978723405 0.4745052488536472 0.443155683477412
0.13127659574468084 0.4720416974921036 0.45082006549110304
0.13148936170212766 0.46957814613055976 0.45848444750479506
0.13170212765957448 0.46711459476901585 0.46614882951848713
0.13191489361702127 0.4646510434074723 0.47381321153217815
0.1321276595744681 0.4621874920459284 0.48147759354587016
0.13234042553191488 0.4611491690200902 0.4848529621172331
0.1325531914893617 0.4605074425030152 0.4870348322752881
0.1327659574468085 0.4598657159859403 0.48921670243334286
0.13297872340425532 0.4592239894688653 0.4913985725913979
0.13319148936170214 0.4585822629517903 0.4935804427494529
0.13340425531914893 0.45794053643471533 0.49576231290750766
0.13361702127659575 0.4572988099176403 0.49794418306556265
0.13382978723404254 0.4564405543774137 0.5010575186896614
0.13404255319148936 0.45452304746431005 0.5087275463420758
0.13425531914893618 0.4517772833886086 0.5217681995689254
0.13446808510638297 0.448872586646496 0.5318994525055458
0.1346808510638298 0.4463828675055247 0.5339742184563553
0.13489361702127659 0.44413134086475003 0.5360399167075166
0.1351063829787234 0.4448550533988632 0.5382953818348298
0.13531914893617022 0.44207697557774933 0.5447664201195378
0.13553191489361702 0.44160611808107614 0.5457081351128843
0.13574468085106384 0.4411352605844029 0.5466498501062309
0.13595744680851063 0.4402800344060145 0.5493373420331105
0.13617021276595745 0.4429304274350181 0.5455125955095768
0.13638297872340424 0.4453592388301971 0.5441541055016142
0.13659574468085106 0.44075550917665907 0.5438790513659681
0.13680851063829788 0.4391855831533707 0.5466473430801418
0.13702127659574467 0.4382022471910112 0.5488351235600634
0.1372340425531915 0.4360454664309781 0.5560551004628056
0.13744680851063829 0.4385302031323874 0.5624519576282346
0.1376595744680851 0.4382607543468326 0.5595891825070178
0.13787234042553193 0.4369010990935083 0.5649473008648476
0.13808510638297872 0.431362970200293 0.5591479014568863
0.13829787234042554 0.43269244833069714 0.5518975427066318
0.13851063829787233 0.43376930233389716 0.5469224316948129
0.13872340425531915 0.4284995027271077 0.5443125174028258
0.13893617021276597 0.4324848848809083 0.5416276872006492
0.13914893617021276 0.43624816805080613 0.5434931465868522
0.13936170212765958 0.43068349489621327 0.5383399338698016
0.13957446808510637 0.42668095501397585 0.535973931756002
0.1397872340425532 0.4304329637615507 0.5348821314998073
0.13999999999999999 0.431362970200293 0.5341127991855175
0.1402127659574468 0.431362970200293 0.5346507264862594
0.14042553191489363 0.4317621394994577 0.5331537864627357
0.14063829787234042 0.4323400097703958 0.5304330522459884
0.14085106382978724 0.4310548498802569 0.5290669272105519
0.14106382978723403 0.4349729407277644 0.5221864120641913
0.14127659574468085 0.43624816805080613 0.5105703912600977
0.14148936170212767 0.44211040547142155 0.49839402372876557
0.14170212765957446 0.44250980863638045 0.48336939950778035
0.14191489361702128 0.4447952800583874 0.4691974585411563
0.14212765957446807 0.4451044320415802 0.45519067887013687
0.1423404255319149 0.44905151446378605 0.44493969218008295
0.1425531914893617 0.4496585839875369 0.43855485797556465
0.1427659574468085 0.44798408612974544 0.43231712329497896
0.14297872340425533 0.4495156495847746 0.4332157662433648
0.14319148936170212 0.44926208233949494 0.43460648878795605
0.14340425531914894 0.44894968246213973 0.435080766967472
0.14361702127659573 0.4516490646601376 0.4316719522167063
0.14382978723404255 0.45298621158599894 0.42405300011692926
0.14404255319148937 0.4562424069374931 0.41135787135372553
0.14425531914893616 0.4589912544197973 0.3935336284540653
0.14446808510638298 0.4612603338265531 0.3756718917752429
0.14468085106382977 0.4615815265561546 0.36232492229409313
0.1448936170212766 0.4621785811792319 0.3556035389966354
0.1451063829787234 0.4628639149918112 0.35417684416218864
0.1453191489361702 0.46606056085470315 0.3524606819566249
0.14553191489361703 0.4636294424572844 0.3551297172886854
0.14574468085106382 0.46295987649013626 0.35721850955468304
0.14595744680851064 0.4651267570908921 0.3578687034111031
0.14617021276595746 0.46473236943436613 0.35682618951732437
0.14638297872340425 0.467513434294089 0.3532242921911006
0.14659574468085107 0.46632620702003125 0.34359033062856664
0.14680851063829786 0.46458231558378116 0.3369857126382102
0.14702127659574468 0.46582226149190475 0.33711594457638416
0.14723404255319147 0.4724272616206642 0.3436987195751403
0.1474468085106383 0.4700790609931701 0.35222132849788423
0.14765957446808511 0.46946751343429405 0.35904779375422
0.1478723404255319 0.4713065716317477 0.37325882867980614
0.14808510638297873 0.4710732889913167 0.3861417001338223
0.14829787234042552 0.47305520551657715 0.3948451169812077
0.14851063829787234 0.4741669428356887 0.40451848068472734
0.14872340425531916 0.47574191970294843 0.4126924532683552
0.14893617021276595 0.47190591740508786 0.4188618976483352
0.14914893617021277 0.46963976410785874 0.42302990161877824
0.14936170212765956 0.46946751343429405 0.4272489308296882
0.14957446808510638 0.46548848281733146 0.42962150806974464
0.1497872340425532 0.4649583253743271 0.4329040244562146
0.15 0.46622839935165933 0.4346551377360496
0.15021276595744681 0.4659644317425403 0.4345322791064682
0.1504255319148936 0.46746441643914366 0.43578415719322733
0.15063829787234043 0.46795083833637485 0.4363503995363368
0.15085106382978725 0.46816699192801825 0.4391858805226967
0.15106382978723404 0.4692664497612941 0.4393803504341137
0.15127659574468086 0.4676756250680174 0.43649145421169877
0.15148936170212765 0.466427082828652 0.43002155764574307
0.15170212765957447 0.4629674751591358 0.4180643315109933
0.15191489361702126 0.46053262218256996 0.39941287214551147
0.15212765957446808 0.4610619971908112 0.37761091414164827
0.1523404255319149 0.4571732342103542 0.3566202552865514
0.1525531914893617 0.4557889594528579 0.34028265181889156
0.15276595744680851 0.4551033513284373 0.33355626795697785
0.1529787234042553 0.45748601100754455 0.337361633088313
0.15319148936170213 0.4554902816614561 0.3485646808154361
0.15340425531914895 0.4542639937022209 0.3677896598374081
0.15361702127659574 0.4549167276816112 0.3899826151366755
0.15382978723404256 0.45556946166100154 0.4121755704359458
0.15404255319148935 0.4531348648643031 0.43177149919245517
0.15425531914893617 0.4491360813547187 0.45005165237912664
0.154468085106383 0.4471290256940379 0.4745722995876684
0.15468085106382978 0.44639537287365777 0.49579086902921166
0.1548936170212766 0.446009208292429 0.5108693955593829
0.1551063829787234 0.441869975037405 0.5229540474665625
0.15531914893617021 0.4382022471910112 0.534634223117181
0.155531914893617 0.4387682644091678 0.5441875053607228
0.15574468085106383 0.4398465683792366 0.555328300507994
0.15595744680851065 0.4393779977507446 0.5718084111712806
0.15617021276595744 0.43917928676111373 0.5785068599928967
0.15638297872340426 0.43912147161681314 0.5839353168544319
0.15659574468085105 0.4363826569693996 0.5918664375343046
0.15680851063829787 0.43649892309061145 0.5952462027413498
0.1570212765957447 0.43395365694996546 0.6003908158280411
0.15723404255319148 0.43240461826816257 0.5985659536833697
0.1574468085106383 0.431362970200293 0.5947600663810322
0.1576595744680851 0.4327507083804276 0.5907760624770538
0.15787234042553192 0.4284322251329765 0.5855726937173112
0.15808510638297874 0.42745481191988266 0.5791526938554096
0.15829787234042553 0.42745481191988266 0.5705687526335016
0.15851063829787235 0.42576324651185227 0.5615135052486209
0.15872340425531914 0.42716194984781997 0.5561791507834786
0.15893617021276596 0.42919634144672425 0.5502224070227975
0.15914893617021275 0.4303088398057361 0.54778486069141
0.15936170212765957 0.43154255504996564 0.5375909060669665
0.1595744680851064 0.43891351289944264 0.5245411653302177
0.15978723404255318 0.4374640903998502 0.5091559125222991
0.16 0.43855118550123384 0.48593769691230326
0.1602127659574468 0.43779127787475 0.4692116450556129
0.16042553191489362 0.43739979099071125 0.4542177091246344
0.16063829787234044 0.4409591376340998 0.4476848259327067
0.16085106382978723 0.43971008978871595 0.45037295857474263
0.16106382978723405 0.4410056242164767 0.45729594269611495
0.16127659574468084 0.4443209807603908 0.4559941563718691
0.16148936170212766 0.448612669513513 0.4593601047846415
0.16170212765957448 0.44699560332193444 0.45803052187081217
0.16191489361702127 0.4482140182246748 0.45628324835768486
0.1621276595744681 0.44992672203224227 0.4513691305900058
0.16234042553191488 0.44934067498670227 0.44875462794116233
0.1625531914893617 0.4496522802655955 0.44516225167821405
0.1627659574468085 0.44833174669077885 0.4368870955750409
0.16297872340425532 0.4488819826719967 0.4307244295809056
0.16319148936170214 0.4430375831727507 0.4255007327796776
0.16340425531914893 0.44177933404458836 0.42649394706017724
0.16361702127659575 0.4393170311714322 0.43192250030681584
0.16382978723404254 0.4376106193700828 0.43254622584214997
0.16404255319148936 0.43770391122922175 0.431362970200293
0.16425531914893618 0.43784031330676343 0.42890254745687384
0.16446808510638297 0.4433386190030077 0.42231844010788633
0.1646808510638298 0.4501180377628336 0.4180772781386125
0.16489361702127658 0.4509037616023448 0.40996837403183495
0.1651063829787234 0.4543546066404776 0.40425528494856827
0.16531914893617022 0.4593605610229462 0.3968626590972437
0.16553191489361702 0.4629683990861439 0.39030558407718363
0.16574468085106384 0.4655593551538837 0.38731648575589467
0.16595744680851063 0.46499334821374794 0.38667520829537183
0.16617021276595745 0.4652628467992579 0.38271998554356434
0.16638297872340424 0.4663492519127558 0.37995415860731674
0.16659574468085106 0.4665363947239862 0.37867454886263563
0.16680851063829788 0.4675544280123341 0.3696045086926045
0.16702127659574467 0.46892799480247127 0.363320035992958
0.1672340425531915 0.4709162771784789 0.3524082402761172
0.16744680851063828 0.47092301543735865 0.3433349366630428
0.1676595744680851 0.4724387996317917 0.33190577148577816
0.16787234042553192 0.47142159257449934 0.3216837619645934
0.16808510638297872 0.47278626439897414 0.3139323645949681
0.16829787234042554 0.47257372197429365 0.3113621929073665
0.16851063829787233 0.47239863214460187 0.32318972704692467
0.16872340425531915 0.46562241287253653 0.3361175540794621
0.16893617021276597 0.46636177138470586 0.3453502656231441
0.16914893617021276 0.46526669753131034 0.35681076276534907
0.16936170212765958 0.46458231558378116 0.3679208585289061
0.16957446808510637 0.4640528572869634 0.37893034150888527
0.1697872340425532 0.4642529846651084 0.3851018263008829
0.17 0.46611675170333383 0.3894880222146796
0.1702127659574468 0.46915467407554734 0.3903273082559844
0.17042553191489362 0.47145634571405726 0.39140860724476073
0.17063829787234042 0.47408904663652784 0.4012841948742662
0.17085106382978724 0.47239863214460187 0.41064907346046764
0.17106382978723403 0.4712848527258845 0.41981419494728195
0.17127659574468085 0.4684838046265738 0.4304126075806614
0.17148936170212767 0.4650631700988048 0.435519221008243
0.17170212765957446 0.46653199612149326 0.44063824821252795
0.17191489361702128 0.46068777413459766 0.45149568819072217
0.17212765957446807 0.45969711773326827 0.4528578407425501
0.1723404255319149 0.4573776855095487 0.4643387468614383
0.1725531914893617 0.4555444208973604 0.46409323847278633
0.1727659574468085 0.4592043086659377 0.4710476964917223
0.17297872340425532 0.45920519439582114 0.4782649538280923
0.17319148936170212 0.45676599902296044 0.4836069235831442
0.17340425531914894 0.45819602291694755 0.48939021823789713
0.17361702127659576 0.4587200781631655 0.49597299467252903
0.17382978723404255 0.4596793508250021 0.5044988026918582
0.17404255319148937 0.45743747882477226 0.5146565331620734
0.17425531914893616 0.45394376497240924 0.5267214477687643
0.17446808510638298 0.44906671850269947 0.5356721321201506
0.17468085106382977 0.44581598992555116 0.5406007714126028
0.1748936170212766 0.4435659468002384 0.5402728281877208
0.1751063829787234 0.44432173203075304 0.5363687489331201
0.1753191489361702 0.4428330010211252 0.5283035951493553
0.17553191489361702 0.44296077328825467 0.5218839694160783
0.17574468085106382 0.4450255676173634 0.5067146913309376
0.17595744680851064 0.4433068162652357 0.4991077573729393
0.17617021276595746 0.4450415241817294 0.5026186865270953
0.17638297872340425 0.44538457038713136 0.5090484395821099
0.17659574468085107 0.44511330564121604 0.5212725509481193
0.17680851063829786 0.44576191693366085 0.5354454277025973
0.17702127659574468 0.4476750483028252 0.5482652968415797
0.1772340425531915 0.44559965382802985 0.5554938190962571
0.1774468085106383 0.4414053382178488 0.5609692676282753
0.1776595744680851 0.44197589007796656 0.5662392693389354
0.1778723404255319 0.4385353969503664 0.567171470444553
0.17808510638297873 0.43581973712017275 0.567171470444553
0.17829787234042552 0.43683896210177725 0.5660127338871586
0.17851063829787234 0.43624816805080613 0.5642403517342451
0.17872340425531916 0.4356292504782741 0.5642403517342451
0.17893617021276595 0.4360076749402336 0.5590845265175343
0.17914893617021277 0.4353973451623025 0.5514453145240027
0.17936170212765956 0.4323622419336525 0.5408655092626389
0.17957446808510638 0.4283335819649606 0.5213375688144647
0.1797872340425532 0.4285184771565329 0.5016626752953667
0.18 0.43201287407481265 0.48769102702072015
0.1802127659574468 0.42734118737846605 0.4758296111797558
0.1804255319148936 0.4242653877544981 0.4649454502739519
0.18063829787234043 0.4248161852924902 0.46165119687347334
0.18085106382978725 0.42452369320957506 0.4584343443630047
0.18106382978723404 0.4319193988809835 0.4642142810555454
0.18127659574468086 0.4326834680956157 0.45969711773326827
0.18148936170212765 0.4390471817343288 0.45915052549924223
0.18170212765957447 0.44610025353692223 0.45616909916628556
0.18191489361702126 0.4444801702695653 0.45190212027718557
0.18212765957446808 0.4445156054117722 0.4463948865821656
0.1823404255319149 0.44406448461162684 0.44567517848123833
0.1825531914893617 0.44631786546128993 0.44376518290216865
0.1827659574468085 0.45134142283063505 0.4500407562554448
0.1829787234042553 0.4499453051408661 0.44800980910928484
0.18319148936170213 0.45188080117244755 0.4521402556657189
0.18340425531914895 0.4516302503531401 0.4543359819512675
0.18361702127659574 0.4509037616023448 0.45615856357785434
0.18382978723404256 0.44993047206866843 0.44995297228722547
0.18404255319148935 0.4519811682186918 0.4358118792257991
0.18425531914893617 0.45890313997131327 0.42050241378887754
0.184468085106383 0.4573122596284242 0.4066216836239145
0.18468085106382978 0.46250853986427687 0.3944549102651096
0.1848936170212766 0.46155164527448855 0.39656927565279393
0.1851063829787234 0.4611024498144931 0.3906619090594034
0.1853191489361702 0.4619629187719012 0.38770791144410444
0.185531914893617 0.46292336905606224 0.3841699382228826
0.18574468085106383 0.4638620841477643 0.3775736531107826
0.18595744680851065 0.4633088901445289 0.3692494455267193
0.18617021276595744 0.462853338238292 0.3586070430442707
0.18638297872340426 0.46093034076517747 0.3467924970712018
0.18659574468085105 0.46356369888484034 0.3357516827597003
0.18680851063829787 0.46458231558378116 0.33086608275927143
0.1870212765957447 0.4652461878246102 0.3241099082359513
0.18723404255319148 0.46650837291023717 0.32486565705911086
0.1874468085106383 0.4668511216719877 0.32486565705911086
0.1876595744680851 0.46946751343429405 0.3271552771188123
0.18787234042553191 0.4715394300456053 0.3336082874325807
0.18808510638297873 0.47320920241559533 0.3388553734142134
0.18829787234042553 0.47152302582800076 0.3506371259308724
0.18851063829787235 0.4705091561235908 0.35710796287249624
0.18872340425531914 0.47123563389569756 0.35710796287249624
0.18893617021276596 0.47075305726747957 0.35741646713557923
0.18914893617021278 0.47270529569782527 0.35594549723705554
0.18936170212765957 0.47380725821970743 0.3526543515269864
0.1895744680851064 0.4753702172456294 0.35355246204260005
0.18978723404255318 0.47395190616200483 0.3588866126882033
0.19 0.47066063322182944 0.36456414573759555
0.1902127659574468 0.47529142249772655 0.3697711489266469
0.19042553191489361 0.4751272326324256 0.37344940977283186
0.19063829787234043 0.4738204629574483 0.38135903795583126
0.19085106382978723 0.473948766540841 0.38877717385974525
0.19106382978723405 0.470011774025522 0.3950638639566931
0.19127659574468084 0.46730635363340184 0.40563332565625043
0.19148936170212766 0.461574437541043 0.4190831629977881
0.19170212765957448 0.45805636693181045 0.427491866473743
0.19191489361702127 0.4549159056194897 0.4387980057264205
0.1921276595744681 0.45481191988275516 0.4508159989779986
0.19234042553191488 0.45439482278441073 0.4603227633807849
0.1925531914893617 0.45352319182463674 0.4639589386077492
0.19276595744680852 0.4534464856465417 0.47063269743262687
0.19297872340425531 0.45303138381421854 0.4816579553846502
0.19319148936170213 0.45452904278911344 0.4853830236495772
0.19340425531914893 0.45481191988275516 0.48673470413821024
0.19361702127659575 0.45760932084013206 0.4917165606251021
0.19382978723404254 0.45450152696126195 0.5040518895397512
0.19404255319148936 0.4505356345147829 0.5102056681324263
0.19425531914893618 0.4487200704176658 0.5203274089474823
0.19446808510638297 0.44696629979916713 0.5317212052687713
0.1946808510638298 0.445489941042497 0.5371712489350057
0.19489361702127658 0.4460185637518319 0.5431911280244477
0.1951063829787234 0.4446876360865182 0.5483384552329237
0.19531914893617022 0.44019011007562436 0.5519093829043077
0.19553191489361701 0.4374010683451925 0.5542940953089355
0.19574468085106383 0.4419174659659057 0.5505893605393113
0.19595744680851063 0.43556525520878786 0.551244710594827
0.19617021276595745 0.43801903999163233 0.5469386502802942
0.19638297872340427 0.43863198504818424 0.5382900211986482
0.19659574468085106 0.435750084409597 0.5314234514303886
0.19680851063829788 0.43342418629004237 0.5326536746423302
0.19702127659574467 0.4316064535494313 0.5322384230964484
0.1972340425531915 0.4322145381532526 0.534427278162595
0.19744680851063828 0.4342839506526218 0.5388170463956199
0.1976595744680851 0.4273442102081082 0.5466536394723986
0.19787234042553192 0.42670850473589855 0.5475765690168723
0.19808510638297872 0.4277887281113048 0.550561797752809
0.19829787234042554 0.42758763285554213 0.5514060163872522
0.19851063829787233 0.4275510075177105 0.5514426417250838
0.19872340425531915 0.42777857921587104 0.5486019809304662
0.19893617021276597 0.4259155955808648 0.5460914627034833
0.19914893617021276 0.4299592696962799 0.5438931851356551
0.19936170212765958 0.431362970200293 0.536722464363892
0.19957446808510637 0.4316611838338311 0.5308051913867075
0.1997872340425532 0.43358290439590214 0.5223207439722122
0.2 0.4335243979266438 0.5165727613853638
0.2002127659574468 0.431835818085668 0.5103464563818387
0.20042553191489362 0.4332297903122579 0.5062402508987448
0.20063829787234042 0.43207904165365296 0.5036416207555954
0.20085106382978724 0.43393600400898713 0.5009715029453193
0.20106382978723403 0.43429408891060084 0.496837996923701
0.20127659574468085 0.436307131219841 0.4915351261312394
0.20148936170212767 0.443369155160214 0.47980132937269954
0.20170212765957446 0.4418323178280115 0.4707865633314081
0.20191489361702128 0.44542758208780253 0.46075612680655315
0.20212765957446807 0.4457123403552697 0.45589469999220616
0.2023404255319149 0.4447299313110013 0.4505076468157802
0.2025531914893617 0.44269534057998383 0.4505138048633033
0.2027659574468085 0.4493282794323555 0.4527082300925784
0.20297872340425532 0.4451874349392551 0.44992672203224227
0.20319148936170212 0.44712366848797636 0.4497569271514301
0.20340425531914894 0.4445268637244397 0.44751026377922415
0.20361702127659576 0.44716021249854665 0.44406448461162684
0.20382978723404255 0.44654427192320106 0.4393331110693042
0.20404255319148937 0.4502156672409536 0.42625494950745013
0.20425531914893616 0.45485355810126016 0.41193111448062625
0.20446808510638298 0.4574999959932949 0.3960582860346555
0.20468085106382977 0.457743038593063 0.38838652299964743
0.2048936170212766 0.4617665470126434 0.3779107325797328
0.2051063829787234 0.4633315437745666 0.3718028528861501
0.2053191489361702 0.4676901257961094 0.3656362817503888
0.20553191489361702 0.4685632642514307 0.35622797715204596
0.20574468085106382 0.46675614751147054 0.35102597266439667
0.20595744680851064 0.465356534334766 0.3481117859224553
0.20617021276595746 0.46537987834585387 0.3481351299335432
0.20638297872340425 0.4691597929467886 0.35011482563802554
0.20659574468085107 0.47218649646811117 0.35523873800288747
0.20680851063829786 0.4681538436592681 0.35726806521379106
0.20702127659574468 0.47338243892365434 0.3594856069777097
0.2072340425531915 0.4734708482582171 0.36456687406211197
0.2074468085106383 0.4691366330302835 0.36583826325100327
0.2076595744680851 0.47398306412460445 0.36172243999568565
0.2078723404255319 0.4715367826290293 0.36079767522798006
0.20808510638297872 0.47482028911741925 0.3531397961494661
0.20829787234042554 0.4762873175628454 0.3493890106225095
0.20851063829787234 0.4754705527285151 0.3547400516566102
0.20872340425531916 0.4755232171993478 0.35912976674348485
0.20893617021276595 0.4714897821670573 0.3653877619087742
0.20914893617021277 0.4679966400742191 0.37720635612357445
0.20936170212765956 0.46568715667047234 0.38835810492824385
0.20957446808510638 0.462403986734821 0.39783933437296715
0.2097872340425532 0.4599589043458565 0.4026361427484356
0.21 0.46453304888084046 0.40206163643780357
0.2102127659574468 0.4636632696143088 0.40130671792963374
0.2104255319148936 0.4658988917645664 0.40531204585271957
0.21063829787234042 0.4706824016795292 0.4089392498236465
0.21085106382978724 0.466944421654981 0.4182645541793882
0.21106382978723404 0.4669809854471565 0.4298481816788992
0.21127659574468086 0.4665363947239862 0.4408575050929157
0.21148936170212765 0.465758988162361 0.4463967042965026
0.21170212765957447 0.4637669660883341 0.45147657598580887
0.2119148936170213 0.46169416193503654 0.4552733787140993
0.21212765957446808 0.4622996574305104 0.4412715630005702
0.2123404255319149 0.4606741573033708 0.4239949888952219
0.2125531914893617 0.4598496906547215 0.408722370565133
0.2127659574468085 0.45657044808848396 0.39374658920020383
0.2129787234042553 0.45481191988275516 0.3920010608592811
0.21319148936170212 0.45481191988275516 0.3924698246541339
0.21340425531914894 0.45754543863925806 0.40503780825986946
0.21361702127659574 0.457449333570301 0.42691051688893517
0.21382978723404256 0.4528578407425501 0.45368218410976
0.21404255319148935 0.45255041028973103 0.48265333351092193
0.21425531914893617 0.45104326500951564 0.5082706051439637
0.214468085106383 0.4494017511293082 0.5282939390951716
0.21468085106382978 0.44831234909715967 0.5400699105962732
0.2148936170212766 0.4464738849329631 0.5440165785604967
0.2151063829787234 0.442549843420881 0.5420980200839803
0.2153191489361702 0.4411550524912892 0.5407769443251362
0.21553191489361703 0.4436962653294915 0.5385918433901544
0.21574468085106382 0.4413736178882704 0.5359222358235671
0.21595744680851064 0.4406667675687206 0.5347796328693386
0.21617021276595744 0.43868248455434994 0.5335381470714265
0.21638297872340426 0.44096846227333747 0.5344344537472232
0.21659574468085105 0.4413971978758707 0.54142632131923
0.21680851063829787 0.4403011148759932 0.5460744852932917
0.2170212765957447 0.43825538813773524 0.5514059849561015
0.21723404255319148 0.4353611109938135 0.5587380443660703
0.2174468085106383 0.4366574752788341 0.5633095406641101
0.2176595744680851 0.4378864972634254 0.5678029702997247
0.2178723404255319 0.43635766529583553 0.5678242360971486
0.21808510638297873 0.43305890803373814 0.5661944308744504
0.21829787234042553 0.43403513362632795 0.5635222674484155
0.21851063829787234 0.4313376867683975 0.5638596492789624
0.21872340425531914 0.4340068219198136 0.561524683267028
0.21893617021276596 0.4350944370145196 0.5603763663203807
0.21914893617021278 0.4320141314965399 0.5611464426998758
0.21936170212765957 0.4355491398026112 0.5603321934538348
0.2195744680851064 0.43624816805080613 0.5611123739423018
0.21978723404255318 0.43374272705548594 0.5652928017884241
0.22 0.43570412117740825 0.5731098254170729
0.2202127659574468 0.43968590096453997 0.5811576147828267
0.2204255319148936 0.4392967796889768 0.587101836777392
0.22063829787234043 0.44015510273780317 0.5886651173933968
0.22085106382978723 0.44260673391174293 0.5756199105386808
0.22106382978723405 0.43989856319656345 0.5623582898853852
0.22127659574468084 0.44283202105034064 0.5422632185952396
0.22148936170212766 0.4435841885177263 0.5208854462319426
0.22170212765957448 0.4436859614357914 0.5068506137519712
0.22191489361702127 0.44621094952674484 0.4933855108522703
0.2221276595744681 0.44950101227547473 0.49416102599568223
0.22234042553191488 0.44992672203224227 0.47408556316449024
0.2225531914893617 0.4496606592948407 0.46111907139867025
0.22276595744680852 0.44741178446001434 0.4524595103482188
0.2229787234042553 0.44894968246213973 0.4341899501995646
0.22319148936170213 0.44940514681043936 0.41437125579997636
0.22340425531914893 0.44762506418935544 0.3957762704359759
0.22361702127659575 0.44810282843018057 0.37614992572300715
0.22382978723404254 0.4497637407467967 0.3512491180221644
0.22404255319148936 0.4471279249164287 0.3296118521046515
0.22425531914893618 0.4482850155816689 0.30880438640422947
0.22446808510638297 0.45207579042519364 0.28989350170728045
0.2246808510638298 0.4512962658620852 0.27613396247945227
0.22489361702127658 0.44754005140409214 0.26625811774186087
0.2251063829787234 0.44644427888381727 0.2580501383737393
0.22531914893617022 0.4460185637518319 0.2568381414443581
0.225531914893617 0.4460185637518319 0.2606086096531483
0.22574468085106383 0.44692451132011257 0.27313540339009185
0.22595744680851063 0.4481530107028307 0.28748258506828384
0.22617021276595745 0.4525449180737483 0.3067105068052061
0.22638297872340427 0.45522999300609984 0.33506333957727324
0.22659574468085106 0.4554143901964504 0.36070247654012555
0.22680851063829788 0.45825621569705843 0.3820270985039446
0.22702127659574467 0.46125399124977856 0.396372173999313
0.2272340425531915 0.4633816953336732 0.40288795883739337
0.22744680851063828 0.4636052760136786 0.4014026269199601
0.2276595744680851 0.4626338311870602 0.3902769555646252
0.22787234042553192 0.46540159642973283 0.3712190744230846
0.22808510638297871 0.4702543798500923 0.3584049837686342
0.22829787234042553 0.46688957613648724 0.3542593488295887
0.22851063829787233 0.467513434294089 0.3584972753666093
0.22872340425531915 0.4681075724458516 0.3687399171258215
0.22893617021276597 0.46705882261479487 0.3772967636877318
0.22914893617021276 0.46402175915697885 0.38866137568278336
0.22936170212765958 0.46936237722857554 0.3989629600783299
0.22957446808510637 0.4703442250464266 0.4072642048312356
0.2297872340425532 0.4699131536081118 0.4182158156151417
0.23 0.47073932080364755 0.4170485125341802
0.2302127659574468 0.4690099564962418 0.4190570870330138
0.23042553191489362 0.4731033730359755 0.42176875972211064
0.23063829787234041 0.4714082430005862 0.42466899153698096
0.23085106382978723 0.46946751343429405 0.4255007327796776
0.23106382978723405 0.4675709977472575 0.4302420219972692
0.23127659574468085 0.46791289955577753 0.4306747177843975
0.23148936170212767 0.46262823644357587 0.431989932302035
0.23170212765957446 0.4615950103577337 0.4233219075765138
0.23191489361702128 0.4611047936436931 0.4100996334369518
0.23212765957446807 0.4590476686844161 0.3980382493054875
0.2323404255319149 0.45676599902296044 0.3964099148085847
0.2325531914893617 0.4550634922478697 0.3997203454093384
0.2327659574468085 0.45773471896604967 0.41178890029018794
0.23297872340425532 0.456028854484103 0.42937397216984374
0.23319148936170211 0.45848455908404767 0.4480309149814219
0.23340425531914893 0.45992771210870953 0.46859979800086593
0.23361702127659575 0.4587200781631655 0.4852576710248758
0.23382978723404255 0.461227090221567 0.5019674717802596
0.23404255319148937 0.45659870253547113 0.5196311244845045
0.23425531914893616 0.45558237899236814 0.5332206582149036
0.23446808510638298 0.4532193570124288 0.5487542164034153
0.2346808510638298 0.45188091957983273 0.5525156400782437
0.2348936170212766 0.4537125924169647 0.5591105780923564
0.2351063829787234 0.45188842520549055 0.557643428627792
0.2353191489361702 0.44931404733388475 0.5561919250831594
0.23553191489361702 0.44847758960427947 0.5515497886077056
0.23574468085106381 0.4487963046464599 0.5445594600043907
0.23595744680851063 0.4484879340561595 0.5343168561594103
0.23617021276595745 0.44629556071980325 0.5345136691792106
0.23638297872340425 0.44889268610305544 0.531097001496203
0.23659574468085107 0.45097240086701584 0.52839268774226
0.23680851063829786 0.4435303210896469 0.5330139485673098
0.23702127659574468 0.4446997027972999 0.5411816480193984
0.2372340425531915 0.4399064102795667 0.543260512502973
0.2374468085106383 0.4329418318033068 0.5450747778693849
0.2376595744680851 0.4264310832684269 0.550176415852303
0.2378723404255319 0.42287443766024674 0.546591070674927
0.23808510638297872 0.4187923631712042 0.5447322871777546
0.23829787234042554 0.41648900906674674 0.5425999028039832
0.23851063829787233 0.4113021391573566 0.5382279896726208
0.23872340425531915 0.41323761447603463 0.5354678080935794
0.23893617021276595 0.41182217879824123 0.5364967930717994
0.23914893617021277 0.41384503360889485 0.5333776356879532
0.23936170212765956 0.4163536436698609 0.5291510865771296
0.23957446808510638 0.41745099663427915 0.5266026476693998
0.2397872340425532 0.42201597647933153 0.5200716241355797
0.24 0.4303219879227277 0.513423636971
0.2402127659574468 0.42426757927764674 0.5122011405868797
0.2404255319148936 0.42355397306252573 0.508042277895713
0.24063829787234042 0.4275694272582674 0.5014605496165685
0.24085106382978724 0.4284444384098132 0.5017224061675075
0.24106382978723404 0.42926146005515414 0.5001305636324864
0.24127659574468086 0.4325520132905425 0.49903371255402373
0.24148936170212765 0.43499686869615456 0.49877870053737183
0.24170212765957447 0.4410128805070432 0.49877870053737183
0.2419148936170213 0.4495118255489188 0.49358233032436616
0.24212765957446808 0.4460185637518319 0.4898885613181601
0.2423404255319149 0.44662016610085753 0.48397157790444856
0.2425531914893617 0.4475534472763531 0.4746267573627956
0.2427659574468085 0.44699560332193444 0.46525962256511333
0.2429787234042553 0.45029535185905395 0.45932848790645653
0.24319148936170212 0.45032474442922277 0.45074078324855194
0.24340425531914894 0.45172370383553284 0.4444572279539135
0.24361702127659574 0.4547718801857258 0.42713449434364753
0.24382978723404256 0.4542996987145995 0.4179341612185901
0.24404255319148935 0.45732021778213217 0.40584285691248906
0.24425531914893617 0.4603108046634846 0.3953598534412467
0.244468085106383 0.46366256134483197 0.39027002292483093
0.24468085106382978 0.4652170014600988 0.3887155828095641
0.2448936170212766 0.4760908927671338 0.38611647105579705
0.2451063829787234 0.47053477609696226 0.3845717971016356
0.2453191489361702 0.46948079233375684 0.37153781513316736
0.24553191489361703 0.4704445530043966 0.35300441271285515
0.24574468085106382 0.47018754855209316 0.3377222194445257
0.24595744680851064 0.4690931388558999 0.3308101007279608
0.24617021276595744 0.46799985356219664 0.3287780163734085
0.24638297872340426 0.467513434294089 0.3273898615691632
0.24659574468085105 0.46890645727417263 0.3251461851391716
0.24680851063829787 0.46865470788262675 0.32405285150744356
0.2470212765957447 0.4703584927678248 0.32108658913355814
0.24723404255319148 0.4720794022317597 0.3195620719859692
0.2474468085106383 0.4686880791357039 0.3264355124437505
0.2476595744680851 0.4713689646390015 0.3287738153395212
0.2478723404255319 0.4757665873739889 0.33008432489675893
0.24808510638297873 0.4757495509805906 0.33616284960520265
0.24829787234042552 0.4732967830930067 0.34562015389635853
0.24851063829787234 0.47239863214460187 0.35151391513905694
0.24872340425531914 0.4714769238329498 0.35867472320354826
0.24893617021276596 0.4713600939203744 0.3669398572276471
0.24914893617021278 0.47026279650891734 0.3687641806210211
0.24936170212765957 0.46886206242469636 0.3742542235181321
0.2495744680851064 0.46793808975920254 0.3776257938446508
0.24978723404255318 0.4679471737333006 0.38305879515356045
0.25 0.4668521717454163 0.3887187146430217
0.2502127659574468 0.4704049479410605 0.38935026868588185
0.25042553191489364 0.4687303176100976 0.3965270019242863
0.25063829787234043 0.4683196471294063 0.40150181036407584
0.2508510638297872 0.46458231558378116 0.4125502682386566
0.251063829787234 0.46368924572179754 0.42180629474514286
0.25127659574468086 0.4612277812332982 0.4296046808916767
0.25148936170212766 0.4590318760866429 0.4411750117009896
0.25170212765957445 0.4597500694500645 0.45240063732406827
0.2519148936170213 0.4567031246223005 0.4621426117425705
0.2521276595744681 0.4557889594528579 0.46912212712518236
0.2523404255319149 0.4570444879880183 0.47176970378082167
0.2525531914893617 0.46008318463236375 0.4757158177540052
0.2527659574468085 0.45677259884013677 0.4724052319617782
0.2529787234042553 0.4539154616722247 0.47178924032019237
0.2531914893617021 0.45688853000383045 0.47279985896309296
0.25340425531914895 0.455472571227944 0.47239863214460187
0.25361702127659574 0.4554968587805438 0.4748915998464386
0.25382978723404254 0.44910655506815383 0.4848760428330582
0.2540425531914894 0.45402945586647103 0.5070840571083701
0.2542553191489362 0.4468110616819828 0.513325631348222
0.25446808510638297 0.4477840145615266 0.5256642376739679
0.25468085106382976 0.4494129124608804 0.5387854076980985
0.2548936170212766 0.44496188643255075 0.5448588358305507
0.2551063829787234 0.44277279370958106 0.5531120939826271
0.2553191489361702 0.4382809695948992 0.5594875838746424
0.25553191489361704 0.439883142742642 0.5594462150799238
0.25574468085106383 0.43822961039745223 0.5583233879007476
0.2559574468085106 0.43889231986764654 0.5561370682799572
0.2561702127659574 0.43722520762090866 0.5557831669127443
0.25638297872340426 0.4368417332533788 0.5585882051486725
0.25659574468085106 0.43624816805080613 0.559930674560156
0.25680851063829785 0.43749974249759427 0.5610346981472518
0.2570212765957447 0.43671522741750873 0.5670237824345965
0.2572340425531915 0.43366075069997545 0.5734379118361427
0.2574468085106383 0.433310358542246 0.574050892224785
0.25765957446808513 0.43208123128297665 0.5796142063684675
0.2578723404255319 0.4303859306301905 0.5759046773059276
0.2580851063829787 0.4300328073938535 0.566924480027828
0.2582978723404255 0.43203313267690485 0.5534365081734867
0.25851063829787235 0.4336033964616955 0.5326043073020378
0.25872340425531914 0.43438063747885763 0.5146588000538832
0.25893617021276594 0.4312532923528633 0.5016639358973546
0.2591489361702128 0.42761132698129123 0.4905070612778102
0.2593617021276596 0.4324083105825483 0.48280456335496763
0.25957446808510637 0.43257192485280116 0.4778883073213687
0.2597872340425532 0.4300054454112342 0.4751136817227196
0.26 0.431362970200293 0.4740587721178841
0.2602127659574468 0.4308309371781 0.4763067904250122
0.2604255319148936 0.43168469636867957 0.4743586418172787
0.26063829787234044 0.4323400097703958 0.4749136765981205
0.26085106382978723 0.43145045198848303 0.47710886641873473
0.261063829787234 0.434363085312589 0.47812287676124093
0.2612765957446809 0.43687334723573973 0.4741964164885736
0.26148936170212767 0.4404350192388703 0.47281828589939673
0.26170212765957446 0.4427315377827846 0.4706225066337665
0.26191489361702125 0.445566206471352 0.4663194196965585
0.2621276595744681 0.4497332350777577 0.4592714928000986
0.2623404255319149 0.4525956907451 0.45247666158704547
0.2625531914893617 0.45368678861204204 0.4459300743853929
0.26276595744680853 0.4528872199516401 0.44314620345970407
0.2629787234042553 0.4522397218188091 0.43784332654464964
0.2631914893617021 0.4557889594528579 0.4347175298882198
0.26340425531914896 0.4541254470554166 0.4325884407764353
0.26361702127659575 0.4495425552596506 0.42368579098941855
0.26382978723404255 0.4502714437445695 0.41642027258106956
0.26404255319148934 0.454668484496496 0.4030423267341744
0.2642553191489362 0.4557889594528579 0.38927332161691325
0.264468085106383 0.45484586028250124 0.37890829701246775
0.26468085106382977 0.4558766276905799 0.37692444794287483
0.2648936170212766 0.45696940453666895 0.3702162883112471
0.2651063829787234 0.4574188406148343 0.37241195238049263
0.2653191489361702 0.45676599902296044 0.3728289524733693
0.265531914893617 0.45845611819091286 0.3689466911441145
0.26574468085106384 0.4583432631992331 0.364170649505452
0.26595744680851063 0.4601212913271016 0.35424994026830375
0.2661702127659574 0.4588515994853355 0.3440212548408249
0.2663829787234043 0.4636117697146644 0.3326430114140168
0.26659574468085107 0.4642009610309129 0.327709563489342
0.26680851063829786 0.46214620756764074 0.33737159339628936
0.2670212765957447 0.46397290079147585 0.3534613536307341
0.2672340425531915 0.4655606098279862 0.3683520733103423
0.2674468085106383 0.4665363947239862 0.3807822958585853
0.2676595744680851 0.4658079526345155 0.39102104964060563
0.26787234042553193 0.46978733789323274 0.39241283041842223
0.2680851063829787 0.46947980878516926 0.393246131615417
0.2682978723404255 0.4705530699173207 0.39282435931459575
0.26851063829787236 0.47165267544007916 0.38842593722356256
0.26872340425531915 0.4727500996043873 0.38333330564675894
0.26893617021276595 0.4733756717147044 0.38240882828492906
0.26914893617021274 0.47218622732884225 0.3836579438266781
0.2693617021276596 0.47429213134210757 0.38466389577086985
0.2695744680851064 0.4728114297556819 0.3862815507718807
0.26978723404255317 0.47143818846903585 0.3921818120289705
0.27 0.47369007628572196 0.39357283153730976
0.2702127659574468 0.4763067904250122 0.397743600251494
0.2704255319148936 0.4752884282658398 0.40676281725095026
0.27063829787234045 0.4724490309551311 0.41887278211610024
0.27085106382978724 0.4720092115034976 0.42922464464156135
0.27106382978723403 0.47239863214460187 0.43875272693464945
0.2712765957446808 0.47072687709511896 0.45450740629718156
0.2714893617021277 0.4666138406636973 0.46825813604505817
0.27170212765957447 0.46339773682966123 0.48233345378762077
0.27191489361702126 0.46165119687347334 0.4905676320448123
0.2721276595744681 0.4630654466496367 0.4846629363498746
0.2723404255319149 0.4617271447571899 0.47833681744893386
0.2725531914893617 0.45653364617529285 0.4646775719426454
0.2727659574468085 0.454329499795637 0.4492335903912302
0.27297872340425533 0.4563901350750631 0.4289835320024292
0.2731914893617021 0.45481579600908156 0.41282635125262873
0.2734042553191489 0.45371046426654754 0.4092643082262489
0.27361702127659576 0.4526163184748978 0.4149619682777213
0.27382978723404255 0.4522434597396438 0.43105154741910784
0.27404255319148935 0.451398072057737 0.4469763010874651
0.2742553191489362 0.4481229638027171 0.45849458134737286
0.274468085106383 0.4462809389286922 0.4704895447692414
0.2746808510638298 0.4401742138878186 0.48088983582557854
0.27489361702127657 0.4401341755934812 0.49362769383403565
0.2751063829787234 0.4438723981872562 0.5042401576609966
0.2753191489361702 0.44211040547142155 0.5125152014403654
0.275531914893617 0.4417779312845852 0.5255320090977911
0.27574468085106385 0.4424898576783995 0.5327569503348155
0.27595744680851064 0.44235818218351486 0.5370437391533448
0.27617021276595743 0.44182067609050124 0.5392349037198398
0.2763829787234042 0.44452595909703174 0.5365936243142003
0.2765957446808511 0.44133320763556844 0.5386874416108909
0.27680851063829787 0.43729808714933843 0.5461138770728746
0.27702127659574466 0.43898135052989573 0.5523179406617961
0.2772340425531915 0.44148161702879474 0.5573333609312024
0.2774468085106383 0.4371144920247149 0.5678274493950122
0.2776595744680851 0.4327614659007622 0.5787427437741569
0.27787234042553194 0.43505184157402865 0.5842398141805304
0.27808510638297873 0.4354517058744746 0.5889210709818277
0.2782978723404255 0.4343662263327253 0.5941678912968029
0.2785106382978723 0.4333170493404983 0.5977339114356525
0.27872340425531916 0.43298244609088266 0.6031546329135409
0.27893617021276595 0.4333731375408405 0.6011962279165047
0.27914893617021275 0.436984357374758 0.5964069203274139
0.2793617021276596 0.43316962481300153 0.5903992833357701
0.2795744680851064 0.4339450189292194 0.5844617405055493
0.2797872340425532 0.4368056613961127 0.5782005048199668
0.27999999999999997 0.4390048063646994 0.5671540730547292
0.2802127659574468 0.43422462095943626 0.5609271592925323
0.2804255319148936 0.4329574480175831 0.5482464043258565
0.2806382978723404 0.43569720302327347 0.5317739664947752
0.28085106382978725 0.43429408891060084 0.5185067499183551
0.28106382978723404 0.433783438176178 0.5082835248459385
0.28127659574468084 0.4364740040518511 0.4938473856259941
0.2814893617021277 0.43970360735911646 0.47924946374366234
0.2817021276595745 0.4392855374747029 0.46411574643382353
0.28191489361702127 0.440202342221426 0.44875411492874917
0.28212765957446806 0.44406448461162684 0.4291648685639462
0.2823404255319149 0.44426680273065794 0.40346302189914696
0.2825531914893617 0.4450415241817294 0.37914387344318623
0.2827659574468085 0.44373318735264916 0.35522499433601334
0.28297872340425534 0.44322405645860746 0.3315994621085254
0.28319148936170213 0.44270850300169723 0.31854458432397925
0.2834042553191489 0.4429061703006107 0.3186408701566686
0.2836170212765957 0.44765099321794755 0.3244796774502033
0.28382978723404256 0.44314258114987704 0.33220115902500574
0.28404255319148936 0.44494315096605425 0.3420798896187216
0.28425531914893615 0.44953873738008204 0.3534150307372718
0.284468085106383 0.45214348474002475 0.36834233388972487
0.2846808510638298 0.4538348803126526 0.38260637362276434
0.2848936170212766 0.4551478723695465 0.39625118145714205
0.2851063829787234 0.4557889594528579 0.4055499426226792
0.2853191489361702 0.4603007891209884 0.4195701040184939
0.285531914893617 0.45299616796072234 0.41963849535906195
0.2857446808510638 0.457132667013087 0.41913460502397604
0.28595744680851065 0.461004005072847 0.4152622261260701
0.28617021276595744 0.4559769644857713 0.409492089592209
0.28638297872340424 0.45822215848935677 0.4035643418961567
0.2865957446808511 0.46051558053061076 0.396885238003074
0.2868085106382979 0.46165119687347334 0.3899075596204096
0.28702127659574467 0.46502723353525327 0.38077714662677437
0.28723404255319146 0.46748867139304284 0.3757212405065377
0.2874468085106383 0.4665363947239862 0.36401249372657407
0.2876595744680851 0.4672324381098563 0.34697150169210866
0.2878723404255319 0.47088369425318427 0.3359807985634241
0.28808510638297874 0.47146381416025424 0.3283169617437862
0.28829787234042553 0.46946751343429405 0.3262173968289766
0.2885106382978723 0.47019259262925756 0.3251176174342499
0.28872340425531917 0.47128888331723534 0.32402132674627226
0.28893617021276596 0.47335302220430403 0.327751476748618
0.28914893617021276 0.4722900856923787 0.3315962660975122
0.28936170212765955 0.47025904442810607 0.3392417399283831
0.2895744680851064 0.46759836617516404 0.34466124410438825
0.2897872340425532 0.4704167116704589 0.35454007794451975
0.29 0.4726071773489663 0.3626187963361025
0.2902127659574468 0.47479513881546515 0.3698924142859793
0.2904255319148936 0.4819875880279958 0.37925362324375694
0.2906382978723404 0.4754797308539958 0.3920564173975603
0.2908510638297872 0.47152758990128746 0.4038768012816231
0.29106382978723405 0.47055228979139885 0.4136146527579433
0.29127659574468084 0.4631630855200852 0.4282465343241535
0.29148936170212764 0.45876248129666813 0.44680478922117317
0.2917021276595745 0.4549638909529086 0.46179598635303054
0.2919148936170213 0.45455222450299987 0.4734501412477039
0.29212765957446807 0.45481191988275516 0.4796492916847148
0.2923404255319149 0.4509750715021986 0.4802149487054226
0.2925531914893617 0.4453557121739738 0.4802149487054226
0.2927659574468085 0.44773960774947774 0.4818461947033385
0.2929787234042553 0.44699560332193444 0.48994078137273966
0.29319148936170214 0.44943703058255097 0.4973119695175779
0.29340425531914893 0.4574302303715796 0.5046885660622584
0.2936170212765957 0.45844521041490094 0.5120299504452346
0.29382978723404257 0.457743038593063 0.5230203726735589
0.29404255319148936 0.4488676840213977 0.5321948421786407
0.29425531914893616 0.44473148980343713 0.543989322838815
0.29446808510638295 0.44720643052638825 0.5459256358931177
0.2946808510638298 0.4417409751167216 0.5462842091176987
0.2948936170212766 0.441133365901319 0.5393174293034685
0.2951063829787234 0.442960422095084 0.5317570480284524
0.29531914893617023 0.44041061588926617 0.5302902326062852
0.295531914893617 0.4357820962319679 0.5291946691483681
0.2957446808510638 0.436241034777561 0.5290669272105519
0.29595744680851066 0.43417583673388505 0.5261358085002443
0.29617021276595745 0.43260138391169056 0.5251815879285007
0.29638297872340424 0.43074774949518413 0.5218658313548402
0.29659574468085104 0.43087931519277406 0.5188323356121362
0.2968085106382979 0.43159348498065964 0.5205918530258602
0.2970212765957447 0.42872011720564507 0.5224807112769865
0.29723404255319147 0.42914119309045906 0.5272867937315628
0.2974468085106383 0.43133726866183697 0.5271256988395749
0.2976595744680851 0.4300422226644076 0.5427184390283653
0.2978723404255319 0.4334616995809489 0.5519188694276248
0.29808510638297875 0.42845275403417565 0.5607484510020274
0.29829787234042554 0.4295395556526812 0.5703951120510222
0.29851063829787233 0.4327717594660671 0.5736841337860965
0.2987234042553191 0.4315952875256112 0.5716643009159488
0.298936170212766 0.4309775799266229 0.5653965225552556
0.29914893617021276 0.43316899138618925 0.5561132563977126
0.29936170212765956 0.4284318514899854 0.5416536552456056
0.2995744680851064 0.4287464546600364 0.5380508149864504
0.2997872340425532 0.43178179463844846 0.5322770882511554
0.3 0.4328756709515028 0.5288883734835164
0.3002127659574468 0.42733529759755795 0.5284887716837572
0.30042553191489363 0.42741363921246456 0.5251999416375599
0.3006382978723404 0.431456821142315 0.5166193052292152
0.3008510638297872 0.4314637525935536 0.5038962475369089
0.30106382978723406 0.4333170493404983 0.4866121667040117
0.30127659574468085 0.43419045598226935 0.4642073103459301
0.30148936170212765 0.43944806305876427 0.44552823564933464
0.3017021276595745 0.4401563263312165 0.42704057791926286
0.3019148936170213 0.43964316496212297 0.4211286962982581
0.3021276595744681 0.4422108934490898 0.424017859849648
0.30234042553191487 0.4412570717022926 0.4346248247350137
0.3025531914893617 0.4467219962451606 0.4496921695404136
0.3027659574468085 0.44703281745596773 0.45751975378886334
0.3029787234042553 0.44398191420545974 0.4697152246527953
0.30319148936170215 0.4436931664360193 0.47260053927610024
0.30340425531914894 0.4463395890763179 0.4743387476881623
0.30361702127659573 0.4496445731901463 0.4723333356226946
0.3038297872340425 0.4506017853685277 0.4613092820155273
0.3040425531914894 0.4523735277032919 0.4519726156853473
0.30425531914893617 0.461905560518147 0.4426631098472974
0.30446808510638296 0.461763096766549 0.43100138004210636
0.3046808510638298 0.46177691896623624 0.4190098848952473
0.3048936170212766 0.4632465204003111 0.40663929913772867
0.3051063829787234 0.46135622800305987 0.3863820099879195
0.30531914893617024 0.4614565854694314 0.3625690298353492
0.30553191489361703 0.46400228272955785 0.33588718145495416
0.3057446808510638 0.4655593551538837 0.31206238586775165
0.3059574468085106 0.4675168293190776 0.29554088985607846
0.30617021276595746 0.4692057655696979 0.28950043655910357
0.30638297872340425 0.4662423640794429 0.2935529169975917
0.30659574468085105 0.4683208043818161 0.3047027442216827
0.3068085106382979 0.470632343618181 0.3117504749190281
0.3070212765957447 0.4728316618196416 0.3205244691036608
0.3072340425531915 0.4713459330821412 0.32261111789299085
0.30744680851063827 0.4725452339617737 0.3202736628429416
0.3076595744680851 0.47354595753735057 0.3169641975869671
0.3078723404255319 0.4805207194961257 0.3154234298480357
0.3080851063829787 0.4816101990081293 0.3204708007846885
0.30829787234042555 0.476758241606823 0.32548153568376476
0.30851063829787234 0.4838214407525393 0.3320669335297814
0.30872340425531913 0.47420842475142266 0.34429512809136564
0.308936170212766 0.47231709777807296 0.35193808115325426
0.3091489361702128 0.46907916524481014 0.3602270865811534
0.30936170212765957 0.4674694605145954 0.36454569409699933
0.30957446808510636 0.4652682474796705 0.3694146530621539
0.3097872340425532 0.4607942099060726 0.3707865168539326
0.31 0.46233266886164726 0.3725435509395186
0.3102127659574468 0.46551791879876453 0.37563027834932633
0.31042553191489364 0.46262823644357587 0.38226340046036067
0.31063829787234043 0.4624002529273959 0.3899691137290391
0.3108510638297872 0.4623547600975077 0.3980267590026345
0.311063829787234 0.46217956970216223 0.406830706164695
0.31127659574468086 0.4600744620529023 0.41804148223376125
0.31148936170212765 0.46332190647786614 0.4319940648053244
0.31170212765957445 0.46032395102546236 0.4463428763323325
0.3119148936170213 0.45676937335544976 0.4577317908180986
0.3121276595744681 0.4557889594528579 0.46877899342850743
0.3123404255319149 0.4555326597745922 0.4783090287081776
0.3125531914893617 0.4555761624557261 0.48195623084849604
0.3127659574468085 0.4572726409363964 0.4841593512426023
0.3129787234042553 0.457743038593063 0.4876282757151047
0.3131914893617021 0.46000888313562105 0.49051886786471793
0.31340425531914895 0.461551170985368 0.4944704387045401
0.31361702127659574 0.45874555137459033 0.5010384582146744
0.31382978723404253 0.45940309480218233 0.5146624265019524
0.3140425531914894 0.456696047174329 0.5297303266171818
0.3142553191489362 0.4534956852525042 0.5416319746134504
0.31446808510638297 0.45161684646793887 0.5551121100930501
0.31468085106382976 0.44939725272950803 0.5607797637212032
0.3148936170212766 0.44894968246213973 0.5635593735063809
0.3151063829787234 0.44742275447263463 0.5644539273095952
0.3153191489361702 0.4496412538589516 0.5615947011972282
0.31553191489361704 0.44701786329320836 0.560265413540013
0.31574468085106383 0.4481107842324526 0.5561578026797885
0.3159574468085106 0.4492085388582646 0.5478311494242291
0.31617021276595747 0.4484090106415782 0.543779460663966
0.31638297872340426 0.44502410842523754 0.538305263735297
0.31659574468085105 0.44098626560940246 0.5303654099972664
0.31680851063829785 0.438445235505321 0.5234425917913832
0.3170212765957447 0.43563795237749536 0.5188085904684796
0.3172340425531915 0.43331946928745196 0.5144161735529206
0.3174468085106383 0.43308940978466526 0.5123434347408915
0.3176595744680851 0.4315960794151578 0.5117133241635702
0.3178723404255319 0.432692042347636 0.511049124209847
0.3180851063829787 0.43237221601306397 0.5090215129021147
0.3182978723404255 0.43192865270867237 0.5078290882833626
0.31851063829787235 0.43433422980329267 0.5046007970652955
0.31872340425531914 0.4329206229497792 0.5044474002315261
0.31893617021276593 0.43143840234404535 0.507345760237038
0.3191489361702128 0.4314510215332715 0.5099223668069031
0.3193617021276596 0.4329933531830043 0.5192905804119056
0.31957446808510637 0.43389413108498875 0.5253066897532371
0.3197872340425532 0.4369410784340897 0.5305013235632945
0.32 0.4292090599630882 0.5386485497720263
0.3202127659574468 0.4303214872832906 0.5433861003475733
0.3204255319148936 0.4323400097703958 0.5437225207620908
0.32063829787234044 0.4296960604157738 0.538434622052847
0.32085106382978723 0.4293855009546556 0.5328347448583682
0.321063829787234 0.42857401498965614 0.5255490495739686
0.32127659574468087 0.4299300453601289 0.5142807955990544
0.32148936170212766 0.43211487642824725 0.5021578933007869
0.32170212765957445 0.4338083171079582 0.48751801363951447
0.32191489361702125 0.43246795643792685 0.47888509164615783
0.3221276595744681 0.4335357246906854 0.4697885269538353
0.3223404255319149 0.43187945304126607 0.46026952668608473
0.3225531914893617 0.43411185043744727 0.4523060242764725
0.3227659574468085 0.4371685323539424 0.4430307697745578
0.3229787234042553 0.437490025351936 0.44175558909967017
0.3231914893617021 0.4433837933300668 0.43897093317704594
0.32340425531914896 0.4448946155376312 0.43334270980979067
0.32361702127659575 0.4470861924515213 0.42620600496101985
0.32382978723404254 0.4505857051423462 0.4170139980136999
0.32404255319148934 0.4534239374544916 0.40451744024618164
0.3242553191489362 0.4564707587640911 0.3906296431409822
0.324468085106383 0.457743038593063 0.38039382502251057
0.32468085106382977 0.457878909526733 0.3706765889546751
0.3248936170212766 0.4599954922972952 0.3621616600754329
0.3251063829787234 0.46586404774960033 0.35560211504854844
0.3253191489361702 0.4664759599793438 0.3531998045920859
0.325531914893617 0.4623635799176345 0.3563040448321961
0.32574468085106384 0.46090855917776213 0.36031291552973266
0.32595744680851063 0.4666934939008195 0.36531564729394145
0.3261702127659574 0.46262823644357587 0.3707879146062973
0.32638297872340427 0.4629630012167008 0.3726290077364294
0.32659574468085106 0.4653301599728193 0.37176355642403514
0.32680851063829786 0.4652813282554659 0.3714140500881928
0.3270212765957447 0.46606602633411515 0.3698457800741904
0.3272340425531915 0.4691118694596101 0.3688324377137273
0.3274468085106383 0.47070935914962025 0.3617101034649377
0.3276595744680851 0.4712742029757974 0.3582323920413009
0.3278723404255319 0.47237071759683846 0.3561867523979206
0.3280851063829787 0.47425772328832816 0.352887680997335
0.3282978723404255 0.4738050718953243 0.3599208423739412
0.32851063829787236 0.4756624701152079 0.36230476177251536
0.32872340425531915 0.4763067904250122 0.35966779484727057
0.32893617021276594 0.4728849246164718 0.3546631366340586
0.32914893617021274 0.4683747226058366 0.34739316075867643
0.3293617021276596 0.47074966219230624 0.3364838613111679
0.3295744680851064 0.47327215379090504 0.32260740485349904
0.32978723404255317 0.4696036182227572 0.31161972349392464
0.33 0.4725546011688566 0.30472549561840895
0.3302127659574468 0.47666299755906905 0.3084748187533218
0.3304255319148936 0.4740309516952633 0.3205010441225424
0.33063829787234045 0.47128682518241755 0.3436484419369272
0.33085106382978724 0.4704445530043966 0.36706987182007816
0.33106382978723403 0.4696429617409726 0.39278037757973855
0.3312765957446808 0.46670947151002257 0.4164728787166024
0.33148936170212767 0.46537002646658865 0.4403783684473158
0.33170212765957446 0.4624417624751407 0.45979425224585024
0.33191489361702126 0.461345018842591 0.47032754204948574
0.3321276595744681 0.4602478880153206 0.4781891348772587
0.3323404255319149 0.45640838617732693 0.4875310428236521
0.3325531914893617 0.4518190769185535 0.49768172862354804
0.3327659574468085 0.45408382821547627 0.4983477297177282
0.33297872340425533 0.4538939418531557 0.5051454852040654
0.3331914893617021 0.45670337730037575 0.5099644878665931
0.3334042553191489 0.45541321632723414 0.5169290274876539
0.33361702127659576 0.45352197294782254 0.5224256051578272
0.33382978723404255 0.4511213562754877 0.5334081383782079
0.33404255319148934 0.4484152566491825 0.5425783036022785
0.3342553191489362 0.44608160612358994 0.5500890190286729
0.334468085106383 0.44429806391168236 0.5540027974331082
0.3346808510638298 0.44406448461162684 0.5570583571253965
0.33489361702127657 0.4421061252211842 0.5593465933832575
0.3351063829787234 0.441133365901319 0.5571565827108841
0.3353191489361702 0.4408898013742251 0.5554469956033219
0.335531914893617 0.4401563263312165 0.5547189194384302
0.33574468085106385 0.43967247616667193 0.5501059653113055
0.33595744680851064 0.440988803255213 0.5472568116370984
0.33617021276595743 0.4435583891649631 0.5440107198086476
0.3363829787234042 0.4415269216774752 0.5402079182578367
0.33659574468085107 0.43823175302326034 0.5369127496036218
0.33680851063829786 0.43993880360590976 0.5381865674294355
0.33702127659574466 0.43774540714636107 0.5414766621187582
0.3372340425531915 0.4369451347602176 0.5461619042450312
0.3374468085106383 0.43679753532049986 0.5533712214938316
0.3376595744680851 0.43291340878438356 0.5634971942623839
0.33787234042553194 0.4348991886998415 0.571684728514204
0.33808510638297873 0.435424903221545 0.5779732968407346
0.3382978723404255 0.4335306501982144 0.5797661844270285
0.3385106382978723 0.4333170493404983 0.5828026304546101
0.33872340425531916 0.4334357317545623 0.5819457464101558
0.33893617021276595 0.4345304119319864 0.5820951345020378
0.33914893617021274 0.4349197973669718 0.581278309310813
0.3393617021276596 0.43617264350486173 0.5847204204334274
0.3395744680851064 0.4364346166313928 0.5851460120899628
0.3397872340425532 0.4359796366137957 0.586175198972584
0.34 0.4354209965926768 0.5891937762209923
0.3402127659574468 0.4333788565561344 0.5801820209340671
0.3404255319148936 0.4359815680347191 0.5626402578155065
0.3406382978723404 0.43311120110597684 0.5300902520321632
0.34085106382978725 0.4333142671159988 0.489702325325407
0.34106382978723404 0.4352711284807034 0.4387584376901035
0.34127659574468083 0.4347039311188718 0.391088363465181
0.3414893617021277 0.43222243691719636 0.3567403578581711
0.3417021276595745 0.43298816380423355 0.3371026942821223
0.34191489361702126 0.43424654101500587 0.3206936776425222
0.34212765957446806 0.4361104605073504 0.3270132107485869
0.3423404255319149 0.43521841965189884 0.3446091410506528
0.3425531914893617 0.4393569087726032 0.3622597912517621
0.3427659574468085 0.43760902534675883 0.3851277347542068
0.34297872340425534 0.4397097427445127 0.4007399898026694
0.34319148936170213 0.441133365901319 0.40968977760458913
0.3434042553191489 0.441133365901319 0.4155164617510078
0.34361702127659577 0.4436948389990311 0.408169132989714
0.34382978723404256 0.4469736138723012 0.39627017365858835
0.34404255319148935 0.4524448096996083 0.3769854337599164
0.34425531914893615 0.4569977414901448 0.35340008339754586
0.344468085106383 0.4598458342123942 0.33481647695630606
0.3446808510638298 0.46266427554428935 0.31773607533726494
0.3448936170212766 0.46283476439058224 0.31098057513066835
0.3451063829787234 0.4636052760136786 0.31092056140126256
0.3453191489361702 0.4619502209720699 0.3178073232441093
0.345531914893617 0.4672819309293831 0.3208803309904652
0.3457446808510638 0.4645032317504484 0.33112331364639036
0.34595744680851065 0.4640008089433238 0.336799691119175
0.34617021276595744 0.4652588849165044 0.34357862141250994
0.34638297872340423 0.4649703952652209 0.34986692546733206
0.3465957446808511 0.46657066784139656 0.354245390397009
0.3468085106382979 0.4668873643980989 0.3598873426783335
0.34702127659574467 0.4672826137170947 0.36572425568855105
0.3472340425531915 0.4701026701340838 0.36342604412019563
0.3474468085106383 0.47045576100778075 0.36492988343500904
0.3476595744680851 0.47288555075259575 0.36565785969942277
0.3478723404255319 0.47748883451910584 0.36323801340675826
0.34808510638297874 0.47942648257729137 0.3627816268511404
0.34829787234042553 0.4763067904250122 0.36542870155885004
0.3485106382978723 0.4763067904250122 0.3666992204681346
0.34872340425531917 0.47488754349774054 0.3742420093163469
0.34893617021276596 0.4768383079428767 0.376648754274548
0.34914893617021275 0.47633589098885415 0.38138844930585164
0.34936170212765955 0.4742603000640163 0.3835804424860568
0.3495744680851064 0.4733756717147044 0.3842672505336219
0.3497872340425532 0.4727581906951541 0.38163558820661536
0.35 0.4760931331629441 0.3780504793526912
0.3502127659574468 0.4780675871860059 0.38167891390946956
0.3504255319148936 0.4737447709330645 0.3881127129458238
0.3506382978723404 0.4733756717147044 0.3983979344776518
0.35085106382978726 0.46994942872539897 0.4096403510003764
0.35106382978723405 0.47140096583279045 0.42162695240211534
0.35127659574468084 0.465170616700544 0.4327883445292052
0.35148936170212763 0.46288142861986487 0.44413594288173297
0.3517021276595745 0.46208957670527845 0.4529581206490427
0.3519148936170213 0.46171977204359704 0.4617883472137205
0.35212765957446807 0.45917989186746877 0.468088146094575
0.3523404255319149 0.45676599902296044 0.4747710192801293
0.3525531914893617 0.45150337280054903 0.4780609991658159
0.3527659574468085 0.45577107747793366 0.48122775222537356
0.3529787234042553 0.4545326656703501 0.483564948734338
0.35319148936170214 0.4533805956557767 0.4871226959524913
0.35340425531914893 0.4551955673818107 0.4926708768998369
0.3536170212765957 0.4532630816428663 0.5013712014551513
0.35382978723404257 0.4515315967422927 0.5100128235077245
0.35404255319148936 0.45188080117244755 0.5342373107214688
0.35425531914893615 0.4510808702260453 0.5383916092125768
0.354468085106383 0.44380006282283735 0.5458519444684212
0.3546808510638298 0.44208198871281745 0.555475412361926
0.3548936170212766 0.4414299637313781 0.5573138286636018
0.3551063829787234 0.4428179347849995 0.5625557828505646
0.3553191489361702 0.44211040547142155 0.564043013340332
0.355531914893617 0.44160199671864847 0.5642005737988016
0.3557446808510638 0.441133365901319 0.5582488511586762
0.35595744680851066 0.4433694849552354 0.5554469956033219
0.35617021276595745 0.44147282920630454 0.5511275699277849
0.35638297872340424 0.44009480330199685 0.5427557350301916
0.35659574468085103 0.43441061898613476 0.5424406899312177
0.3568085106382979 0.4366888880806469 0.5327387922243051
0.3570212765957447 0.4368336793453031 0.5302065098558532
0.35723404255319147 0.4284486822022291 0.5285531613571351
0.3574468085106383 0.42986266068328566 0.5306459289715054
0.3576595744680851 0.43063811049686285 0.5353701645713383
0.3578723404255319 0.4303859306301905 0.5402706989774319
0.35808510638297875 0.42941881009969957 0.5475612457652199
0.35829787234042554 0.4308456187990808 0.5437799817832021
0.35851063829787233 0.43713290443171243 0.544164888952544
0.3587234042553191 0.43174057384114006 0.5408692877280022
0.35893617021276597 0.43080360568144616 0.5384196478603223
0.35914893617021276 0.4324424680767083 0.5362410365268525
0.35936170212765955 0.43596967878152953 0.5309502204696206
0.3595744680851064 0.4356605375734616 0.5290669272105519
0.3597872340425532 0.4343658375185624 0.531782800096975
0.36 0.4323400097703958 0.5340502106439072
0.3602127659574468 0.43285135721875173 0.5357357550518181
0.3604255319148936 0.43498084299485906 0.5363805920603891
0.3606382978723404 0.43511537965365865 0.538171780995565
0.3608510638297872 0.4388988920945894 0.5348459145837569
0.36106382978723406 0.43983615777792684 0.5268174803824086
0.36127659574468085 0.44072377506963634 0.5116210274760175
0.36148936170212764 0.4429291801635239 0.49508048927186005
0.3617021276595745 0.4421953295887359 0.48136224873114103
0.3619148936170213 0.4439008452983473 0.46164160425432427
0.3621276595744681 0.44336884932724874 0.4493481626009263
0.36234042553191487 0.44406448461162684 0.44029397577244034
0.3625531914893617 0.444584793766495 0.43260600396672877
0.3627659574468085 0.44762249721716474 0.4261826747657938
0.3629787234042553 0.4466458514502597 0.42452369320957506
0.36319148936170215 0.44513269533082583 0.42452369320957506
0.36340425531914894 0.4451743759713825 0.42837871077412415
0.36361702127659573 0.4502203816014124 0.4254499638576846
0.3638297872340425 0.45295320800824423 0.41722557997851945
0.36404255319148937 0.4569609481947462 0.4073291730024737
0.36425531914893616 0.4587200781631655 0.39694168131987667
0.36446808510638296 0.4606150851694293 0.38722803537948614
0.3646808510638298 0.4609000529422923 0.37845591938592027
0.3648936170212766 0.46329027635109243 0.37403263522682656
0.3651063829787234 0.4626437545625126 0.36870829276223327
0.36531914893617023 0.4641495486377009 0.3597915077488564
0.365531914893617 0.4672567108521333 0.34760174306678165
0.3657446808510638 0.46691371054475334 0.3267124205240285
0.3659574468085106 0.4694953976592416 0.3017309507557786
0.36617021276595746 0.46836268577736306 0.2780683867063002
0.36638297872340425 0.4687325257139081 0.2630760004070885
0.36659574468085104 0.4669202186452494 0.25783375064329545
0.3668085106382979 0.47137891787781633 0.2651979637681602
0.3670212765957447 0.4698122918328344 0.2854962566001754
0.3672340425531915 0.4728699783264966 0.3105096736579011
0.36744680851063827 0.47648465270391205 0.3328602368867804
0.3676595744680851 0.47973745712725346 0.35011429098542807
0.3678723404255319 0.47923790913532005 0.3649188472102142
0.3680851063829787 0.4785150643383942 0.37053232208075576
0.36829787234042555 0.47573774302920147 0.3682633903179166
0.36851063829787234 0.4724555327408441 0.35827467109673977
0.36872340425531913 0.47317143697265807 0.3407605081536925
0.368936170212766 0.47031294956569136 0.3339708669548521
0.36914893617021277 0.46756181773848365 0.3306795110353316
0.36936170212765956 0.46762748320526826 0.33521392114111165
0.36957446808510636 0.4638163853846736 0.34477632901323757
0.3697872340425532 0.4619252814446359 0.35339007759076774
0.37 0.46411267818477187 0.36597684854758766
0.3702127659574468 0.46364744181989764 0.37252976696304263
0.37042553191489364 0.46343425603969857 0.38477068107011636
0.3706382978723404 0.46165119687347334 0.39942005920777907
0.3708510638297872 0.4609744949089722 0.4080660740244277
0.371063829787234 0.45785292154142043 0.42172397470215717
0.37127659574468086 0.4546201100587375 0.4342760984605871
0.37148936170212765 0.4538348803126526 0.44602713079163964
0.37170212765957444 0.449658585708215 0.4581375305919027
0.3719148936170213 0.45279453833440614 0.46738682947780114
0.3721276595744681 0.45556709638129167 0.4768614481039278
0.3723404255319149 0.4538348803126526 0.4828379990331635
0.3725531914893617 0.45455258535771526 0.4887489703113058
0.3727659574468085 0.45675194617047493 0.49191131784168257
0.3729787234042553 0.45653153325458096 0.49571076069458186
0.3731914893617021 0.4557889594528579 0.49682462139716654
0.37340425531914895 0.4557889594528579 0.49853246166083204
0.37361702127659574 0.4509078487795087 0.5066113658068481
0.37382978723404253 0.4526120801469697 0.5151486154457544
0.3740425531914894 0.4501885763280845 0.5221807318109896
0.37425531914893617 0.4464048688067552 0.5302847713598442
0.37446808510638296 0.44189205143580473 0.5377184163778462
0.37468085106382976 0.44067388365997 0.5459089002519144
0.3748936170212766 0.441133365901319 0.552766458131817
0.3751063829787234 0.4426520691465536 0.5590260657689232
0.3753191489361702 0.44220630237470065 0.5717870481225404
0.37553191489361704 0.444040658563198 0.5889046014710981
0.37574468085106383 0.4433699147445757 0.5994253806485165
0.3759574468085106 0.44452237466828226 0.6078717612457893
0.37617021276595747 0.44385029603076204 0.6188606643257695
0.37638297872340426 0.44756569766078813 0.6283506479512881
0.37659574468085105 0.4467866242792227 0.6354241993749474
0.37680851063829784 0.44653893015529544 0.6405131314390717
0.3770212765957447 0.4452555773856152 0.6422964907405093
0.3772340425531915 0.44594583191805975 0.6452909969524968
0.3774468085106383 0.44099913906553906 0.6413297026562126
0.3776595744680851 0.44040961140237544 0.6350937709239496
0.3778723404255319 0.4403866932556624 0.6320612440478972
0.3780851063829787 0.4401635772404115 0.6194032074444684
0.37829787234042556 0.43996220301266675 0.6087991368105422
0.37851063829787235 0.4412427550046096 0.5887682677305875
0.37872340425531914 0.44048724716768844 0.5664070601106267
0.37893617021276593 0.43736620540301113 0.5437324656667055
0.3791489361702128 0.43429408891060084 0.5201079022152062
0.3793617021276596 0.4341020925127893 0.5050419883346552
0.37957446808510636 0.43268774201282717 0.5023722051539465
0.3797872340425532 0.4309283282654777 0.5017098192476794
0.38 0.4303859306301905 0.503373629345484
0.3802127659574468 0.42701272925679196 0.4985691754858699
0.3804255319148936 0.4247040748756695 0.4743378184188452
0.38063829787234044 0.42452369320957506 0.43602343164996604
0.38085106382978723 0.4246065063466738 0.3851188282754607
0.381063829787234 0.42615829710915654 0.32615134503537907
0.38127659574468087 0.4261825083307654 0.2791676086023958
0.38148936170212766 0.4307783144667929 0.2523489368462009
0.38170212765957445 0.431362970200293 0.25340187733815617
0.3819148936170213 0.431362970200293 0.27006692396896526
0.3821276595744681 0.43282328119204977 0.2991317703478636
0.3823404255319149 0.4333170493404983 0.337132710194851
0.3825531914893617 0.43423281662322255 0.37456549650368676
0.3827659574468085 0.43642171167892774 0.3991848865855348
0.3829787234042553 0.43970711164320153 0.4169619284701898
0.3831914893617021 0.4438858653555798 0.42316143403075585
0.38340425531914896 0.44630518317138496 0.42077190883810744
0.38361702127659575 0.445138382998127 0.4125086419191509
0.38382978723404254 0.4479897940601917 0.40526856227186336
0.38404255319148933 0.44894968246213973 0.389802637012663
0.3842553191489362 0.45343652502066645 0.3783428333702259
0.384468085106383 0.45700549822081016 0.37234143066438813
0.38468085106382977 0.46182993731832805 0.3628105404680623
0.3848936170212766 0.4574626201133669 0.3625539976824015
0.3851063829787234 0.45756793830269754 0.36354627022334585
0.3853191489361702 0.4623605767311515 0.3671307700850958
0.38553191489361704 0.4617087311485009 0.3772042235295706
0.38574468085106384 0.4574102032384 0.38741765603956324
0.38595744680851063 0.4576448657270649 0.3937446022064044
0.3861702127659574 0.4606741573033708 0.40011873974459783
0.38638297872340427 0.4610707168746173 0.4006781839558664
0.38659574468085106 0.46385795923956286 0.39688020868738394
0.38680851063829785 0.46495674571673284 0.39138627630153355
0.3870212765957447 0.46655136867096036 0.3868852088401643
0.3872340425531915 0.4681310764195659 0.38050097340165595
0.3874468085106383 0.46997018651563455 0.3694873742617136
0.3876595744680851 0.4738997746700452 0.3582403044094006
0.3878723404255319 0.4714614927157525 0.36005504163930535
0.3880851063829787 0.4760508553207469 0.362121128275142
0.3882978723404255 0.4745995359477694 0.3644511482708862
0.38851063829787236 0.4742235217421199 0.3703074098641137
0.38872340425531915 0.47434597780639987 0.3751747780713853
0.38893617021276594 0.47690701006188463 0.37942645275526793
0.3891489361702128 0.4758454459687628 0.38559125664719046
0.3893617021276596 0.4753297508549097 0.3907628291265771
0.3895744680851064 0.4782337123109672 0.3951762964341638
0.38978723404255317 0.47946337069472883 0.39367181263787276
0.39 0.48072149935600805 0.3902912465249161
0.3902127659574468 0.47675955617598814 0.394674628657339
0.3904255319148936 0.47335425992975044 0.3962109574615539
0.39063829787234045 0.4749577667186344 0.396422616974152
0.39085106382978724 0.47313423622701756 0.40155761450248667
0.39106382978723403 0.47239863214460187 0.4098854187521376
0.3912765957446808 0.4684904738641915 0.4187082470128059
0.39148936170212767 0.4683595310503941 0.4272634292325647
0.39170212765957446 0.46649652399368935 0.43411960279609507
0.39191489361702125 0.46284311622840746 0.4414657661169271
0.3921276595744681 0.46013072618377115 0.4490961126876018
0.3923404255319149 0.458090475453616 0.457265059709397
0.3925531914893617 0.4532298548666879 0.4694756824737478
0.39276595744680853 0.45188080117244755 0.48028105408515354
0.3929787234042553 0.4499723264616146 0.4911448016940405
0.3931914893617021 0.4517348033327542 0.49907069621675854
0.3934042553191489 0.4487451104165701 0.5026215994651297
0.39361702127659576 0.442695332298143 0.5118852968454872
0.39382978723404255 0.4415941008058013 0.5245151479268668
0.39404255319148934 0.4398861008500224 0.5400220871910272
0.3942553191489362 0.4398832335945345 0.5527160682365024
0.394468085106383 0.4385299678572471 0.559512891788245
0.3946808510638298 0.4372690818852963 0.5696638465109845
0.39489361702127657 0.4355050158305056 0.5792857575354544
0.3951063829787234 0.43859913469012374 0.5839795868858532
0.3953191489361702 0.43856852849484895 0.5838055040045792
0.395531914893617 0.43483280453542345 0.580512092160252
0.39574468085106385 0.435967379314 0.5755493644789859
0.39595744680851064 0.4358709062137387 0.5676165022364892
0.39617021276595743 0.43767261591082857 0.5628159038742228
0.3963829787234043 0.43727984412594695 0.5613638695289758
0.39659574468085107 0.43345255779339137 0.5615124957032771
0.39680851063829786 0.4350828193854351 0.5642403517342451
0.39702127659574465 0.43398613575129197 0.564856258052863
0.3972340425531915 0.43074473753522957 0.5627646818007588
0.3974468085106383 0.42910620040451325 0.5545248745161584
0.3976595744680851 0.4310555121360898 0.5428342777462202
0.39787234042553193 0.43372578064476763 0.5183596323927981
0.3980851063829787 0.4333886301844084 0.49260874338648314
0.3982978723404255 0.43429129808657335 0.47041664476412154
0.3985106382978723 0.43295376807155805 0.4597054072528635
0.39872340425531916 0.43087065130442664 0.4538272820910223
0.39893617021276595 0.4323400097703958 0.45748794559817235
0.39914893617021274 0.4323400097703958 0.4620854737804998
0.3993617021276596 0.4317401286089696 0.46795887979958795
0.3995744680851064 0.431362970200293 0.4673052871528805
0.3997872340425532 0.4305197266338643 0.4724390996889877
0.4 0.4303859306301905 0.4646937220863325
0.4002127659574468 0.42386490616085376 0.4647944839313688
0.4004255319148936 0.4269319437631698 0.46812599467085
0.4006382978723404 0.4291278914457524 0.4737236916925879
0.40085106382978725 0.4313203485783622 0.47528712923297867
0.40106382978723404 0.43644392962275225 0.47806561321887936
0.40127659574468083 0.43776158804079557 0.47640251169468356
0.4014893617021277 0.4422156801411258 0.472834514594801
0.40170212765957447 0.444041865095825 0.46571769176449646
0.40191489361702126 0.4478744716005303 0.467513434294089
0.40212765957446805 0.44699560332193444 0.4664730960669221
0.4023404255319149 0.447587890696393 0.4638128111924929
0.4025531914893617 0.44894968246213973 0.4686101997422887
0.4027659574468085 0.44841247631817527 0.47142159257449934
0.40297872340425533 0.45059692942623225 0.4727337358415968
0.4031914893617021 0.4557673897769229 0.47570762487738966
0.4034042553191489 0.44957737214620674 0.47810394714420057
0.40361702127659577 0.451269625748076 0.476169591370363
0.40382978723404256 0.4585490839245778 0.4723497062831782
0.40404255319148935 0.4592094461250072 0.4651671822429782
0.40425531914893614 0.4651279822088635 0.4567807476737661
0.404468085106383 0.4684904738641915 0.4507168428571976
0.4046808510638298 0.4717507756811614 0.44503732028177573
0.4048936170212766 0.47957165800509666 0.439214953610029
0.4051063829787234 0.47582117896878656 0.4301460332309032
0.4053191489361702 0.4751142888217377 0.42422204636313426
0.405531914893617 0.47011107655741546 0.4153500810899888
0.4057446808510638 0.4682029005551362 0.39997983591064573
0.40595744680851065 0.4679207671767797 0.380958651954097
0.40617021276595744 0.46429052413405353 0.3563055363857454
0.40638297872340423 0.46581510796665154 0.32900981911279537
0.4065957446808511 0.46543728281158464 0.3047145039455635
0.40680851063829787 0.4636976789183161 0.28805475449003476
0.40702127659574466 0.46262823644357587 0.2767356277972679
0.4072340425531915 0.46305765244136043 0.2659320744297043
0.4074468085106383 0.4663483670359196 0.25684894252806306
0.4076595744680851 0.46772465785404777 0.256010900917166
0.4078723404255319 0.46904393402961647 0.266874671474829
0.40808510638297874 0.47080147289078544 0.2801670761618505
0.4082978723404255 0.47118302082026275 0.29736098755462753
0.4085106382978723 0.47056450580168874 0.3168442692872365
0.40872340425531917 0.4694685629095335 0.33364327106144265
0.40893617021276596 0.47239863214460187 0.3488756818505388
0.40914893617021275 0.4726360206534185 0.3631251321974204
0.40936170212765954 0.4726615751515471 0.37595403052834575
0.4095744680851064 0.47142159257449934 0.38295744993535996
0.4097872340425532 0.4726057962800199 0.38624137639364975
0.41 0.4755117379582296 0.39166832203272695
0.4102127659574468 0.47464297549558143 0.39741796428986886
0.4104255319148936 0.47435271128480694 0.4077088891535791
0.4106382978723404 0.47435271128480694 0.41311680847124055
0.41085106382978726 0.47319110308276274 0.41851819676355767
0.41106382978723405 0.46946751343429405 0.43138557949052037
0.41127659574468084 0.4675331062996334 0.44352186681132805
0.41148936170212763 0.4655593551538837 0.45566082169598243
0.4117021276595745 0.4633478714210221 0.46633156893185296
0.41191489361702127 0.4583190150162574 0.47710891671882855
0.41212765957446806 0.4587116753833835 0.4822194445243198
0.4123404255319149 0.457743038593063 0.4888431755854592
0.4125531914893617 0.45748461358127696 0.49621932779293304
0.4127659574468085 0.4579172930201599 0.5072920348065799
0.4129787234042553 0.4591903725707008 0.5139045884964457
0.41319148936170214 0.4593476220267396 0.5184546449975024
0.41340425531914893 0.4581948367563222 0.5280108750459882
0.4136170212765957 0.4568691424652823 0.5352873435473389
0.41382978723404257 0.45476821588093114 0.5478054950497973
0.41404255319148936 0.4527244264755558 0.5562474812052877
0.41425531914893615 0.45130436600144225 0.5622699583089463
0.414468085106383 0.4486419769570789 0.5689637804199978
0.4146808510638298 0.4479726428920372 0.5749877870053737
0.4148936170212766 0.4479726428920372 0.5744377205770033
0.4151063829787234 0.44595325025819443 0.577376401825009
0.4153191489361702 0.44583724853299167 0.5733258748269475
0.415531914893617 0.4460185637518319 0.5748152195741886
0.4157446808510638 0.4430874450415241 0.5683057838347443
0.41595744680851066 0.44346035111699633 0.552694974418702
0.41617021276595745 0.4447330905082893 0.5316398713228913
0.41638297872340424 0.44277738048142357 0.5112638421682058
0.4165957446808511 0.4373023073250824 0.4882625643787647
0.4168085106382979 0.43296076646477377 0.4672380071228758
0.41702127659574467 0.43076454240545603 0.454561593731245
0.41723404255319146 0.4303859306301905 0.4528578407425501
0.4174468085106383 0.4255007327796776 0.47011016305382813
0.4176595744680851 0.4251484505875255 0.4833056814284375
0.4178723404255319 0.4241429269708537 0.49828292309918876
0.41808510638297874 0.4259045887058073 0.5096954635263435
0.41829787234042554 0.4269760094555061 0.513531467295658
0.41851063829787233 0.42745481191988266 0.5152465347169884
0.4187234042553191 0.42818829675006725 0.5127008092587261
0.41893617021276597 0.42928663563263336 0.51160247037616
0.41914893617021276 0.4303849456644137 0.514408378761683
0.41936170212765955 0.43148282825898227 0.5171027362519425
0.4195744680851064 0.4323400097703958 0.5170747580348994
0.4197872340425532 0.4330637252784943 0.5243987967441296
0.42 0.43669753917906795 0.5304933379089165
0.42021276595744683 0.4379781991960599 0.5311734541433816
0.4204255319148936 0.43650455848659847 0.5300439667806547
0.4206382978723404 0.43958355469447513 0.5258747334760683
0.4208510638297872 0.4401563263312165 0.5159041684051369
0.42106382978723406 0.44509546454938737 0.5032323754466208
0.42127659574468085 0.4470398721945104 0.49295387457280837
0.42148936170212764 0.45217207394234976 0.4774902725159068
0.4217021276595745 0.4520395563556699 0.4684659653934235
0.4219148936170213 0.4524821428147949 0.45796830737775657
0.4221276595744681 0.4538348803126526 0.44985914259092397
0.42234042553191486 0.4538348803126526 0.4426978525697084
0.4225531914893617 0.4521664101702528 0.4377964256165191
0.4227659574468085 0.4537904808362192 0.43722520762090866
0.4229787234042553 0.4540361169301276 0.43442385073661044
0.42319148936170214 0.45534223432685006 0.4416074964185839
0.42340425531914894 0.45314236100269306 0.4315857510655994
0.42361702127659573 0.45234772648224153 0.42796492618019133
0.4238297872340426 0.45344552613547806 0.42216564338353085
0.42404255319148937 0.4538348803126526 0.4115627935821333
0.42425531914893616 0.45549351368501223 0.40059789322613587
0.42446808510638295 0.4510520267442998 0.39248895859492644
0.4246808510638298 0.44770539925394565 0.38419782719727724
0.4248936170212766 0.44462427262863774 0.38028219746578623
0.4251063829787234 0.4434157076685831 0.37403040156915074
0.42531914893617023 0.4445135779773919 0.37123561021969764
0.425531914893617 0.4461829405619385 0.37176355642403514
0.4257446808510638 0.44630445890322706 0.37176355642403514
0.4259574468085106 0.44764466471112657 0.3733896573833298
0.42617021276595746 0.44890778857380725 0.37091219851893015
0.42638297872340425 0.449298941612579 0.3716238527638594
0.42659574468085104 0.4582431036671059 0.3672194321488786
0.4268085106382979 0.4574919394021165 0.3639472398632144
0.4270212765957447 0.46124525660877824 0.36354129959851933
0.4272340425531915 0.4633120912771699 0.3624426134983521
0.4274468085106383 0.4662093271172555 0.3613431887596374
0.4276595744680851 0.46731042545566814 0.36024209042122485
0.4278723404255319 0.4702069181184527 0.36093690952425866
0.4280851063829787 0.4714641186575556 0.3610161211529066
0.42829787234042555 0.4725606707497608 0.3610161211529066
0.42851063829787234 0.47593218476012894 0.361584235163001
0.42872340425531913 0.47770825234226594 0.36378125038463216
0.428936170212766 0.47142159257449934 0.3665007001328347
0.42914893617021277 0.4701332845574471 0.36849955215215086
0.42936170212765956 0.4702325795220244 0.37036256988918825
0.42957446808510635 0.46778775111897497 0.36990091622545873
0.4297872340425532 0.46943800442481476 0.3697799682743508
0.43 0.4684904738641915 0.36943044506932277
0.4302127659574468 0.4684904738641915 0.3746162526529938
0.43042553191489363 0.4684904738641915 0.38308355023819046
0.4306382978723404 0.4679796540450474 0.3929706074880767
0.4308510638297872 0.46941882362547066 0.4035178830179752
0.43106382978723407 0.47120335275128167 0.4152837781634627
0.43127659574468086 0.4670072737510186 0.4282787813952103
0.43148936170212765 0.4626548504369654 0.442376545405317
0.43170212765957444 0.46300836840531195 0.4533730701933642
0.4319148936170213 0.45969711773326827 0.4632944818594571
0.4321276595744681 0.4588989698462024 0.4707060258423525
0.4323404255319149 0.4582635531049 0.4768912943904209
0.4325531914893617 0.45679810959614825 0.47954218194322895
0.4327659574468085 0.4573180641793054 0.48174405343187005
0.4329787234042553 0.4595209041618882 0.48394689341445285
0.4331914893617021 0.45976206189214924 0.48308112325684943
0.43340425531914895 0.46133590953149106 0.4818225629594897
0.43361702127659574 0.45913742458653584 0.4845404534092031
0.43382978723404253 0.4561313467375339 0.48475775927125947
0.4340425531914894 0.45121841987533906 0.48862410195852884
0.43425531914893617 0.44767286843998005 0.49253897245076755
0.43446808510638296 0.442479691122919 0.4961514587863665
0.4346808510638298 0.4393926984294731 0.4976949551330894
0.4348936170212766 0.439135645606075 0.5057379907044462
0.4351063829787234 0.4352711284807034 0.517262039360848
0.4353191489361702 0.4345391830174564 0.5254005261796775
0.43553191489361703 0.4330617263251836 0.5338023373078293
0.4357446808510638 0.4333376328709788 0.5387961558506168
0.4359574468085106 0.43293741226675253 0.5431810120372103
0.43617021276595747 0.43259972519878237 0.5468515327573413
0.43638297872340426 0.43401704872978875 0.5509847569612873
0.43659574468085105 0.43429408891060084 0.5591978307713789
0.43680851063829784 0.4314623585415409 0.5624850492765358
0.4370212765957447 0.4323400097703958 0.5646840301670132
0.4372340425531915 0.429967130951829 0.5685673096930172
0.4374468085106383 0.42595722874029834 0.5716642199833062
0.4376595744680851 0.4270531813025576 0.5678009533437508
0.4378723404255319 0.4260691730361221 0.5689657086419717
0.4380851063829787 0.4287220753351047 0.5628545684051498
0.43829787234042555 0.4275834736470911 0.557658398197944
0.43851063829787235 0.42750769280292317 0.5481317906652392
0.43872340425531914 0.4284318514899854 0.5377522506156688
0.43893617021276593 0.4290141278121923 0.5263430586738288
0.4391489361702128 0.4307953537850938 0.51690514920609
0.43936170212765957 0.43083633038731173 0.5037330978657057
0.43957446808510636 0.4303859306301905 0.4974921642330914
0.4397872340425532 0.4341983327549255 0.49148725842253743
