0.0 0.4401563263312165 0.3854421104054715
0.0002127659574468085 0.4429491462737302 0.384324982428466
0.000425531914893617 0.4457419662162439 0.3832078544514605
0.0006382978723404255 0.44853478615875764 0.382090726474455
0.000851063829787234 0.45120981460325926 0.38153395212506114
0.0010638297872340426 0.4537678039470249 0.38153395212506114
0.001276595744680851 0.454493991905416 0.38021572893953426
0.0014893617021276596 0.4562744292298237 0.3800673761005453
0.001702127659574468 0.45675527247175157 0.3810507956156142
0.0019148936170212765 0.45869559369053287 0.38153395212506114
0.002127659574468085 0.4606741573033708 0.3822175877391307
0.002340425531914894 0.4622729772856765 0.38091217171285774
0.002553191489361702 0.46262823644357587 0.37873023560241953
0.0027659574468085106 0.464734971084513 0.37659786910763743
0.0029787234042553193 0.46784701425409675 0.3753381347444377
0.0031914893617021275 0.47001569435951285 0.3723471832511935
0.003404255319148936 0.47180491781211903 0.3672991367632484
0.003617021276595745 0.47338733858343285 0.36146380689740837
0.003829787234042553 0.4767844812483356 0.358085002442599
0.004042553191489362 0.47898061112942536 0.35232706992893537
0.00425531914893617 0.47923790913532005 0.3502686858817783
0.004468085106382979 0.47542772477167955 0.35217377806359845
0.004680851063829788 0.4782608695652173 0.3537866649408652
0.004893617021276595 0.4787893210011862 0.36074368349742925
0.005106382978723404 0.48102353823163996 0.3649579401265253
0.005319148936170213 0.48105956654532833 0.37149871296364156
0.005531914893617021 0.4847334471781931 0.3780527843481396
0.00574468085106383 0.4844759371206073 0.3846278984157011
0.005957446808510639 0.48344164533330286 0.38739618954567656
0.006170212765957446 0.4871516673357971 0.38815332963316757
0.006382978723404255 0.4906667384416153 0.38573775594040727
0.006595744680851064 0.4870154349483769 0.3814951613772973
0.006808510638297872 0.4876275208540018 0.3751307410070855
0.007021276595744681 0.48601786539730935 0.3901124630684166
0.00723404255319149 0.4834882429409094 0.41071081735624454
0.007446808510638298 0.48082880035563563 0.42949968804006033
0.007659574468085106 0.476891974652109 0.430483894465942
0.007872340425531916 0.4729551489485823 0.43146810089182364
0.008085106382978723 0.46901832324505566 0.4324523073177053
0.008297872340425531 0.46508149754152905 0.433436513743587
0.00851063829787234 0.46114467183800234 0.43442072016946864
0.008723404255319148 0.45720784613447574 0.4354049265953503
0.008936170212765958 0.4532710204309491 0.43638913302123195
0.009148936170212766 0.45034113868075304 0.43915915198062566
0.009361702127659575 0.45255953671353094 0.4579884822915489
0.009574468085106383 0.44908998556216856 0.5403903221364066
0.00978723404255319 0.4480199863525515 0.5437225207620908
0.01 0.4470511104509356 0.5437225207620908
0.010212765957446808 0.44608223454931967 0.5437225207620908
0.010425531914893617 0.44511335864770374 0.5437225207620908
0.010638297872340425 0.4441444827460878 0.5437225207620908
0.010851063829787235 0.4431756068444719 0.5437225207620908
0.011063829787234043 0.44220673094285595 0.5437225207620908
0.01127659574468085 0.44123785504124 0.5437225207620908
0.01148936170212766 0.4402689791396241 0.5437225207620908
0.011702127659574468 0.43930010323800817 0.5437225207620908
0.011914893617021277 0.43833122733639224 0.5437225207620908
0.012127659574468085 0.4373623514347763 0.5437225207620908
0.012340425531914893 0.4363934755331604 0.5437225207620908
0.012553191489361702 0.43542459963154445 0.5437225207620908
0.01276595744680851 0.4344557237299285 0.5437225207620908
0.01297872340425532 0.4334868478283126 0.5437225207620908
0.013191489361702127 0.43251797192669666 0.5437225207620908
0.013404255319148937 0.42886492490133316 0.5437225207620908
0.013617021276595745 0.42683662636565917 0.546195262978985
0.013829787234042552 0.427066880047825 0.548808894438591
0.014042553191489362 0.4280252509086489 0.5490143191939402
0.01425531914893617 0.4284318514899854 0.5496975137111038
0.01446808510638298 0.426354631332853 0.5500424927135259
0.014680851063829787 0.42502132456985453 0.5480918641018679
0.014893617021276596 0.4255007327796776 0.5471339434615295
0.015106382978723404 0.42505285166373374 0.5458391545787257
0.015319148936170212 0.4262890409459762 0.5412510339311292
0.015531914893617021 0.4282298845611851 0.5366867426882221
0.01574468085106383 0.4236095101578901 0.5358119194236434
0.015957446808510637 0.4254654640881745 0.533027988528217
0.016170212765957447 0.42269598506626416 0.5301703377775491
0.016382978723404256 0.42621881217461094 0.528219367728034
0.016595744680851062 0.42559328781952116 0.5227829804588953
0.01680851063829787 0.4263736945130973 0.5134980328856361
0.01702127659574468 0.43172314987563665 0.502715839113646
0.01723404255319149 0.43194670764049964 0.4922188607574822
0.017446808510638297 0.43400523708935973 0.4824026376136791
0.017659574468085106 0.4352711284807034 0.472221936557633
0.017872340425531916 0.4352711284807034 0.4647817612257057
0.018085106382978722 0.43708675070741443 0.460812614216865
0.01829787234042553 0.4376092978218517 0.45673237088747043
0.01851063829787234 0.4412836392927319 0.45423214392963757
0.01872340425531915 0.44235754009954736 0.45326589880862617
0.018936170212765956 0.4416899113683804 0.45341438620961144
0.019148936170212766 0.4442757767108531 0.45194018047815004
0.019361702127659575 0.4481218125220751 0.44857489914333076
0.01957446808510638 0.45196784833329706 0.44520961780851154
0.01978723404255319 0.4558138841445191 0.44184433647369226
0.02 0.4596599199557411 0.438479055138873
0.02021276595744681 0.46350595576696313 0.4351137738040537
0.020425531914893616 0.46735199157818513 0.4317484924692345
0.020638297872340425 0.47119802738940714 0.42838321113441524
0.020851063829787235 0.4736503289317831 0.4267524295668588
0.02106382978723404 0.4742834785861699 0.42738557922124565
0.02127659574468085 0.476912856831652 0.42489466637303774
0.02148936170212766 0.4755078181004054 0.4254116991569297
0.02170212765957447 0.47438711519259896 0.41701701181888245
0.021914893617021276 0.470447965283071 0.40984421370731555
0.022127659574468085 0.4711062493780658 0.402587342192311
0.022340425531914895 0.4665363947239862 0.3939371029516242
0.0225531914893617 0.4667555877852296 0.3767303631886926
0.02276595744680851 0.4678017843194183 0.36457155837088756
0.02297872340425532 0.47009006305733886 0.35842220633544253
0.023191489361702126 0.4713971156440246 0.3564484441822697
0.023404255319148935 0.467513434294089 0.3543306380966311
0.023617021276595745 0.467513434294089 0.35221722805090205
0.023829787234042554 0.4686000793491461 0.3501590803968236
0.02404255319148936 0.47071763205956724 0.348666586999039
0.02425531914893617 0.472131945076196 0.3497353117449664
0.02446808510638298 0.47239863214460187 0.3409123024362431
0.024680851063829785 0.47239863214460187 0.33434472903223295
0.024893617021276595 0.47330102520735245 0.33636619237828613
0.025106382978723404 0.47911253729912306 0.32989712205185356
0.025319148936170214 0.4733578433763851 0.34152881476581276
0.02553191489361702 0.47231363712694296 0.3446614335141393
0.02574468085106383 0.4706512613246921 0.35033758865521014
0.02595744680851064 0.4735897965178377 0.35092453824718084
0.026170212765957445 0.47504693390786973 0.34746615590045316
0.026382978723404255 0.4737165349818251 0.341088916252475
0.026595744680851064 0.47512638369299076 0.332399013979029
0.026808510638297874 0.4738773711053964 0.32317560721989247
0.02702127659574468 0.47187496071641294 0.32174300592098387
0.02723404255319149 0.4704445530043966 0.3291022067411037
0.0274468085106383 0.4700941098126054 0.3468062676329935
0.027659574468085105 0.4678549942238346 0.3677601177053558
0.027872340425531914 0.4664687736826056 0.3910828466766405
0.028085106382978724 0.46605191757726594 0.4117952278760357
0.028297872340425533 0.4651005395692307 0.43247527819370835
0.02851063829787234 0.4638797747580632 0.44826886692276335
0.02872340425531915 0.46445981823893095 0.46140522245420695
0.02893617021276596 0.4622292911343224 0.46786842033181086
0.029148936170212764 0.459940920630993 0.4706901838813251
0.029361702127659574 0.4580681403648102 0.47712301336410223
0.029574468085106383 0.45591127598804837 0.4819243947752467
0.029787234042553193 0.45392844548607403 0.4868203127625872
0.03 0.4519747218701404 0.4954249386874463
0.03021276595744681 0.44604953297489913 0.5086265192960656
0.030425531914893618 0.4491177975708487 0.5192295319584914
0.030638297872340424 0.4417561070168244 0.5292386387979301
0.030851063829787233 0.4396196638939354 0.5383006604742968
0.031063829787234043 0.43893439794158773 0.5394457713983905
0.03127659574468085 0.4384089966492376 0.5485276773875328
0.03148936170212766 0.4377360274072933 0.5549659091520485
0.03170212765957447 0.43860068116927076 0.5548683900114789
0.031914893617021274 0.43622441660043865 0.5560522205056774
0.03212765957446809 0.4333462039653303 0.5584072689384617
0.03234042553191489 0.4337273575052508 0.5587884224783822
0.0325531914893617 0.43410851104517134 0.5591695760183027
0.03276595744680851 0.4312114758982836 0.5602359004586801
0.03297872340425532 0.42779084590439326 0.5616452670084481
0.033191489361702124 0.4299359780954945 0.5631887485573456
0.03340425531914894 0.4298023719446541 0.5636553124617505
0.03361702127659574 0.4230459685918281 0.5618018078965198
0.033829787234042556 0.42159257449926724 0.5616906798685039
0.03404255319148936 0.42088479388141814 0.5620170136417867
0.03425531914893617 0.422265702692827 0.5598110209485464
0.03446808510638298 0.42256961406936977 0.5584149037128472
0.03468085106382979 0.424464667344757 0.5475421402452741
0.03489361702127659 0.4226293687544483 0.544221522851565
0.035106382978723406 0.42392921804654515 0.5361181149572269
0.03531914893617021 0.427119104776817 0.5312347838264362
0.03553191489361702 0.42855803631863565 0.5311471911794075
0.03574468085106383 0.4264777723497801 0.5283858295669898
0.03595744680851064 0.42728324035484533 0.5263073800652817
0.036170212765957444 0.42595063344362605 0.523918159906962
0.036382978723404256 0.4233177573152429 0.5203572921051511
0.03659574468085106 0.42485224981093445 0.5137283297543674
0.03680851063829787 0.4257837403743934 0.5046139639351814
0.03702127659574468 0.42698983094454707 0.4982195643231736
0.03723404255319149 0.4294404963341509 0.4907938225148821
0.0374468085106383 0.43178553632209493 0.47828694257918086
0.03765957446808511 0.4341396033385348 0.4687312411050662
0.03787234042553191 0.43628230993520956 0.4582624314931177
0.038085106382978726 0.4382272565793744 0.4461065149670874
0.03829787234042553 0.44059649235407067 0.43873912073825955
0.03851063829787234 0.4433725458957553 0.4359630671965749
0.03872340425531915 0.44614859943744006 0.43318701365489015
0.03893617021276596 0.4483620338985929 0.4292213196642364
0.03914893617021276 0.4494974948537979 0.42297628441060864
0.039361702127659576 0.4512274398016107 0.41534040175339276
0.03957446808510638 0.4533186938444765 0.40685920480177046
0.03978723404255319 0.45540994788734224 0.39837800785014815
0.04 0.4575012019302081 0.38989681089852557
0.04021276595744681 0.4595924559730739 0.38141561394690326
0.04042553191489362 0.4616837100159397 0.3729344169952807
0.040638297872340426 0.46377496405880553 0.3644532200436584
0.04085106382978723 0.4658662181016713 0.35597202309203607
0.041063829787234045 0.46731827674156073 0.34940316491312023
0.04127659574468085 0.46639915685052313 0.3499283762794274
0.04148936170212766 0.46548003695948553 0.35045358764573464
0.04170212765957447 0.46456091706844793 0.3509787990120418
0.041914893617021276 0.46364179717741033 0.351504010378349
0.04212765957446808 0.46272267728637273 0.35202922174465623
0.042340425531914895 0.46180355739533513 0.3525544331109634
0.0425531914893617 0.46088443750429753 0.3530796444772706
0.04276595744680851 0.4631250301399518 0.3576113756979319
0.04297872340425532 0.46621271641136963 0.36373545740963853
0.043191489361702126 0.46921255652376076 0.37125364260296856
0.04340425531914894 0.4731284130165937 0.3783555747166426
0.043617021276595745 0.4768560886062485 0.38263254848753364
0.04382978723404255 0.4800129852218014 0.38720242052405623
0.044042553191489364 0.4839922697115441 0.3876884534192945
0.04425531914893617 0.4873110832517563 0.39330881761865166
0.044468085106382976 0.48839110222321397 0.39475019784871695
0.04468085106382979 0.48759121042051506 0.39275375220146647
0.044893617021276595 0.4866549945430752 0.392102810132218
0.0451063829787234 0.48228566857169164 0.3906231253797371
0.045319148936170214 0.47942351267705213 0.39111874428435484
0.04553191489361702 0.47741787340379815 0.39221436569184776
0.045744680851063826 0.47538152327831334 0.3923849322429968
0.04595744680851064 0.4758008387213372 0.39406681596850307
0.046170212765957445 0.4733756717147044 0.3930603724967595
0.04638297872340425 0.4733756717147044 0.392295882959421
0.046595744680851064 0.4693645806564866 0.3962924784544074
0.04680851063829787 0.4684904738641915 0.39915139515433007
0.047021276595744683 0.46781794431575635 0.4014427630538806
0.04723404255319149 0.46822384005885187 0.40773502921531884
0.047446808510638296 0.464961728071785 0.42045433703525587
0.04765957446808511 0.4636052760136786 0.42522031033382185
0.047872340425531915 0.46105525037617057 0.4293257712359396
0.04808510638297872 0.45840654425370736 0.4339441171594147
0.048297872340425534 0.457743038593063 0.42574535168962135
0.04851063829787234 0.4579919295382568 0.43071414242018674
0.048723404255319146 0.45843340103292846 0.45035962393307416
0.04893617021276596 0.4588748725276001 0.47000510544596225
0.049148936170212765 0.4593163440222718 0.4896505869588497
0.04936170212765957 0.4594999614590772 0.5075667158781344
0.049574468085106384 0.4580659902367201 0.5146341454740371
0.04978723404255319 0.45663201901436307 0.5217015750699395
0.05 0.455198047792006 0.5287690046658422
0.05021276595744681 0.45376407656964896 0.5358364342617447
0.050425531914893615 0.4523301053472919 0.5429038638576471
0.05063829787234043 0.45089613412493484 0.5499712934535498
0.050851063829787234 0.4494621629025778 0.5570387230494522
0.05106382978723404 0.4480281916802208 0.5641061526453546
0.05127659574468085 0.44659422045786373 0.5711735822412574
0.05148936170212766 0.4452565545848259 0.5723343272678579
0.051702127659574465 0.4439834790444784 0.5695335610790934
0.05191489361702128 0.4427104035041308 0.5667327948903287
0.052127659574468084 0.4414373279637833 0.563932028701564
0.05234042553191489 0.4404818364377851 0.5593541353829389
0.0525531914893617 0.4463162125835492 0.5561690974930605
0.05276595744680851 0.44087154998577066 0.5496258135734473
0.05297872340425532 0.43693262535797417 0.5452847248580625
0.05319148936170213 0.4379468312107754 0.54325631315246
0.053404255319148934 0.43277370537609444 0.5393526425576654
0.05361702127659575 0.4303859306301905 0.5364013846507433
0.05382978723404255 0.42953698976779636 0.5401509085132408
0.05404255319148936 0.42940889106008795 0.53205944846079
0.05425531914893617 0.4256171930035885 0.5255535073806896
0.05446808510638298 0.4264777723497801 0.5198890137050349
0.054680851063829784 0.4271927099977009 0.5128860914613932
0.0548936170212766 0.4298990925369048 0.510016337285317
0.0551063829787234 0.4294999842020503 0.5065122522867247
0.05531914893617021 0.4306929875795982 0.49989533823853
0.05553191489361702 0.431362970200293 0.5041107931325529
0.05574468085106383 0.4303859306301905 0.5086966716214522
0.055957446808510634 0.4298257194987949 0.5135343224304894
0.05617021276595745 0.42681167833360323 0.520941383047275
0.05638297872340425 0.4255007327796776 0.5187737857733274
0.056595744680851066 0.4255007327796776 0.517524189027877
0.05680851063829787 0.4283159197612009 0.5142540225630758
0.05702127659574468 0.42940889106008795 0.5083480196761826
0.05723404255319149 0.43253174556508445 0.5011300217144486
0.0574468085106383 0.4333170493404983 0.49212297152613943
0.057659574468085104 0.4366794924019151 0.4817156655576549
0.05787234042553192 0.43885366869952247 0.47370110439096696
0.05808510638297872 0.44048085468180986 0.46719236046181756
0.05829787234042553 0.4405576946432305 0.46400664432569266
0.05851063829787234 0.4408116025512874 0.460984171133395
0.05872340425531915 0.44127481013159964 0.4564439004368132
0.058936170212765954 0.44147427238724124 0.45185626855705724
0.05914893617021277 0.4416737346428828 0.44726863667730116
0.05936170212765957 0.44187319689852433 0.4426810047975452
0.059574468085106386 0.4420726591541659 0.43809337291778905
0.05978723404255319 0.4456212929013005 0.4284479890462115
0.06 0.4479726428920372 0.40297630078956354
0.06021276595744681 0.4492317029212345 0.3787582553703908
0.06042553191489362 0.45187083621941293 0.37498806494442155
0.06063829787234042 0.4545099695175914 0.37121787451845234
0.060851063829787236 0.45563345311484693 0.3650357842292913
0.06106382978723404 0.45878597600676946 0.36169947744778075
0.06127659574468085 0.4589805705983821 0.3574333854784763
0.06148936170212766 0.4587200781631655 0.35407387913902044
0.06170212765957447 0.4599532525804518 0.3559127883101155
0.06191489361702127 0.46173925568377383 0.35984199513742404
0.062127659574468086 0.463525258787096 0.36377120196473267
0.06234042553191489 0.4667944445802711 0.36554182414651076
0.0625531914893617 0.4696181711881694 0.3659013190034197
0.0627659574468085 0.46757042304723845 0.37021251393915683
0.06297872340425532 0.4682663847872247 0.37176355642403514
0.06319148936170213 0.4705697624965784 0.37176355642403514
0.06340425531914894 0.47209660277332127 0.3729635745552742
0.06361702127659574 0.4731677377549672 0.37486781452264467
0.06382978723404255 0.4742388727366131 0.3767720544900152
0.06404255319148935 0.475310007718259 0.3786762944573857
0.06425531914893617 0.476381142699905 0.38058053442475637
0.06446808510638298 0.4774522776815509 0.38248477439212686
0.06468085106382979 0.4785234126631968 0.3843890143594974
0.06489361702127659 0.4795945476448427 0.3862932543268679
0.0651063829787234 0.4799593909025949 0.3875239684470904
0.06531914893617022 0.47935207716460515 0.3878276253160853
0.06553191489361702 0.4787447634266155 0.38813128218508014
0.06574468085106383 0.47813744968862587 0.388434939054075
0.06595744680851064 0.4775301359506362 0.3887385959230698
0.06617021276595744 0.47692282221264654 0.38904225279206467
0.06638297872340425 0.47631550847465687 0.38934590966105953
0.06659574468085107 0.47673900066190544 0.4325712923752061
0.06680851063829787 0.47717750568236544 0.47642179442121024
0.06702127659574468 0.4760734796905187 0.48783230803480965
0.06723404255319149 0.4744757207817055 0.48885943876190385
0.06744680851063829 0.4728779618728923 0.48988656948899806
0.06765957446808511 0.471280202964079 0.4909137002160923
0.06787234042553192 0.4696824440552658 0.4919408309431865
0.06808510638297872 0.46808468514645263 0.49296796167028073
0.06829787234042553 0.46648692623763943 0.49399509239737494
0.06851063829787234 0.46488916732882624 0.49502222312446914
0.06872340425531914 0.46371200375476346 0.49520721538055507
0.06893617021276596 0.4642553067353109 0.4919473974972701
0.06914893617021277 0.46366294117667284 0.48784013745652904
0.06936170212765957 0.4615428248156238 0.482279090952934
0.06957446808510638 0.46070188323184846 0.4755515582827308
0.06978723404255319 0.46336585713544404 0.47353528430019415
0.06999999999999999 0.4604136079476633 0.4739076163923736
0.07021276595744681 0.45727844684551966 0.47597878240120856
0.07042553191489362 0.4542137520589783 0.4819795919724649
0.07063829787234042 0.44809909071453696 0.48814389588478474
0.07085106382978723 0.44845380736542256 0.49535801128320334
0.07106382978723404 0.4476611689253682 0.5012728232875945
0.07127659574468086 0.4450415241817294 0.5104721178269662
0.07148936170212766 0.4424636272928011 0.5176130482966645
0.07170212765957447 0.4421320982580012 0.5183411847260032
0.07191489361702127 0.44406448461162684 0.5196744667684293
0.07212765957446808 0.44292215984114724 0.5160798316065984
0.07234042553191489 0.4401563263312165 0.514542992954299
0.0725531914893617 0.4379320637289537 0.5145464253900419
0.07276595744680851 0.43624816805080613 0.5167707259059804
0.07297872340425532 0.43543818891737157 0.5181524315027554
0.07319148936170213 0.4315190224098737 0.5230096245279606
0.07340425531914893 0.4302030282811912 0.5295241830830502
0.07361702127659574 0.42820864808499415 0.537076972730942
0.07382978723404256 0.4265162044936382 0.5473178099004197
0.07404255319148936 0.4234268351911485 0.5473848781513496
0.07425531914893617 0.42200033635817813 0.5486077186126037
0.07446808510638298 0.4221370446114778 0.5494728575283877
0.07468085106382978 0.4191274415618102 0.548096664815352
0.0748936170212766 0.4175892500147922 0.5408262963890877
0.07510638297872341 0.41718855321735837 0.5332458474064807
0.07531914893617021 0.41296971667854565 0.5284243199335519
0.07553191489361702 0.41182217879824123 0.5222488009985686
0.07574468085106383 0.41254329884035834 0.5145046107426929
0.07595744680851063 0.4111455623199044 0.5074962863734895
0.07617021276595745 0.4117671740566853 0.5019848429554593
0.07638297872340426 0.41475329750854906 0.4924346855826517
0.07659574468085106 0.4153133116457591 0.48533050060975796
0.07680851063829787 0.41866521656586775 0.4816786276721223
0.07702127659574468 0.42235179727115557 0.48059456009136675
0.0772340425531915 0.4257805726614732 0.48216902784562765
0.0774468085106383 0.42729434854685944 0.48176073974708805
0.07765957446808511 0.4279149163406419 0.4811919882755251
0.07787234042553191 0.429938373634033 0.48181287870406264
0.07808510638297872 0.4336036092683495 0.48142214815627554
0.07829787234042553 0.4404116756043073 0.48643563401298784
0.07851063829787235 0.44107015027543334 0.48519496999476397
0.07872340425531915 0.43951613219785196 0.4881996879846124
0.07893617021276596 0.44083168336927786 0.48961166990042815
0.07914893617021276 0.44143853540809297 0.4913897870021766
0.07936170212765957 0.44412911230837515 0.4940227580803556
0.07957446808510638 0.4501237332045386 0.49471820204421746
0.0797872340425532 0.4544084403434902 0.48815790237848244
0.08 0.45933204341585615 0.47766578765283146
0.08021276595744681 0.46243122729725167 0.4657723766232448
0.08042553191489361 0.4718339675953887 0.45347897174668456
0.08063829787234042 0.47354062347112325 0.4424276380158488
0.08085106382978724 0.4751123929822271 0.43288019188119564
0.08106382978723405 0.4750318555311397 0.4204488277315788
0.08127659574468085 0.47772380447814894 0.406658824138085
0.08148936170212766 0.48346564163772676 0.3928501625243128
0.08170212765957446 0.4786944324773589 0.37951392473736406
0.08191489361702127 0.47542788090856264 0.3696174781429509
0.08212765957446809 0.4733381670995003 0.356582898259638
0.0823404255319149 0.47186634051793963 0.33952593696220384
0.0825531914893617 0.4682261074429613 0.3147964538986398
0.08276595744680851 0.4633682645763304 0.2906982659262303
0.08297872340425531 0.4595576686319209 0.2648492397698187
0.08319148936170212 0.45595388338251375 0.24178544062385193
0.08340425531914894 0.45481191988275516 0.22448117970735257
0.08361702127659575 0.4557780113034985 0.21261558799090735
0.08382978723404255 0.4590990205545324 0.22221713501496818
0.08404255319148936 0.46404175984267054 0.2408216149788214
0.08425531914893616 0.46889459520018906 0.26538514452612305
0.08446808510638298 0.4697947581951319 0.2901163291653599
0.08468085106382979 0.47618048923893863 0.31361301704368827
0.0848936170212766 0.47955371571249567 0.3368022690425032
0.0851063829787234 0.48544629289137786 0.3518797972982416
0.08531914893617021 0.4818610450891156 0.3662942655785804
0.08553191489361701 0.4792251708464318 0.3786537865703063
0.08574468085106383 0.4782608695652173 0.3833917087784546
0.08595744680851064 0.47799068664512534 0.389724143716239
0.08617021276595745 0.47693667540178847 0.39429989074627114
0.08638297872340425 0.4746411137894361 0.3982716414710701
0.08659574468085106 0.47148832100831733 0.40653661034481986
0.08680851063829788 0.47001997593367423 0.41364837250978864
0.08702127659574468 0.4715908688923372 0.42076947130633785
0.08723404255319149 0.4745666375306208 0.4346697946055449
0.0874468085106383 0.4721835341056518 0.44499657611374377
0.0876595744680851 0.4698004306806828 0.45532335762194265
0.08787234042553191 0.4674173272557137 0.4656501391301416
0.08808510638297873 0.4653257771448561 0.47067813101342426
0.08829787234042553 0.4644005911776561 0.4727962897265906
0.08851063829787234 0.4704294643816018 0.4768410132981109
0.08872340425531915 0.45875254790446196 0.4832434766396197
0.08893617021276595 0.4593838459343247 0.4851373707292075
0.08914893617021276 0.45766179065251467 0.4855683543558496
0.08936170212765958 0.4580696168294443 0.4868106395883753
0.08957446808510638 0.45969711773326827 0.49068451817415615
0.08978723404255319 0.4573596754581823 0.5005100452219688
0.09 0.4594840227756377 0.5099349221582549
0.0902127659574468 0.4566541088340407 0.5225073756921333
0.09042553191489362 0.45481191988275516 0.5290382235994605
0.09063829787234043 0.455138328297956 0.5394945110929785
0.09085106382978723 0.45487838495207944 0.5478865710849179
0.09106382978723404 0.45175425355086246 0.5551799341560444
0.09127659574468085 0.44832346899554054 0.5605157850292319
0.09148936170212765 0.44318500032588143 0.5644637600203561
0.09170212765957447 0.4386405217361542 0.5661944308744504
0.09191489361702128 0.43594112648558997 0.5644823226940255
0.09212765957446808 0.43324597911419793 0.5608887928655029
0.09234042553191489 0.42987694389688363 0.5573874301113568
0.0925531914893617 0.42537689450734295 0.5544699560332194
0.0927659574468085 0.423784312108347 0.5537305749319913
0.09297872340425532 0.42159257449926724 0.5512055904982955
0.09319148936170213 0.42081769192654905 0.550561797752809
0.09340425531914893 0.42015623136551217 0.5526327417786094
0.09361702127659574 0.4238927449250702 0.5511927460373139
0.09382978723404255 0.4231288508172874 0.5480035035411129
0.09404255319148937 0.4216510250086859 0.5494678571638691
0.09425531914893617 0.4209579475809794 0.5442430101297738
0.09446808510638298 0.4251112642629929 0.537664105535251
0.09468085106382979 0.41963849535906195 0.5404695991686522
0.09489361702127659 0.4187159725984472 0.5388918397210657
0.0951063829787234 0.4194176163942195 0.5413266836922005
0.09531914893617022 0.4240857630596132 0.5367820645011938
0.09553191489361702 0.42301119030565837 0.5289730401130266
0.09574468085106383 0.4254793834732554 0.5222703488326783
0.09595744680851064 0.4264777723497801 0.5215481442075462
0.09617021276595744 0.4267223642464417 0.5129411262459558
0.09638297872340426 0.42783956116001975 0.4965308709755896
0.09659574468085107 0.42895684696800696 0.4781293025697741
0.09680851063829787 0.4307247427934758 0.4599177391372934
0.09702127659574468 0.43212597945940295 0.44641881803254746
0.09723404255319149 0.43322545361964165 0.4387518215161512
0.09744680851063829 0.4391327783941926 0.4341545638098376
0.09765957446808511 0.43876294126929677 0.4308022761220075
0.09787234042553192 0.44178387410251213 0.4261550727858093
0.09808510638297872 0.44399841832281195 0.41840416801475977
0.09829787234042553 0.4497365537040909 0.4106451466764827
0.09851063829787234 0.446319410111066 0.4021020821787339
0.09872340425531914 0.441480463331863 0.3949296613974827
0.09893617021276596 0.44406448461162684 0.38827014099643914
0.09914893617021277 0.44373909188147576 0.38495315993059537
0.09936170212765957 0.44271456345544163 0.3898128214817568
0.09957446808510638 0.4467001872948733 0.393894654764874
0.09978723404255319 0.4481966590509983 0.39343476271701877
0.1 0.44985840034267194 0.3935197672812104
0.10021276595744681 0.4526181497929461 0.3915440387756909
0.10042553191489362 0.45481191988275516 0.39228138739618945
0.10063829787234042 0.4551743331472078 0.39246259402841577
0.10085106382978723 0.4592000987198142 0.3939154528319623
0.10106382978723404 0.4608401604540644 0.39201104192305314
0.10127659574468086 0.45912487446742173 0.39049475521757465
0.10148936170212766 0.460782525995759 0.38717945216090033
0.10170212765957447 0.4609646421546556 0.38750177456192475
0.10191489361702127 0.4615021849205619 0.3883732291157791
0.10212765957446808 0.46165119687347334 0.3845211311150618
0.10234042553191489 0.46262823644357587 0.38532763543293136
0.1025531914893617 0.46262823644357587 0.39078265637949333
0.10276595744680851 0.46302748121359544 0.3873540448357842
0.10297872340425532 0.4636052760136786 0.3871481467789721
0.10319148936170212 0.4649520980003533 0.38598321371919475
0.10340425531914893 0.4679929011805838 0.3812203427997687
0.10361702127659575 0.4666007670795087 0.37488779220091034
0.10382978723404256 0.4693682122815069 0.3678553981436248
0.10404255319148936 0.4691965169974111 0.3676200504325516
0.10425531914893617 0.47035066099103984 0.36794929015698175
0.10446808510638297 0.47045293364741936 0.36980947728383007
0.10468085106382978 0.47239863214460187 0.36729375040543544
0.1048936170212766 0.473166884381673 0.36897432795170426
0.1051063829787234 0.47255782241088673 0.37062732658764774
0.10531914893617021 0.4733248394470691 0.3726389314588671
0.10553191489361702 0.4734282248246312 0.376648754274548
0.10574468085106382 0.47717252968610324 0.37681570473806536
0.10595744680851064 0.4756998222131664 0.3790247659474707
0.10617021276595745 0.47326686779038063 0.38233038373756123
0.10638297872340426 0.47451952871210895 0.3877298244002803
0.10659574468085106 0.4720776890190365 0.39666740781659643
0.10680851063829787 0.4704777534163749 0.4075820163980479
0.10702127659574467 0.4661550296716983 0.4157781466277779
0.1072340425531915 0.4649397363160874 0.4254524497027788
0.1074468085106383 0.4654944488998739 0.4359919887947224
0.1076595744680851 0.46117028923920966 0.44775896581612645
0.10787234042553191 0.457750088352902 0.4548295442823526
0.10808510638297872 0.4595513472764657 0.4599400684946059
0.10829787234042552 0.45691333893076336 0.46546635503059863
0.10851063829787234 0.457743038593063 0.4712776579857351
0.10872340425531915 0.45733282497554534 0.47460631256725744
0.10893617021276596 0.45676599902296044 0.4791486385396147
0.10914893617021276 0.45676599902296044 0.48376251490374217
0.10936170212765957 0.45476886918570175 0.487762986338947
0.10957446808510639 0.4538348803126526 0.4930021122180596
0.1097872340425532 0.45289763174091124 0.5023287398325319
0.11 0.44885174474515077 0.5151948353949248
0.1102127659574468 0.447348085332688 0.5241013228978816
0.11042553191489361 0.4447456260853489 0.5333881911218014
0.11063829787234042 0.4423890347807747 0.54051277274243
0.11085106382978724 0.440706109396025 0.5427454811919883
0.11106382978723404 0.441133365901319 0.5447982984526245
0.11127659574468085 0.4403132047667653 0.5464967610368499
0.11148936170212766 0.4401563263312165 0.548558488041203
0.11170212765957446 0.43809007007175366 0.5467658165916562
0.11191489361702127 0.4377085006307014 0.5476306790425012
0.11212765957446809 0.43917928676111373 0.5491386197962089
0.1123404255319149 0.43815520190905904 0.5525629221749663
0.1125531914893617 0.4385208799389777 0.5593234418944278
0.1127659574468085 0.43604112964140385 0.56542442971375
0.11297872340425531 0.4370730927877533 0.5706993416420749
0.11319148936170213 0.4351758374429674 0.5754642421940537
0.11340425531914894 0.43365016539101453 0.5854244148074321
0.11361702127659574 0.4346770293033793 0.5898545393414583
0.11382978723404255 0.43374836007318596 0.593005809999908
0.11404255319148936 0.4354249615346231 0.5935515388373229
0.11425531914893616 0.43624816805080613 0.5935515388373229
0.11446808510638298 0.4312103506167291 0.5901929938812717
0.11468085106382979 0.43232998556167324 0.5906154080226539
0.1148936170212766 0.43025832742075737 0.5767704768307833
0.1151063829787234 0.4291511639908328 0.5680946413077376
0.11531914893617021 0.4291839844583515 0.5618327929467002
0.11553191489361703 0.43345668585625374 0.5518179023343297
0.11574468085106383 0.43237585187584 0.5444037488966962
0.11595744680851064 0.4296018341167934 0.5372568055982085
0.11617021276595745 0.4266520764352979 0.5221221310773202
0.11638297872340425 0.42466924059383376 0.5019901034689094
0.11659574468085106 0.42606542018309873 0.47624376227534826
0.11680851063829788 0.42520956623764783 0.4491696257421529
0.11702127659574468 0.42737084459857066 0.42349325460380294
0.11723404255319149 0.4284318514899854 0.40095770017008003
0.1174468085106383 0.4284318514899854 0.38410766602382856
0.1176595744680851 0.4300733710872582 0.373990834165867
0.11787234042553191 0.43230166815585186 0.3679512521799846
0.11808510638297873 0.43342813391861346 0.36492427943331696
0.11829787234042553 0.43453948560219086 0.36516967612490703
0.11851063829787234 0.4383095490246875 0.3666609241394157
0.11872340425531915 0.4415434423459855 0.36939940083916345
0.11893617021276595 0.44080358122245183 0.3727282815276387
0.11914893617021277 0.44268963151332014 0.3807208308182457
0.11936170212765958 0.44675948118792314 0.38893705495136205
0.11957446808510638 0.4536005028817639 0.38911589125499313
0.11978723404255319 0.4511197119143916 0.38598724935148054
0.12 0.45222897236919274 0.38098335886791657
0.1202127659574468 0.4543193763595784 0.3732331395173146
0.12042553191489362 0.45830142789369466 0.3673667366525708
0.12063829787234043 0.45815701187123614 0.36954459701941317
0.12085106382978723 0.46138395480312744 0.3625944553812876
0.12106382978723404 0.458733500005324 0.35907546385486
0.12127659574468085 0.4634270527246827 0.3628276216619152
0.12148936170212765 0.4627609961297944 0.36381448017699597
0.12170212765957447 0.46355104653852225 0.37132972062278435
0.12191489361702128 0.46288375852710045 0.375589002426679
0.12212765957446808 0.46555963797006183 0.3897406885712733
0.12234042553191489 0.46262535003974076 0.396836094716943
0.1225531914893617 0.46458231558378116 0.40098808873507297
0.12276595744680852 0.46285766432049463 0.39917736432507134
0.12297872340425532 0.46165119687347334 0.39716658524670256
0.12319148936170213 0.4608197002644311 0.39716658524670256
0.12340425531914893 0.46164008904573955 0.3875072678230143
0.12361702127659574 0.46664575004454545 0.38011949127272165
0.12382978723404255 0.4698973683341862 0.37736393448657723
0.12404255319148937 0.4750155311761222 0.3773115741658633
0.12425531914893617 0.47142159257449934 0.37475099231057785
0.12446808510638298 0.4720751815440102 0.37697889264346734
0.12468085106382978 0.47239863214460187 0.3815863789534135
0.12489361702127659 0.47426362087279256 0.37971350860287745
0.1251063829787234 0.4724678056598215 0.38383389884136426
0.12531914893617022 0.4733756717147044 0.38878137185999184
0.125531914893617 0.4733756717147044 0.39100807610939226
0.12574468085106383 0.4733756717147044 0.3932515187007645
0.12595744680851065 0.474002592096218 0.39423546653639474
0.12617021276595744 0.47435271128480694 0.39577042258932854
0.12638297872340426 0.47525549682529944 0.3970923312170923
0.12659574468085105 0.4763725398609953 0.40316032153928416
0.12680851063829787 0.47667763476139047 0.4063973573528799
0.1270212765957447 0.47435271128480694 0.4137467271713244
0.12723404255319148 0.4735264799112301 0.4185106475924337
0.1274468085106383 0.4707981488809627 0.4249734395711925
0.1276595744680851 0.4674731261938245 0.43472725703467346
0.12787234042553192 0.46733662083997846 0.442026564316861
0.1280851063829787 0.46657752952379333 0.44963877843359273
0.12829787234042553 0.4655593551538837 0.4558074848137162
0.12851063829787235 0.4650919360510711 0.4657508633408128
0.12872340425531914 0.46434600842981966 0.4724304430988583
0.12893617021276596 0.4627507254949387 0.4782200398814298
0.12914893617021275 0.4602112012660737 0.4818083267993473
0.12936170212765957 0.4606741573033708 0.487082840608955
0.1295744680851064 0.4606741573033708 0.4876109395447335
0.12978723404255318 0.45662715725362546 0.49191062575583516
0.13 0.45949183333430604 0.4984707739389285
0.1302127659574468 0.4509037616023448 0.5019152510409804
0.13042553191489362 0.4503418727898813 0.5040790491455237
0.13063829787234044 0.4479726428920372 0.502927568609845
0.13085106382978723 0.4467026459604299 0.5073113067702328
0.13106382978723405 0.44234461026807187 0.5116836669394261
0.13127659574468084 0.4427877798731036 0.5154078842453259
0.13148936170212766 0.44095052651058475 0.5187008813749999
0.13170212765957448 0.4419494699328429 0.525572534115219
0.13191489361702127 0.4380817520128847 0.5280898876404494
0.1321276595744681 0.4352711284807034 0.5280898876404494
0.13234042553191488 0.4352711284807034 0.529207339322971
0.1325531914893617 0.4332824631185453 0.5323957789932914
0.1327659574468085 0.4309018349172191 0.5345227983520483
0.13297872340425532 0.433140896324963 0.5382767723674967
0.13319148936170214 0.4301867392259393 0.5418680373240113
0.13340425531914893 0.4284318514899854 0.5451562934780361
0.13361702127659575 0.42658557976699757 0.5493691433482716
0.13382978723404254 0.4299187562178341 0.5476306790425012
0.13404255319148936 0.4242831794172215 0.5472624161536266
0.13425531914893618 0.42624219725676044 0.5459797535680767
0.13446808510638297 0.42185506177976645 0.5436933537179134
0.1346808510638298 0.4228846567078263 0.5441425776133663
0.13489361702127659 0.4222114296479522 0.5384206302736702
0.1351063829787234 0.4206155349291647 0.5308482106963577
0.13531914893617022 0.4206155349291647 0.5228801054265872
0.13553191489361702 0.4177624345459041 0.5145673703131077
0.13574468085106384 0.4194813139800518 0.5173764036653624
0.13595744680851063 0.4183857107203642 0.512457254518808
0.13617021276595745 0.4176844162188569 0.512457254518808
0.13638297872340424 0.4187208128353713 0.5093480646692644
0.13659574468085106 0.4209115742793368 0.5053219381779177
0.13680851063829788 0.42614264476768327 0.5016075577790432
0.13702127659574467 0.43493644073961096 0.49241985876676797
0.1372340425531915 0.43624816805080613 0.4815397505488264
0.13744680851063829 0.440590782336184 0.47072646296655135
0.1376595744680851 0.44566583347881106 0.4615242450234064
0.13787234042553193 0.4489246778106066 0.4519308104755138
0.13808510638297872 0.4509037616023448 0.4455039035360536
0.13829787234042554 0.4509037616023448 0.43892905876540617
0.13851063829787233 0.4483019721097937 0.43494727330453054
0.13872340425531915 0.44699560332193444 0.4322222246719923
0.13893617021276597 0.4438917079646318 0.43213894403961883
0.13914893617021276 0.44129461533757336 0.4323400097703958
0.13936170212765958 0.4400044210768649 0.4284318514899854
0.13957446808510637 0.4365630852348685 0.42811693430592307
0.1397872340425532 0.4390361857431146 0.42508787476294113
0.13999999999999999 0.4455429084606765 0.4195882369722866
0.1402127659574468 0.45292922955776216 0.41513473407078233
0.14042553191489363 0.4570801535339419 0.40923287542864145
0.14063829787234042 0.46494872440461493 0.4041686937293064
0.14085106382978724 0.47284953373810257 0.39997962298502443
0.14106382978723403 0.4786481229065422 0.40083882903560175
0.14127659574468085 0.47923790913532005 0.39819159473707283
0.14148936170212767 0.4853004667002036 0.4002980241012783
0.14170212765957446 0.4866141672201705 0.40315192928714105
0.14191489361702128 0.4844188435759884 0.40693698094772834
0.14212765957446807 0.4849899230062176 0.4083198726405938
0.1423404255319149 0.48473911217553534 0.40986809965803617
0.1425531914893617 0.4831460674157304 0.40986809965803617
0.1427659574468085 0.4823579012517239 0.4075036011660169
0.14297872340425533 0.4812646461725093 0.4051282176014916
0.14319148936170212 0.4811919882755251 0.40266556537727566
0.14340425531914894 0.48135574645422385 0.3945574733917023
0.14361702127659573 0.48216902784562765 0.39015751452766356
0.14382978723404255 0.4837939834794528 0.3849587560949389
0.14404255319148937 0.4829276084859307 0.37838437448495366
0.14425531914893616 0.4789237516957669 0.3711525251706508
0.14446808510638298 0.4782608695652173 0.36729968148053416
0.14468085106382977 0.4782608695652173 0.3615574282859419
0.1448936170212766 0.4782902489734262 0.3539124294883086
0.1451063829787234 0.47937957714340135 0.34396680795045226
0.1453191489361702 0.4784161652290875 0.3317585563095213
0.14553191489361703 0.47300473440302465 0.3146515644801448
0.14574468085106382 0.47336962189754295 0.2956089183104863
0.14595744680851064 0.47435271128480694 0.2795231236036731
0.14617021276595746 0.47435271128480694 0.2772081641975495
0.14638297872340425 0.4709834986301479 0.29144460831282276
0.14659574468085107 0.4733282637885247 0.3109026555205966
0.14680851063829786 0.4733756717147044 0.3333786165876126
0.14702127659574468 0.47248182163718844 0.36283479888376363
0.14723404255319147 0.4687842463047964 0.39398294952419255
0.1474468085106383 0.467513434294089 0.42044103565909163
0.14765957446808511 0.467513434294089 0.4433661096611399
0.1478723404255319 0.46401560764418504 0.4585989802321333
0.14808510638297873 0.46262823644357587 0.4690073896784932
0.14829787234042552 0.46262823644357587 0.47795451458031835
0.14851063829787234 0.46311867210796603 0.48412310698583294
0.14872340425531916 0.4682868581957036 0.48493756965978474
0.14893617021276595 0.46782794243357956 0.4880312652662433
0.14914893617021277 0.46558443130341515 0.48886156314075074
0.14936170212765956 0.4621847798609129 0.49318684233108606
0.14957446808510638 0.46067512800044214 0.5004048348610429
0.1497872340425532 0.45969711773326827 0.5096314015324994
0.15 0.4543640612703431 0.5185909568992721
0.15021276595744681 0.4517470030611598 0.5308872082394694
0.1504255319148936 0.44859300461776175 0.5260272150503289
0.15063829787234043 0.45025534977221077 0.5191899368128042
0.15085106382978725 0.4460185637518319 0.5163654127992183
0.15106382978723404 0.4460185637518319 0.5199109092466963
0.15127659574468086 0.446647004251726 0.5288606542889833
0.15148936170212765 0.4432471282361165 0.5364962160238415
0.15170212765957447 0.4412463927619449 0.5413163341793823
0.15191489361702126 0.446021132339491 0.5466613452353758
0.15212765957446808 0.44650877348836115 0.5500715880162798
0.1523404255319149 0.4428467259883407 0.55301147835675
0.1525531914893617 0.4413987112618551 0.5518946844276947
0.15276595744680851 0.43874084900289256 0.5529877026691221
0.1529787234042553 0.43664282656015396 0.550581011159343
0.15319148936170213 0.4355530292268389 0.5437417468448342
0.15340425531914895 0.4320293891636489 0.5360953978170404
0.15361702127659574 0.42950882580732613 0.5256584426663324
0.15382978723404256 0.42745481191988266 0.5089797878192898
0.15404255319148935 0.4272773617591109 0.4833277723199333
0.15425531914893617 0.4261839992410397 0.46154225187539893
0.154468085106383 0.4263212810016828 0.4466445291442211
0.15468085106382978 0.4269270130457526 0.4389436122266411
0.1548936170212766 0.4251852692774965 0.4388331741953735
0.1551063829787234 0.42605336714092473 0.4462750220566156
0.15531914893617021 0.424709681303061 0.45769714364899267
0.155531914893617 0.4256385529857456 0.47487642806786545
0.15574468085106383 0.43111744317466794 0.4939405806790247
0.15595744680851065 0.4318029970673749 0.5021567541628557
0.15617021276595744 0.42333542323780576 0.5089320008226156
0.15638297872340426 0.4250175826816439 0.5115016936967757
0.15659574468085105 0.42610834102062 0.5116114693660833
0.15680851063829787 0.432271952822568 0.5134002656149969
0.1570212765957447 0.4319579935309745 0.510517841359636
0.15723404255319148 0.431362970200293 0.5051332818708785
0.1574468085106383 0.4362862578793569 0.4986263412231688
0.1576595744680851 0.4382022471910112 0.4905534308605058
0.15787234042553192 0.43896716754983406 0.48650142454859757
0.15808510638297874 0.441133365901319 0.4806738098845733
0.15829787234042553 0.4416240398407973 0.47678884774678254
0.15851063829787235 0.4445408735678999 0.47289928275843135
0.15872340425531914 0.44746644037166955 0.4678019010249053
0.15893617021276596 0.44629054744674884 0.4631722038334097
0.15914893617021275 0.4488991037828235 0.46262823644357587
0.15936170212765957 0.44946433660613516 0.4594912560756701
0.1595744680851064 0.4531735390327957 0.4557590147534924
0.15978723404255318 0.45192118021296346 0.4465757057040296
0.16 0.45474845530362046 0.4384561055075504
0.1602127659574468 0.45750629077489624 0.430859426266524
0.16042553191489362 0.4600946028968899 0.4249955396556745
0.16063829787234044 0.46308711441371714 0.4203293774923439
0.16085106382978723 0.4663624917101317 0.4150431358649732
0.16106382978723405 0.4665363947239862 0.4108451392281387
0.16127659574468084 0.467194860361715 0.40952820795268124
0.16148936170212766 0.47015974207090233 0.4035984445343065
0.16170212765957448 0.46946751343429405 0.4017635037172288
0.16191489361702127 0.47050879591893585 0.3966459440043816
0.1621276595744681 0.4720573113333386 0.39237523312356404
0.16234042553191488 0.47239863214460187 0.38882332376263695
0.1625531914893617 0.47239863214460187 0.3883732291157791
0.1627659574468085 0.4724962453433367 0.38537703493964826
0.16297872340425532 0.4782608695652173 0.38153395212506114
0.16319148936170214 0.4782608695652173 0.3802549055447541
0.16340425531914893 0.4793867864628068 0.3755228373769586
0.16361702127659575 0.48020416876970506 0.37124808679969007
0.16382978723404254 0.4786357062138243 0.3694346406352231
0.16404255319148936 0.47897648010318755 0.3726719194357106
0.16425531914893618 0.4775681267356321 0.3703780707648647
0.16446808510638297 0.4830091672666127 0.36503836289091507
0.1646808510638298 0.47640301684602504 0.3616082550389581
0.16489361702127658 0.47626832745110664 0.3574757009161941
0.1651063829787234 0.47184833278879096 0.35350298566485855
0.16531914893617022 0.47005200646255846 0.3485065532279993
0.16553191489361702 0.4704826882899408 0.34632239231582373
0.16574468085106384 0.47079617233664306 0.34600890826912145
0.16595744680851063 0.4704445530043966 0.3478476161685048
0.16617021276595745 0.4738917821129543 0.35520906495868837
0.16638297872340424 0.47142422718030086 0.36589253698408125
0.16659574468085106 0.47130410477630685 0.3762220165108449
0.16680851063829788 0.4695296084930484 0.38991228695188396
0.16702127659574467 0.4662137278957774 0.4007249594424755
0.1672340425531915 0.4655593551538837 0.4109737492254243
0.16744680851063828 0.4655593551538837 0.4214111190936203
0.1676595744680851 0.4629503475922144 0.43039396022333104
0.16787234042553192 0.46165119687347334 0.43869421147302745
0.16808510638297872 0.459877544096436 0.4472509374393662
0.16829787234042554 0.45884353656702975 0.45231290558597237
0.16851063829787233 0.4620415823000482 0.4657060186897656
0.16872340425531915 0.4587200781631655 0.467866370639037
0.16893617021276597 0.45910261828919435 0.4737168333306718
0.16914893617021276 0.45821503451949414 0.4787659132088889
0.16936170212765958 0.45676599902296044 0.48266684476702504
0.16957446808510637 0.456035514485343 0.4928889214372422
0.1697872340425532 0.45409039212811353 0.5026418511260412
0.17 0.4480253060544047 0.5152830469043808
0.1702127659574468 0.4437373248407297 0.5255949819580045
0.17042553191489362 0.4406828254495066 0.5301932783400829
0.17063829787234042 0.43850032610937056 0.535649526690423
0.17085106382978724 0.43768097448484033 0.5402046235033732
0.17106382978723403 0.436480766003123 0.5440637498724032
0.17127659574468085 0.4345792583339345 0.5456765999022961
0.17148936170212767 0.4326743429762699 0.5448667269351305
0.17170212765957446 0.4323400097703958 0.5437730273180144
0.17191489361702128 0.43826596407012713 0.54593146741876
0.17212765957446807 0.4375328545701745 0.5499506320029152
0.1723404255319149 0.4291773885305689 0.5536537859972492
0.1725531914893617 0.4264777723497801 0.5596362296489096
0.1727659574468085 0.4275500382376381 0.5666705624632271
0.17297872340425532 0.42720728490673693 0.5741410451830843
0.17319148936170212 0.4278802167731834 0.5808733820573874
0.17340425531914894 0.42924709379101506 0.5868803150713428
0.17361702127659576 0.43034354691821086 0.5942318924235681
0.17382978723404255 0.432563126298346 0.5987342253917695
0.17404255319148937 0.43623936410072645 0.6006020708522047
0.17425531914893616 0.44139048138970977 0.5913917674849597
0.17446808510638298 0.44449011779378134 0.582030296842905
0.17468085106382977 0.4444993149423164 0.5705427341813466
0.1748936170212766 0.4434144640894651 0.5583941846085109
0.1751063829787234 0.4438456993024233 0.5468874134242283
0.1753191489361702 0.44406448461162684 0.5394419956314547
0.17553191489361702 0.44406448461162684 0.5330110292148867
0.17574468085106382 0.4435096550520346 0.5346517498513714
0.17595744680851064 0.43989943240454704 0.5329750854909623
0.17617021276595746 0.4388031365427724 0.532598935272621
0.17638297872340425 0.43721595613003394 0.5295323182684164
0.17659574468085107 0.43503041395401476 0.5222418316831817
0.17680851063829786 0.4335697145562522 0.5127771623203881
0.17702127659574468 0.4333170493404983 0.500059509569773
0.1772340425531915 0.4333170493404983 0.48231186487748257
0.1774468085106383 0.43444812779253666 0.4586701918536963
0.1776595744680851 0.4367238887538106 0.4363128816834645
0.1778723404255319 0.43429408891060084 0.4114512757622127
0.17808510638297873 0.4350957978821435 0.3865690380180887
0.17829787234042552 0.43572703390873924 0.36179677901073426
0.17851063829787234 0.4352711284807034 0.3400579509611979
0.17872340425531916 0.43677202210508953 0.32390320463152467
0.17893617021276595 0.43558023278829516 0.31437759944824684
0.17914893617021277 0.4343866516755533 0.307834321386979
0.17936170212765956 0.4315575535977552 0.3081911232348795
0.17957446808510638 0.4322887753393307 0.30918178950640435
0.1797872340425532 0.43329890807345117 0.31402751545274665
0.18 0.4352711284807034 0.3068667368886858
0.1802127659574468 0.4360576296512158 0.3141243086810203
0.1804255319148936 0.43980527354748555 0.3205303272138799
0.18063829787234043 0.4432748846614998 0.3288408228934665
0.18085106382978725 0.44799094807472134 0.3366267422657105
0.18106382978723404 0.4510083762421647 0.34320242570555826
0.18127659574468086 0.45572949018664494 0.3492321770454627
0.18148936170212765 0.457743038593063 0.3557984370135811
0.18170212765957447 0.4594902742365002 0.36322328762452616
0.18191489361702126 0.460631193130135 0.3709583735468758
0.18212765957446808 0.45880175148414093 0.3819816352496247
0.1823404255319149 0.464553711355483 0.379608477213154
0.1825531914893617 0.46165119687347334 0.38251099169516367
0.1827659574468085 0.46262140857130046 0.3834812033929907
0.1829787234042553 0.4642048843312001 0.388062720740498
0.18319148936170213 0.46458231558378116 0.3888990827666982
0.18340425531914895 0.4695685161276026 0.38504909541989807
0.18361702127659574 0.4742364302756394 0.3825691321997475
0.18382978723404256 0.4753297508549097 0.38294363117698943
0.18404255319148935 0.4753297508549097 0.38658159163871847
0.18425531914893617 0.4750112346684124 0.38380654745176346
0.184468085106383 0.4734831032030508 0.38576948295800306
0.18468085106382978 0.4735024885351532 0.3879481177409522
0.1848936170212766 0.4730820537280373 0.3902792154509337
0.1851063829787234 0.4731251198223772 0.39348381085941314
0.1853191489361702 0.4717000226547869 0.39591111559631226
0.185531914893617 0.4685566505070437 0.3961895456765998
0.18574468085106383 0.46672872458282627 0.40264416294963795
0.18595744680851065 0.46870378881230396 0.3999739241793574
0.18617021276595744 0.46979273683674033 0.4049801630819957
0.18638297872340426 0.4708794701583089 0.4123703973192314
0.18659574468085105 0.47142159257449934 0.42054946436485113
0.18680851063829787 0.47075676598331845 0.43085974614246103
0.1870212765957447 0.4704445530043966 0.4428927947208212
0.18723404255319148 0.4695451029147607 0.4639299760640835
0.1874468085106383 0.46926408291891714 0.47687639586806757
0.1876595744680851 0.46427345045286444 0.4919929677574068
0.18787234042553191 0.46262823644357587 0.5071414979502584
0.18808510638297873 0.4619393315581647 0.5199854363949373
0.18829787234042553 0.46109288882514204 0.5220880736932738
0.18851063829787235 0.4595408785706978 0.525315008092712
0.18872340425531914 0.457743038593063 0.5290405198090855
0.18893617021276596 0.45924207664914696 0.5277954096965288
0.18914893617021278 0.45624869339903973 0.5296991663210183
0.18936170212765957 0.4557889594528579 0.5280923057643298
0.1895744680851064 0.45496947568590795 0.530354687415759
0.18978723404255318 0.4484856853271957 0.5388863682117925
0.19 0.4480316511123848 0.536596902728237
0.1902127659574468 0.44670705649022013 0.5369403789008976
0.19042553191489361 0.4459381924036026 0.5296345600046976
0.19063829787234043 0.44251821336225566 0.5190225357091374
0.19085106382978723 0.4385720971598358 0.5076521523566251
0.19106382978723405 0.44001146064474816 0.49838112371314225
0.19127659574468084 0.439050001266243 0.4905745274919389
0.19148936170212766 0.43624816805080613 0.48139340988205037
0.19170212765957448 0.43651038661382957 0.4770216114320913
0.19191489361702127 0.43722520762090866 0.47517303233492647
0.1921276595744681 0.43674015598138793 0.4728906200751837
0.19234042553191488 0.4356603687706266 0.47533762854549894
0.1925531914893617 0.434570271554489 0.47868554384754364
0.19276595744680852 0.43429408891060084 0.4776027262604035
0.19297872340425531 0.43150193759185534 0.47914526420761183
0.19319148936170213 0.4302502026613917 0.48348538733772745
0.19340425531914893 0.4284318514899854 0.4910041271305911
0.19361702127659575 0.4275231088521037 0.5051784694510209
0.19382978723404254 0.4263408809891846 0.5140100596001934
0.19404255319148936 0.42853201524743073 0.5271752289512452
0.19425531914893618 0.4300653074969129 0.539218626725935
0.19446808510638297 0.4319267529533107 0.553531237453829
0.1946808510638298 0.43322485017264384 0.5555391947711764
0.19489361702127658 0.43532170275595433 0.5592540053332303
0.1951063829787234 0.43709306543061766 0.5555791377936129
0.19531914893617022 0.4364075129559552 0.5565833800785736
0.19553191489361701 0.4368871043972097 0.5568939199079788
0.19574468085106383 0.4355384718589945 0.5542026126549282
0.19595744680851063 0.43624816805080613 0.5523752949605266
0.19617021276595745 0.4367304954017393 0.5476678336472096
0.19638297872340427 0.4384152379320072 0.538154393621151
0.19659574468085106 0.44130791901504834 0.5254375960453268
0.19680851063829788 0.44211040547142155 0.510654196919257
0.19702127659574467 0.44296348840395494 0.49831210104799667
0.1972340425531915 0.4459238159283312 0.47602456822724815
0.19744680851063828 0.4461012279177904 0.4522493307380415
0.1976595744680851 0.44719072874536236 0.4174991779661719
0.19787234042553192 0.44828092067507097 0.37979365741183424
0.19808510638297872 0.44894968246213973 0.3514651499129554
0.19829787234042554 0.44948626886712095 0.3377192249159862
0.19851063829787233 0.4512290442637199 0.3359383749916144
0.19872340425531915 0.44959176510800947 0.3457462761580941
0.19893617021276597 0.45155342155544853 0.3613333022081167
0.19914893617021276 0.45089984320575405 0.3737685747199205
0.19936170212765958 0.4495711793207301 0.38689320692425694
0.19957446808510637 0.44745257482107215 0.3914697370038286
0.1997872340425532 0.44997800824998074 0.393498629793429
0.2 0.45370063938642213 0.38941738914899704
0.2002127659574468 0.4512083250695944 0.3918087049032268
0.20042553191489362 0.44866404360415685 0.39423546653639474
0.20063829787234042 0.45138011785546345 0.3982861921919341
0.20085106382978724 0.4528109062791976 0.401910979707158
0.20106382978723403 0.45504726324588324 0.4059599413776258
0.20127659574468085 0.4595976454284005 0.40631096828371976
0.20148936170212767 0.4627280126417797 0.4082064416417972
0.20170212765957446 0.4619016472920552 0.40889106008793363
0.20191489361702128 0.46465450568198224 0.4094156749220854
0.20212765957446807 0.46812706666509607 0.4073003881468238
0.2023404255319149 0.46870682998345986 0.403677891025123
0.2025531914893617 0.4719908833756837 0.3995284131558258
0.2027659574468085 0.47438544929714993 0.3980617797859476
0.20297872340425532 0.47669820407177443 0.3933888981818796
0.20319148936170212 0.4794845256044304 0.39423546653639474
0.20340425531914894 0.48277459519409766 0.3920414838318161
0.20361702127659576 0.4855986483496808 0.3883732291157791
0.20382978723404255 0.4853275577607509 0.39078213066561523
0.20404255319148937 0.48679603503931457 0.393000236309466
0.20425531914893616 0.4887273669608011 0.3899121444369713
0.20446808510638298 0.48900830483634583 0.3855250779746521
0.20468085106382977 0.48900830483634583 0.3785850459568181
0.2048936170212766 0.48939738122093884 0.3678640953608651
0.2051063829787234 0.48964898234386517 0.35806897913377517
0.2053191489361702 0.4851001465559355 0.3483061222531737
0.20553191489361702 0.4824354347305177 0.340675894770679
0.20574468085106382 0.47923790913532005 0.3385442110405472
0.20595744680851064 0.4778694149034962 0.34196544662010664
0.20617021276595746 0.47728382999511476 0.3514477737639602
0.20638297872340425 0.47820498310123544 0.36517479497165534
0.20659574468085107 0.47130185511375106 0.38432619349050406
0.20680851063829786 0.4691057105493028 0.4004228112116244
0.20702127659574468 0.46691245585328467 0.4207630819165921
0.2072340425531915 0.46471449362241085 0.44063055039664734
0.2074468085106383 0.4614616839510278 0.4575240507127429
0.2076595744680851 0.45969711773326827 0.47615631390661994
0.2078723404255319 0.4627330614245692 0.4943128026108314
0.20808510638297872 0.45570467570181566 0.5153585505491863
0.20829787234042554 0.45281928815788763 0.5283212031484242
0.20851063829787234 0.4506204131114249 0.5405227337089802
0.20872340425531916 0.44894968246213973 0.5460267252141321
0.20893617021276595 0.44933400043335986 0.5495847581827065
0.20914893617021277 0.44892705418333134 0.5495847581827065
0.20936170212765956 0.4492115350474849 0.5502042042604303
0.20957446808510638 0.4491904011762018 0.557925006313214
0.2097872340425532 0.45494278142484207 0.5714622343845678
0.21 0.4538398727965338 0.5808300544904645
0.2102127659574468 0.4519998940102037 0.5892375083075373
0.2104255319148936 0.45309917748419276 0.5994254688614703
0.21063829787234042 0.4538348803126526 0.5939521455194341
0.21085106382978724 0.4538348803126526 0.591563872657672
0.21106382978723404 0.4538348803126526 0.5863368388829191
0.21127659574468086 0.4538348803126526 0.576761337311881
0.21148936170212765 0.45214235566658456 0.5631401144828967
0.21170212765957447 0.45188080117244755 0.5477986279085921
0.2119148936170213 0.4516641637566992 0.5302649465948733
0.21212765957446808 0.449468182708936 0.514072716182687
0.2123404255319149 0.44657666902544646 0.49961514776523885
0.2125531914893617 0.44312519611565154 0.4804792062243141
0.2127659574468085 0.43916740270224147 0.4663124650686721
0.2129787234042553 0.43319669538621464 0.45627984722721476
0.21319148936170212 0.42904715450474373 0.4530629417474695
0.21340425531914894 0.4248633631199133 0.45464208492758607
0.21361702127659574 0.4195931748129106 0.4537668994934256
0.21382978723404256 0.417404739273005 0.44978505381893724
0.21404255319148935 0.41494819549586504 0.44100173415409316
0.21425531914893617 0.4116535272739679 0.43221595222903386
0.214468085106383 0.40986809965803617 0.4209320888550998
0.21468085106382978 0.4123551877335554 0.41040089337639035
0.2148936170212766 0.4122978535303104 0.4108708293341029
0.2151063829787234 0.41182217879824123 0.41526661440312923
0.2153191489361702 0.4157109906501575 0.42361114173445263
0.21553191489361703 0.4129279738506679 0.4351196260930326
0.21574468085106382 0.41452638140716 0.4499960971967883
0.21595744680851064 0.41559791837943094 0.4616786335480279
0.21617021276595744 0.4147513066460168 0.47238668696940794
0.21638297872340426 0.4169456572454071 0.48555279056575
0.21659574468085105 0.4191406897361969 0.4958104384758087
0.21680851063829787 0.41963849535906195 0.5079755989290462
0.2170212765957447 0.4242556972358271 0.5132198973099121
0.21723404255319148 0.43141881485433614 0.522227650219834
0.2174468085106383 0.43182844293509065 0.522398172498269
0.2176595744680851 0.43086391080995423 0.5229136858399632
0.2178723404255319 0.4351199926056021 0.5209887946773322
0.21808510638297873 0.43678064520100623 0.5161016686083254
0.21829787234042553 0.43722520762090866 0.5101905211639967
0.21851063829787234 0.43876387839772524 0.4977784008006811
0.21872340425531914 0.4427311004222708 0.47799942736646517
0.21893617021276596 0.4432414737751059 0.4631123840662168
0.21914893617021278 0.44857383038938764 0.44586848665131057
0.21936170212765957 0.4537468162248763 0.43082863238466174
0.2195744680851064 0.46333393944315565 0.41813217853927465
0.21978723404255318 0.4709452992693574 0.405288024393933
0.22 0.4745149422155972 0.39071958567817006
0.2202127659574468 0.47852117727160093 0.3827285052312596
0.2204255319148936 0.4826722275304445 0.3695138377421255
0.22063829787234043 0.483148732565008 0.3629635374199179
0.22085106382978723 0.4851001465559355 0.35761221018284894
0.22106382978723405 0.4847014352574592 0.3543761998114268
0.22127659574468084 0.48441820437784927 0.35610798645388037
0.22148936170212766 0.4835465562372776 0.35896191980731473
0.22170212765957448 0.47923790913532005 0.3617216582011346
0.22191489361702127 0.47719789751153396 0.3629702002931119
0.2221276595744681 0.4755063237943997 0.36857346670739993
0.22234042553191488 0.4753297508549097 0.3624364068835292
0.2225531914893617 0.4742879138595081 0.35769621789080597
0.22276595744680852 0.47300467798128615 0.35129528068843774
0.2229787234042553 0.4708146005400024 0.347034071154222
0.22319148936170213 0.46861894838710055 0.3472090926485614
0.22340425531914893 0.4707909370007509 0.34940710764379374
0.22361702127659575 0.46938413716682703 0.34760766284985994
0.22382978723404254 0.467513434294089 0.3502860123638411
0.22404255319148936 0.467513434294089 0.3575858568987065
0.22425531914893618 0.4637103133194158 0.3633378308631921
0.22446808510638297 0.4655593551538837 0.37051640357999804
0.2246808510638298 0.4655593551538837 0.37552338856154444
0.22489361702127658 0.46514072646872295 0.3820916450958204
0.2251063829787234 0.46351451086291845 0.38811162220762807
0.22531914893617022 0.46262823644357587 0.3942409113771598
0.225531914893617 0.46416846123188205 0.39849988285905896
0.22574468085106383 0.46546988481977025 0.39912066438690763
0.22595744680851063 0.4674240297919882 0.4011641480292137
0.22617021276595745 0.4644334215399936 0.4046014384125707
0.22638297872340427 0.463334714624555 0.4092668274634488
0.22659574468085106 0.463802141260946 0.4163209328204543
0.22680851063829788 0.4609953756341734 0.42666366285450086
0.22702127659574467 0.4542696719904589 0.4382278695396722
0.2272340425531915 0.45211835042713316 0.450984289256425
0.22744680851063828 0.4493070756289844 0.46327187397201725
0.2276595744680851 0.4450415241817294 0.4743782814586514
0.22787234042553192 0.4447988447966307 0.4848511451411289
0.22808510638297871 0.4426077139442912 0.4916644032467636
0.22829787234042553 0.4432810357849833 0.49610873143594514
0.22851063829787233 0.4474710808594346 0.4962969748694616
0.22872340425531915 0.44856653666772445 0.4966138734158945
0.22893617021276597 0.45179750708345234 0.4951356256717359
0.22914893617021276 0.4553417399027516 0.4932146094834937
0.22936170212765958 0.4632843197853408 0.4872949428673941
0.22957446808510637 0.46466208140291504 0.4912016814339527
0.2297872340425532 0.46535993480426047 0.49548886548384447
0.23 0.46521996137485594 0.5036227566209039
0.2302127659574468 0.4660995433204082 0.5110668678969192
0.23042553191489362 0.4644539518779585 0.5164937765050409
0.23063829787234041 0.4629345252570368 0.5206962061525294
0.23085106382978723 0.4602626787854149 0.5206506117810598
0.23106382978723405 0.4542333621937324 0.5184523192331169
0.23127659574468085 0.4535741652168067 0.5111673568336903
0.23148936170212767 0.44861307869726585 0.5054496756456529
0.23170212765957446 0.44813606175887105 0.504070708739519
0.23191489361702128 0.44807949143394155 0.5030903259846969
0.23212765957446807 0.44249664143444273 0.504709127172674
0.2323404255319149 0.44241165440819635 0.5113702758090383
0.2325531914893617 0.4415724149821402 0.5219864839559327
0.2327659574468085 0.4393764109139185 0.5276956393348399
0.23297872340425532 0.4555791026916333 0.5378902628787932
0.23319148936170211 0.44211040547142155 0.5404286208845707
0.23340425531914893 0.4415283816758459 0.5445955564554544
0.23361702127659575 0.4393008964320848 0.5466536394723986
0.23382978723404255 0.4376374535857347 0.5438296714460159
0.23404255319148937 0.43652355071785165 0.5403651278157715
0.23425531914893616 0.4370869497636389 0.537298017343182
0.23446808510638298 0.4362483457058573 0.5359063818563212
0.2346808510638298 0.44087316100397417 0.5336771818460767
0.2348936170212766 0.4338624937573238 0.532816212546098
0.2351063829787234 0.43608832751666965 0.5349291646311676
0.2353191489361702 0.43777269282358183 0.5387615610498798
0.23553191489361702 0.4382022471910112 0.5445159522525774
0.23574468085106381 0.4382022471910112 0.5497793941202429
0.23595744680851063 0.4353230784495995 0.5544006894080244
0.23617021276595745 0.43369731910190235 0.5566627430969039
0.23638297872340425 0.4301770139820824 0.55556166359965
0.23659574468085107 0.43312381123426585 0.5448873739189558
0.23680851063829786 0.43429408891060084 0.5354766779258859
0.23702127659574468 0.43493829631400865 0.5213578952996397
0.2372340425531915 0.43678429613201425 0.5110693260196304
0.2374468085106383 0.438976829385841 0.5007680269838382
0.2376595744680851 0.441133365901319 0.49287843698107037
0.2378723404255319 0.44140871288544675 0.4909623839765511
0.23808510638297872 0.444069877426318 0.4916992082651465
0.23829787234042554 0.44667426535239224 0.49260815080868975
0.23851063829787233 0.4460185637518319 0.4887900783268387
0.23872340425531915 0.4455111442312671 0.48045777192879774
0.23893617021276595 0.4438008672718659 0.46939008364535345
0.23914893617021277 0.4497390913947413 0.4576675329196968
0.23936170212765956 0.4467251330123734 0.443641305535928
0.23957446808510638 0.4470050998083911 0.42252403093437785
0.2397872340425532 0.45188080117244755 0.3965262531839546
0.24 0.4520984743747863 0.37175359706234823
0.2402127659574468 0.45387231801837297 0.3533507751554256
0.2404255319148936 0.4544181821708116 0.34166489389707005
0.24063829787234042 0.4517128742928631 0.33739924459086024
0.24085106382978724 0.4509037616023448 0.3393427226508099
0.24106382978723404 0.4501118247671022 0.34841765853317885
0.24127659574468086 0.44992672203224227 0.3593353167125939
0.24148936170212765 0.4511570747923037 0.37407227403018284
0.24170212765957447 0.455113793136881 0.38106328729194106
0.2419148936170213 0.45188080117244755 0.38518079369046165
0.24212765957446808 0.4534737484133173 0.3877573214450121
0.2423404255319149 0.4578498452421014 0.382866003168917
0.2425531914893617 0.46159774721061514 0.3773891967593801
0.2427659574468085 0.4633809021960473 0.37491904895197425
0.2429787234042553 0.4662150073100211 0.36164601865262985
0.24319148936170212 0.4655663159853859 0.3442463493366115
0.24340425531914894 0.4667773837698308 0.31880168075282406
0.24361702127659574 0.46872756911197 0.2901299378361166
0.24382978723404256 0.46875581827661356 0.25983186134699826
0.24404255319148935 0.4689321198859681 0.23330518004911566
0.24425531914893617 0.46926274806171814 0.22068516651050873
0.244468085106383 0.46919773742489285 0.22261192528213683
0.24468085106382978 0.4702922467134231 0.234952113967223
0.2448936170212766 0.47139001983322454 0.2567868991552613
0.2451063829787234 0.4725576076477778 0.28045506454446084
0.2453191489361702 0.47415745721267616 0.3000468520339389
0.24553191489361703 0.4736900265672403 0.3120961926227874
0.24574468085106382 0.47781138651133764 0.3186663073480856
0.24595744680851064 0.4810715685271702 0.32577564596340436
0.24617021276595744 0.4795487596678029 0.3361018947533383
0.24638297872340426 0.47923790913532005 0.3512188477367225
0.24659574468085105 0.47923790913532005 0.3685171360190188
0.24680851063829787 0.4811202725589838 0.38804163099454814
0.2470212765957447 0.47923790913532005 0.4079495131257393
0.24723404255319148 0.47785026859310065 0.42965227202523754
0.2474468085106383 0.47395506803972054 0.44901795663259364
0.2476595744680851 0.4723351681270075 0.46209544499663413
0.2478723404255319 0.4682106682145806 0.4729857679680776
0.24808510638297873 0.46500968416587557 0.48372665892451866
0.24829787234042552 0.4628327229751188 0.4930755565606871
0.24851063829787234 0.4597219895764627 0.5008322670503546
0.24872340425531914 0.46151672423034457 0.5093559320971702
0.24893617021276596 0.4596657483046917 0.5166802539060412
0.24914893617021278 0.457134204488784 0.5235728952557601
0.24936170212765957 0.4557898872477369 0.5251583050327021
0.2495744680851064 0.4513935213445794 0.5304081866943724
0.24978723404255318 0.44992672203224227 0.5373737276940035
0.25 0.4456453745516281 0.5448312093844379
0.2502127659574468 0.4411305373826375 0.5505646262714905
0.25042553191489364 0.43984774558976014 0.55195027831152
0.25063829787234043 0.4374501599023334 0.5554469956033219
0.2508510638297872 0.4375125624384967 0.5551021532270646
0.251063829787234 0.4353210033219765 0.553079208939975
0.25127659574468086 0.43604523322466726 0.552122552094267
0.25148936170212766 0.43722520762090866 0.5511085110854709
0.25170212765957445 0.4380490278184053 0.5480903371603187
0.2519148936170213 0.43725754536079575 0.5504647845331476
0.2521276595744681 0.44165719804768944 0.5467442809571451
0.2523404255319149 0.4368008107337771 0.5482672743731986
0.2525531914893617 0.434936626761648 0.5508962994718644
0.2527659574468085 0.434750953977582 0.5510819722559304
0.2529787234042553 0.43355323693251024 0.5511344282688734
0.2531914893617021 0.4330291849908981 0.5487821364409021
0.25340425531914895 0.4301650905716481 0.5531466068879891
0.25361702127659574 0.42693376138801115 0.5453944805689378
0.25382978723404254 0.42464629892706324 0.5400595739166568
0.2540425531914894 0.42452369320957506 0.5379711311547646
0.2542553191489362 0.42470132629250484 0.5403472617304699
0.25446808510638297 0.4255007327796776 0.5418548452597937
0.25468085106382976 0.4263319434402741 0.5406455731422771
0.2548936170212766 0.426919799250024 0.541233428952027
0.2551063829787234 0.42778762738484266 0.5388266194991894
0.2553191489361702 0.42610534512741 0.5401867897040507
0.25553191489361704 0.4272856262173106 0.5381140618953335
0.25574468085106383 0.42452369320957506 0.5407230072123281
0.2559574468085106 0.42452369320957506 0.53837750020081
0.2561702127659574 0.42398271078800676 0.5342832569365653
0.25638297872340426 0.4237370146035869 0.5269308986894089
0.25659574468085106 0.42702986229925255 0.5176402616611091
0.25680851063829785 0.429063636892239 0.5090117962731355
0.2570212765957447 0.4323831682616497 0.49841575479389777
0.2572340425531915 0.4359059005669023 0.4923957801918587
0.2574468085106383 0.4382128726126842 0.47429958417644186
0.25765957446808513 0.4401563263312165 0.46346655335498094
0.2578723404255319 0.4399140736688862 0.4545776961412066
0.2580851063829787 0.4395420853990597 0.4498153656885071
0.2582978723404255 0.4396721769996341 0.44700434422887264
0.25851063829787235 0.44159309789842527 0.4454151109675041
0.25872340425531914 0.44164539663479147 0.44432049997836304
0.25893617021276594 0.43944881414485926 0.4423799328551671
0.2591489361702128 0.44110077033408257 0.44307114725790586
0.2593617021276596 0.44211040547142155 0.4417033403726118
0.25957446808510637 0.44321265467776055 0.4375408976672078
0.2597872340425532 0.4480121588410406 0.4322214619233849
0.26 0.45222676614281776 0.42601776352766507
0.2602127659574468 0.4553925130142158 0.4266619190425986
0.2604255319148936 0.4593019488577938 0.4288600076818571
0.26063829787234044 0.45820313923430245 0.42940889106008795
0.26085106382978723 0.4586851298920643 0.42846679976108665
0.261063829787234 0.4597073067066764 0.42256395352858744
0.2612765957446809 0.46789005931168687 0.4166036700243485
0.26148936170212767 0.46384515870867327 0.407931529307955
0.26170212765957446 0.46494385126674914 0.40425983044158725
0.26191489361702125 0.46604200805583146 0.3991675994517357
0.2621276595744681 0.4671402611351473 0.3927970404618534
0.2623404255319149 0.46823924716036874 0.3884010963609678
0.2625531914893617 0.46764161761742756 0.3823030520650928
0.26276595744680853 0.47234355455958116 0.38056792807196255
0.2629787234042553 0.4751145820383824 0.3753489614796546
0.2631914893617021 0.47405631370157403 0.3720599540072681
0.26340425531914896 0.47595937159040574 0.36876722078001045
0.26361702127659575 0.47766963006606616 0.36360252767790313
0.26382978723404255 0.47845268915454653 0.3541648830798841
0.26404255319148934 0.47776326820613546 0.3378032923952409
0.2642553191489362 0.4785072112894202 0.3184607722298394
0.264468085106383 0.47916776913650866 0.2991469982417924
0.26468085106382977 0.47538619797346177 0.2815372332632846
0.2648936170212766 0.4771498086694917 0.2698833984821198
0.2651063829787234 0.47683829794484683 0.2697918845526646
0.2653191489361702 0.4786149228101279 0.28104012923783284
0.265531914893617 0.47641616263709335 0.29793507243662126
0.26574468085106384 0.4764389234113661 0.31491101970610574
0.26595744680851063 0.47659646322432914 0.3316656943119546
0.2661702127659574 0.47712903437671783 0.35221276698274917
0.2663829787234043 0.47440725646976717 0.3714544670425938
0.26659574468085107 0.47105964482677637 0.38859083646191167
0.26680851063829786 0.4679748346557723 0.40838879550898377
0.2670212765957447 0.46534351383189093 0.42697756635367334
0.2672340425531915 0.4630688199937992 0.444831464368876
0.2674468085106383 0.4606187749745794 0.4599186470484338
0.2676595744680851 0.45969711773326827 0.471610843306554
0.26787234042553193 0.4578242333498252 0.48648586239880526
0.2680851063829787 0.4564840879602321 0.4907371072403906
0.2682978723404255 0.45452601758851063 0.4984927982431271
0.26851063829787236 0.45640044277335556 0.5007327796775769
0.26872340425531915 0.4552893983064326 0.5002332185311518
0.26893617021276595 0.45481191988275516 0.5016430872919685
0.26914893617021274 0.45632086454729626 0.49966896948870015
0.2693617021276596 0.45676599902296044 0.49700435221574074
0.2695744680851064 0.45770031613519135 0.5017525417055511
0.26978723404255317 0.45604546487537057 0.5035875265022696
0.27 0.4525391201793279 0.5078907772315172
0.2702127659574468 0.45142289171199607 0.5080911867779463
0.2704255319148936 0.44971399193355494 0.5075720566682951
0.27063829787234045 0.45476967044634725 0.5112095491584248
0.27085106382978724 0.44812882853113256 0.5141846886171736
0.27106382978723403 0.4487786856189504 0.5183408665448223
0.2712765957446808 0.4414505670176101 0.5185035287187983
0.2714893617021277 0.4419109988186421 0.5144113336590133
0.27170212765957447 0.44003607882275153 0.5135545415973755
0.27191489361702126 0.43944428318078316 0.5141463372393438
0.2721276595744681 0.4382022471910112 0.5132923750240004
0.2723404255319149 0.43493466404335357 0.5149079418795512
0.2725531914893617 0.43147372186060995 0.5144482508791189
0.2727659574468085 0.43665010842585816 0.5146030333906967
0.27297872340425533 0.43179797951409715 0.5163654127992183
0.2731914893617021 0.43242073666615105 0.5172617254735655
0.2734042553191489 0.4308146351965043 0.5201539406421538
0.27361702127659576 0.4296690385738653 0.5257677616535387
0.27382978723404255 0.43053100889999874 0.5353643994405923
0.27404255319148935 0.4330320209093534 0.5428674354686562
0.2742553191489362 0.4304193406700729 0.5524156467733666
0.274468085106383 0.4305076503250376 0.5567891942579659
0.2746808510638298 0.4316191272378431 0.5588428398086321
0.27489361702127657 0.4323400097703958 0.5558420193469442
0.2751063829787234 0.43129020474906 0.5519182089311132
0.2753191489361702 0.42906230090966074 0.54262001942963
0.275531914893617 0.4308192123898522 0.5372457489783332
0.27574468085106385 0.42857171388077026 0.5387440813177213
0.27595744680851064 0.4284318514899854 0.5375798401078536
0.27617021276595743 0.42821086488073534 0.5453625201599435
0.2763829787234042 0.4267412447102789 0.5504849478809163
0.2765957446808511 0.4259945338155008 0.5529779904242057
0.27680851063829787 0.42962650896118976 0.5474130611413993
0.27702127659574466 0.4328434308998209 0.5404949874539487
0.2772340425531915 0.43842424802712004 0.5345813240060597
0.2774468085106383 0.43917928676111373 0.528123377053926
0.2776595744680851 0.4430874450415241 0.5236174958029697
0.27787234042553194 0.4430874450415241 0.5174559248701457
0.27808510638297873 0.442738841196026 0.5104344034122112
0.2782978723404255 0.4453859541434678 0.5034018054680393
0.2785106382978723 0.44894968246213973 0.48612816499326844
0.27872340425531916 0.44544435214967687 0.46073421800290276
0.27893617021276595 0.44324429994615394 0.4374311870031971
0.27914893617021275 0.4430874450415241 0.4155803106124918
0.2793617021276596 0.44273761959643865 0.393330863731446
0.2795744680851064 0.44934140620998103 0.36883697731272896
0.2797872340425532 0.4473067472219788 0.3515073726716993
0.27999999999999997 0.4479726428920372 0.3373834208031752
0.2802127659574468 0.4490637538873727 0.3275438312904557
0.2804255319148936 0.4525815151671201 0.31795234864648636
0.2806382978723404 0.4538348803126526 0.31296134350365784
0.28085106382978725 0.454728995177606 0.31037591291787026
0.28106382978723404 0.4586924585109165 0.3093158828942165
0.28127659574468084 0.457743038593063 0.3123097597378433
0.2814893617021277 0.4580067698519489 0.31445983851230924
0.2817021276595745 0.4590998121349456 0.3214439858144132
0.28191489361702127 0.4587033486826902 0.3302979278763391
0.28212765957446806 0.4614412722283232 0.3410554804605544
0.2823404255319149 0.45773421121250585 0.3446496049311186
0.2825531914893617 0.4566403891501052 0.3418521593694207
0.2827659574468085 0.4577325061167689 0.3482408794075144
0.28297872340425534 0.4607787661741349 0.355990754698404
0.28319148936170213 0.4620931717116958 0.3640751373886679
0.2834042553191489 0.4649499420641344 0.3692000641940806
0.2836170212765957 0.46842234666835697 0.3753992059211072
0.28382978723404256 0.472325071064872 0.383580453667665
0.28404255319148936 0.4722860121688544 0.3919303476181144
0.28425531914893615 0.47142159257449934 0.39907868976916316
0.284468085106383 0.4704933685465712 0.4056670481245782
0.2846808510638298 0.47142159257449934 0.40896282125427835
0.2848936170212766 0.47142159257449934 0.41040535900848835
0.2851063829787234 0.47194346566210416 0.4133210914559488
0.2853191489361702 0.47451633165958595 0.4162741774350578
0.285531914893617 0.4763067904250122 0.4186614557889594
0.2857446808510638 0.4756798186817 0.4186614557889594
0.28595744680851065 0.4760771630784977 0.4194088680125474
0.28617021276595744 0.4763067904250122 0.424868465822093
0.28638297872340424 0.47433050269224764 0.4206155349291647
0.2865957446808511 0.4732320543386873 0.4213336218092501
0.2868085106382979 0.47266455991599804 0.42576666055107376
0.28702127659574467 0.47104792873132245 0.4264777723497801
0.28723404255319146 0.467513434294089 0.425965468628196
0.2874468085106383 0.46180183029708055 0.4185198834500007
0.2876595744680851 0.4579618136102797 0.4071706519796907
0.2878723404255319 0.46039092607610604 0.3943913518753512
0.28808510638297874 0.4618134589291084 0.378251265627544
0.28829787234042553 0.46707230442182085 0.36516610254963955
0.2885106382978723 0.46508202013154165 0.36201553024842764
0.28872340425531917 0.4661880945807374 0.3677106805793079
0.28893617021276596 0.46599741698208613 0.3779973379325675
0.28914893617021276 0.4660158910509549 0.3917521222578078
0.28936170212765955 0.46300375928726223 0.40964380621660174
0.2895744680851064 0.46165119687347334 0.43842522656401783
0.2897872340425532 0.4546341553457707 0.468724039337726
0.29 0.4535971763183791 0.4943451402759785
0.2902127659574468 0.4433564332378806 0.5148646291895452
0.2904255319148936 0.4370720707902924 0.5306473391886679
0.2906382978723404 0.42944713390001027 0.5383776699716765
0.2908510638297872 0.42446428683409104 0.547749491793469
0.29106382978723405 0.42319437463929377 0.5546626401725318
0.29127659574468084 0.4213087787528071 0.5579159517645347
0.29148936170212764 0.42321395261492606 0.5566458358564553
0.2917021276595745 0.4294664327326374 0.5554469956033219
0.2919148936170213 0.4362243833293313 0.5552351611925157
0.29212765957446807 0.44565064383575925 0.5537195106379929
0.2923404255319149 0.45194941373411224 0.5551670574543976
0.2925531914893617 0.45573591811506553 0.5578498135252341
0.2927659574468085 0.4619447151779866 0.5593551538837322
0.2929787234042553 0.46458231558378116 0.5572976013379084
0.29319148936170214 0.46853066652032627 0.5572137053607336
0.29340425531914893 0.4621790211191727 0.5564900132041368
0.2936170212765957 0.459461734930166 0.5530221508569123
0.29382978723404257 0.45450480970939877 0.5447593500855396
0.29404255319148936 0.44925827706649335 0.5392484290300148
0.29425531914893616 0.44517147410786617 0.5354739089354178
0.29446808510638295 0.43696377126382 0.5338214068825207
0.2946808510638298 0.43323424785875847 0.5309382048690174
0.2948936170212766 0.431540452676316 0.5268457384043362
0.2951063829787234 0.4285947150409733 0.5224448016211511
0.29531914893617023 0.4293401290204239 0.5240442052807109
0.295531914893617 0.42805895342875855 0.5220412011892205
0.2957446808510638 0.42678154372424393 0.5227694675220502
0.29595744680851066 0.42745481191988266 0.523648434633541
0.29617021276595745 0.42745481191988266 0.5176146753649371
0.29638297872340424 0.42810618912101395 0.5121314872234598
0.29659574468085104 0.4299822942932664 0.5058518469687596
0.2968085106382979 0.4303859306301905 0.49475901944896955
0.2970212765957447 0.43433365241639055 0.48376703543372573
0.29723404255319147 0.4357427355161962 0.4739149297484313
0.2974468085106383 0.437923776804962 0.4648655724076909
0.2976595744680851 0.4376261820055957 0.45746636222587395
0.2978723404255319 0.4397702795087201 0.4512898084248412
0.29808510638297875 0.441133365901319 0.449280337769892
0.29829787234042554 0.440361623722258 0.4466344559249566
0.29851063829787233 0.4410496873846241 0.4460185637518319
0.2987234042553191 0.4400510171766961 0.4444155151266949
0.298936170212766 0.4369099827008939 0.45257398063259363
0.29914893617021276 0.43583185510324024 0.44545783712929515
0.29936170212765956 0.4380337723693996 0.4420430727403992
0.2995744680851064 0.4402285007159981 0.4339332169866923
0.2997872340425532 0.4417773205000351 0.4203935266780619
0.3 0.44670920664667463 0.4088321353157721
0.3002127659574468 0.45064190070530696 0.4007087127167651
0.30042553191489363 0.4511886955354997 0.3904697752225618
0.3006382978723404 0.45778381125163853 0.3928310661691043
0.3008510638297872 0.4534145342324076 0.38488541691561395
0.30106382978723406 0.45600040358000676 0.3819033863355974
0.30127659574468085 0.4582634455003647 0.3811410937067611
0.30148936170212765 0.45743080878507025 0.38766806920754504
0.3017021276595745 0.4575332477199744 0.38802556216494244
0.3019148936170213 0.45863295331381126 0.3891760189871733
0.3021276595744681 0.45492509245575896 0.3912288994440844
0.30234042553191487 0.4580664309637455 0.38935026868588185
0.3025531914893617 0.4594134024017946 0.38821540735998744
0.3027659574468085 0.45953380299989643 0.3854421104054715
0.3029787234042553 0.46278621763680017 0.38385806515539944
0.30319148936170215 0.46653798488067555 0.3772958735701121
0.30340425531914894 0.46906663033346924 0.36925848899651165
0.30361702127659573 0.47216906462525315 0.3678553981436248
0.3038297872340425 0.4761340942511941 0.3667056623997041
0.3040425531914894 0.4730534274038791 0.3631338991079312
0.30425531914893617 0.47545974341986613 0.3639472398632144
0.30446808510638296 0.4733756717147044 0.3655413815336561
0.3046808510638298 0.47388332334750455 0.3688707014092252
0.3048936170212766 0.47559629503367923 0.37229664478157454
0.3051063829787234 0.4770462686500271 0.3729781573392254
0.30531914893617024 0.4764229173395686 0.37446242130523016
0.30553191489361703 0.48020688125304223 0.37567978215682585
0.3057446808510638 0.47851519865924236 0.3774986292976382
0.3059574468085106 0.48120863258919877 0.3768971752454921
0.30617021276595746 0.4822702280499478 0.37984924856771296
0.30638297872340425 0.47874644729576366 0.3849624167839351
0.30659574468085105 0.47703591231167036 0.3907065003629886
0.3068085106382979 0.47410396042030145 0.3983983636439504
0.3070212765957447 0.4716615546958503 0.40952534756070824
0.3072340425531915 0.46361789155430455 0.42157522813090664
0.30744680851063827 0.46422388353994815 0.4334153059018948
0.3076595744680851 0.46117002627969694 0.4435392188702012
0.3078723404255319 0.45969711773326827 0.4526973372994204
0.3080851063829787 0.45969711773326827 0.46062821015381
0.30829787234042555 0.45787021931724237 0.4698221181246107
0.30851063829787234 0.4552965549728871 0.473868076194675
0.30872340425531913 0.45567264061743873 0.4752134320194905
0.308936170212766 0.45676599902296044 0.47438098550538926
0.3091489361702128 0.45656178788926377 0.4790336980016234
0.30936170212765957 0.4530330405370423 0.47655614941635516
0.30957446808510636 0.4526555306415161 0.4842328897701166
0.3097872340425532 0.4495121961807987 0.49315356335078203
0.31 0.4451632091324061 0.5025651738671054
0.3102127659574468 0.44077714467752455 0.5089511295128326
0.31042553191489364 0.4409461552949494 0.5176116360521994
0.31063829787234043 0.43473803872064054 0.5202101496781945
0.3108510638297872 0.4343497695807095 0.52239469223016
0.311063829787234 0.4347310085208955 0.5256988888899494
0.31127659574468086 0.43264260425041773 0.5277872931604275
0.31148936170212765 0.43459298980081645 0.5279634750438922
0.31170212765957445 0.43624816805080613 0.5296156019068149
0.3119148936170213 0.43557522788832104 0.5374463085679895
0.3121276595744681 0.4360673409558818 0.5384027646262484
0.3123404255319149 0.43808307583492956 0.5424475528017842
0.3125531914893617 0.4392470945132186 0.5450385990927175
0.3127659574468085 0.44034753512574915 0.5501583845663045
0.3129787234042553 0.44207136092476296 0.5531412069086433
0.3131914893617021 0.44320323503154024 0.5561924551933924
0.31340425531914895 0.4426627753030144 0.5605875936400012
0.31361702127659574 0.4424142403390943 0.5636326819988996
0.31382978723404253 0.4429066303022584 0.5666290262267559
0.3140425531914894 0.44124777240559593 0.5699309793984454
0.3142553191489362 0.4451038582642562 0.573220710112749
0.31446808510638297 0.4451115722890422 0.5754206316978024
0.31468085106382976 0.441434735574854 0.5724309685180986
0.3148936170212766 0.44211040547142155 0.5693856032720263
0.3151063829787234 0.43993221040048 0.5617259827671991
0.3153191489361702 0.4375376524735354 0.5547426958736237
0.31553191489361704 0.43172527059949206 0.5495643900192477
0.31574468085106383 0.43219672874731396 0.547702319554042
0.3159574468085106 0.431262898719267 0.5406412948302439
0.31617021276595747 0.4290600591957833 0.5373370355450184
0.31638297872340426 0.42834265924944914 0.5316737244227571
0.31659574468085105 0.42996759489672165 0.5208350434922883
0.31680851063829785 0.4272380449013693 0.5109382974024218
0.3170212765957447 0.4261589999441257 0.49606274246702253
0.3172340425531915 0.42570305481910437 0.48089105607776517
0.3174468085106383 0.42639883312201954 0.46299316374540384
0.3176595744680851 0.4252895171044566 0.44317737877569874
0.3178723404255319 0.4209467482981068 0.42040012663452225
0.3180851063829787 0.42285800087419123 0.399503552515915
0.3182978723404255 0.4255925105910187 0.37987240773062564
0.31851063829787235 0.4279029507918114 0.3623241056831494
0.31872340425531914 0.4294018430251749 0.3493127904164145
0.31893617021276593 0.4342426004960467 0.3394185218428266
0.3191489361702128 0.4424129974622695 0.33221076973427
0.3193617021276596 0.4403839551171174 0.3327795288138891
0.31957446808510637 0.4483486596851691 0.3363647903098142
0.3197872340425532 0.45605977320577845 0.3426648002041169
0.32 0.45913264294101297 0.35225901327166065
0.3202127659574468 0.46418626130984997 0.36172039379723836
0.3204255319148936 0.468755417793302 0.37003797965638624
0.32063829787234044 0.47576157143158304 0.37653846629927096
0.32085106382978723 0.474646298691134 0.37938414804730447
0.321063829787234 0.47436726567528287 0.3845669515687004
0.32127659574468087 0.47559620508711176 0.39157080205828904
0.32148936170212766 0.476257326958456 0.3935150527254569
0.32170212765957445 0.4733756717147044 0.3946158949387698
0.32191489361702125 0.4728728253846585 0.39370396711635947
0.3221276595744681 0.47177435481211005 0.38728716873625463
0.3223404255319149 0.47142159257449934 0.37699069992766776
0.3225531914893617 0.4757828201959128 0.3703334475129295
0.3227659574468085 0.47429576122604367 0.3648863127274748
0.3229787234042553 0.47156485128962394 0.3623971654326134
0.3231914893617021 0.47239863214460187 0.35986434493756403
0.32340425531914896 0.47318157991512116 0.364733477919827
0.32361702127659575 0.4748665044498282 0.3724289898688756
0.32382978723404254 0.4753297508549097 0.37946245452583593
0.32404255319148934 0.47834073124477255 0.39056689329464966
0.3242553191489362 0.47748627874929417 0.3993891333173822
0.324468085106383 0.4792166451357147 0.4051955418035765
0.32468085106382977 0.4785467637114266 0.41475329750854906
0.3248936170212766 0.4807176012348508 0.41550727630269146
0.3251063829787234 0.48183628234124143 0.4180171617232431
0.3253191489361702 0.4807388560950767 0.4191145879694078
0.325531914893617 0.480789488280421 0.41791487663406673
0.32574468085106384 0.48049433125732033 0.41740503366695914
0.32595744680851063 0.4785739843724729 0.4176844162188569
0.3261702127659574 0.47637127642400345 0.42051880593067786
0.32638297872340427 0.47682633110895656 0.4318204690864513
0.32659574468085106 0.47134548640527096 0.4368800554944046
0.32680851063829786 0.4661856720509033 0.4421667518082816
0.3270212765957447 0.4631498799237234 0.45070501943176805
0.3272340425531915 0.46031391975151253 0.4538348803126526
0.3274468085106383 0.4580207388958576 0.4517368625107287
0.3276595744680851 0.4561055411997138 0.4451725207256225
0.3278723404255319 0.45297352685439485 0.43092579915213275
0.3280851063829787 0.45660419326080603 0.4237146643988031
0.3282978723404255 0.4552158765859328 0.41394538410219384
0.32851063829787236 0.4570891967235 0.41019874382705956
0.32872340425531915 0.457743038593063 0.4080054572773776
0.32893617021276594 0.457743038593063 0.40531899587260045
0.32914893617021274 0.4583841104474485 0.40913443707250463
0.3293617021276596 0.4579582406146511 0.4217260669289287
0.3295744680851064 0.4586271783355825 0.45104788548516067
0.32978723404255317 0.4517610750912829 0.477174804513456
0.33 0.44782971392899623 0.5079283041079286
0.3302127659574468 0.4464647399132822 0.5310943236352388
0.3304255319148936 0.4450415241817294 0.5483521213474536
0.33063829787234045 0.4445337552665079 0.5639635723810664
0.33085106382978724 0.44218310285896595 0.5760239493445146
0.33106382978723403 0.4418800526610651 0.5791262980961405
0.3312765957446808 0.4447184695269959 0.5710717531190612
0.33148936170212767 0.4420947225684868 0.5553372152827787
0.33170212765957446 0.44099776206113894 0.5454888302884624
0.33191489361702126 0.4388809555595462 0.5238401411112379
0.3321276595744681 0.4341461522776798 0.5165924682339718
0.3323404255319149 0.4313513697294121 0.5178599733315747
0.3325531914893617 0.42854664838737677 0.5270176059699455
0.3327659574468085 0.42966068960513115 0.5376386394065025
0.33297872340425533 0.42358860438556295 0.5449123571651512
0.3331914893617021 0.4216022423203661 0.5485787151493072
0.3334042553191489 0.41854885529525293 0.5404172356974081
0.33361702127659576 0.416508115097541 0.5262798031924437
0.33382978723404255 0.41387356135642933 0.5097558473773097
0.33404255319148934 0.41525250123215046 0.49740929662916894
0.3342553191489362 0.41655353155310354 0.48571552693853837
0.334468085106383 0.41623680762026233 0.47612535818044444
0.3346808510638298 0.4174216349688138 0.47012446655940177
0.33489361702127657 0.41961897544306187 0.4665656745979863
0.3351063829787234 0.41888754907373943 0.4587927445941483
0.3353191489361702 0.42014907572261856 0.4521140307757206
0.335531914893617 0.4193730193168529 0.4546367495622837
0.33574468085106385 0.4225238292578805 0.4596513329217788
0.33595744680851064 0.4227257833120945 0.4658463199675946
0.33617021276595743 0.4237632212864086 0.47210821850942697
0.3363829787234042 0.4287689423861268 0.4750737713853252
0.33659574468085107 0.430385378622691 0.47630623841751274
0.33680851063829786 0.4308201698590748 0.4756554302765729
0.33702127659574466 0.4360925618257195 0.47623758753570883
0.3372340425531915 0.44211040547142155 0.46946751343429405
0.3374468085106383 0.4444855903022673 0.46804240253578655
0.3376595744680851 0.44879193912972093 0.4659376161213908
0.33787234042553194 0.45137214708026824 0.4648366426298708
0.33808510638297873 0.4501909820912016 0.46542722512440404
0.3382978723404255 0.458593683417359 0.468448342282256
0.3385106382978723 0.45296025628548836 0.4693650978913558
0.33872340425531916 0.454227700451154 0.4682940637949409
0.33893617021276595 0.45419533653133315 0.4678321588783939
0.33914893617021274 0.453105103514045 0.4680502054818515
0.3393617021276596 0.45635233492503197 0.4646965569332185
0.3395744680851064 0.45608036674363117 0.45577191365028286
0.3397872340425532 0.45902330606799946 0.44638914751226705
0.34 0.4615549543379717 0.442254769274674
0.3402127659574468 0.4653351610203752 0.4300122737410097
0.3404255319148936 0.4630181707566423 0.424135962683945
0.3406382978723404 0.46426737453790207 0.4161419274219264
0.34085106382978725 0.4644683605110264 0.40739280123874744
0.34106382978723404 0.46336798469649393 0.4019331374386232
0.34127659574468083 0.46031031633944697 0.39772254219204667
0.3414893617021277 0.4581081070624451 0.39142251366413067
0.3417021276595745 0.456823981120014 0.3903273082559844
0.34191489361702126 0.45265995870657955 0.38569358251034874
0.34212765957446806 0.4501157129350702 0.37415978748182216
0.3423404255319149 0.4505930872908916 0.36350595778327954
0.3425531914893617 0.4507733514228789 0.350367011904324
0.3427659574468085 0.4513727804347917 0.34081130139236315
0.34297872340425534 0.4526880540068527 0.33361631122616225
0.34319148936170213 0.45805717733672 0.3310012178791512
0.3434042553191489 0.45969711773326827 0.3323709462991988
0.34361702127659577 0.46628524429511475 0.3392701001817783
0.34382978723404256 0.4689888221645183 0.34906212919206325
0.34404255319148935 0.4741473700599099 0.3573133040973933
0.34425531914893615 0.476637662771249 0.3597159979708713
0.344468085106383 0.48045552263497626 0.3652123209437403
0.3446808510638298 0.4767141122064149 0.3689948337210246
0.3448936170212766 0.4744045573241293 0.37234578808500723
0.3451063829787234 0.4733756717147044 0.37732440090399777
0.3453191489361702 0.4758933360502485 0.38279894064066006
0.345531914893617 0.47534882350473917 0.38923583278690516
0.3457446808510638 0.478060722557766 0.3964897661877768
0.34595744680851065 0.47608405612192467 0.40246167893322105
0.34617021276595744 0.4756757554742775 0.41689029951275663
0.34638297872340423 0.4758365058661818 0.4263318905400131
0.3465957446808511 0.4759238811127967 0.4339507121775129
0.3468085106382979 0.4755916197958574 0.4391088505674256
0.34702127659574467 0.47449429858069836 0.4460044922506949
0.3472340425531915 0.4772253681078515 0.45178336469367547
0.3474468085106383 0.47306505536091903 0.4520878787416378
0.3476595744680851 0.47066864692247884 0.4533866924764883
0.3478723404255319 0.4703863326816723 0.45153571454150515
0.34808510638297874 0.468957099258688 0.44950388541885533
0.34829787234042553 0.4700559033041749 0.4462074732823944
0.3485106382978723 0.4683102000673056 0.4450415241817294
0.34872340425531917 0.467513434294089 0.4475477453381947
0.34893617021276596 0.4665985603058169 0.44888751688030903
0.34914893617021275 0.46355717976063315 0.4500710107913787
0.34936170212765955 0.4617805374524884 0.45370553973363753
0.3495744680851064 0.4562857674185732 0.46036612670714455
0.3497872340425532 0.45244767231768657 0.46776689999857696
0.35 0.4492108477395775 0.47427342961346
0.3502127659574468 0.44633829262794217 0.4828620444231636
0.3504255319148936 0.4452419202827319 0.4913132943087357
0.3506382978723404 0.4450415241817294 0.5009758244648381
0.35085106382978726 0.4419920669316556 0.5038611292874946
0.35106382978723405 0.43917928676111373 0.5096578600903194
0.35127659574468084 0.4389010265478732 0.5151101130158753
0.35148936170212763 0.43860158450012854 0.5176060321319523
0.3517021276595745 0.4376136747228042 0.523271391578707
0.3519148936170213 0.43689133605597 0.5286839053961866
0.35212765957446807 0.43722520762090866 0.5356164403086431
0.3523404255319149 0.4345532594952983 0.5440084387730001
0.3525531914893617 0.433289809150067 0.550643518324103
0.3527659574468085 0.4320440676234901 0.5540848007569281
0.3529787234042553 0.4303859306301905 0.5591615844369927
0.35319148936170214 0.4290445682090509 0.5652463735500999
0.35340425531914893 0.4255621832221379 0.5690026486998375
0.3536170212765957 0.42452369320957506 0.5705025492710031
0.35382978723404257 0.4231431216562907 0.5680317318249343
0.35404255319148936 0.4233764098388872 0.5663646746750355
0.35425531914893615 0.41888931051921185 0.5661944308744504
0.354468085106383 0.42046120782236446 0.5647544099839472
0.3546808510638298 0.41885681763228233 0.559941239413701
0.3548936170212766 0.4193231107155747 0.5591324261591677
0.3551063829787234 0.42040545119325046 0.5503358826376503
0.3553191489361702 0.42312813572584135 0.5459551140730864
0.355531914893617 0.42422670402014384 0.5412993084288362
0.3557446808510638 0.4253268581387727 0.5390111975524828
0.35595744680851066 0.4227159476188358 0.5369807994710166
0.35617021276595745 0.4283611826578836 0.5312206887677398
0.35638297872340424 0.4276482916512676 0.5191223336044971
0.35659574468085103 0.4293784270792117 0.5079789738073326
0.3568085106382979 0.4318007033883276 0.4991849933135062
0.3570212765957447 0.4334510156199636 0.48487148961085047
0.35723404255319147 0.4363110806278213 0.47593916885030124
0.3574468085106383 0.4348470165340761 0.460267873971637
0.3576595744680851 0.4370480327937416 0.44666820478477776
0.3578723404255319 0.43801671534779146 0.44253084951186494
0.35808510638297875 0.4356411346046263 0.43299906747687084
0.35829787234042554 0.4363094020208747 0.42714954338653804
0.35851063829787233 0.4347206464520877 0.4260512148082933
0.3587234042553191 0.436367945235691 0.42495232440218383
0.35893617021276597 0.4385656771593077 0.4305558061323712
0.35914893617021276 0.4383867318934687 0.43093938473756305
0.35936170212765955 0.4436925487751958 0.4276407798380982
0.3595744680851064 0.4492461933726151 0.41910477572020627
0.3597872340425532 0.4550991095369377 0.40921970165405785
0.36 0.46220008232216553 0.3989999330596259
0.3602127659574468 0.46727164580820163 0.3909971694054511
0.3604255319148936 0.47222037427149893 0.38659740784867686
0.3606382978723404 0.4750271109043451 0.37839547425952674
0.3608510638297872 0.4777221280894416 0.3764691737826228
0.36106382978723406 0.47917723977805965 0.37389964363602163
0.36127659574468085 0.4802149487054226 0.37573395649864527
0.36148936170212764 0.48040021246577885 0.37794560059704185
0.3617021276595745 0.4824282558793195 0.3828698974633691
0.3619148936170213 0.48163152998314634 0.382834683339857
0.3621276595744681 0.47617114913681746 0.3800143474021793
0.36234042553191487 0.4753297508549097 0.3739198802453643
0.3625531914893617 0.4729086542296706 0.3703194993688988
0.3627659574468085 0.4686682910057047 0.3726072331380028
0.3629787234042553 0.46857267323430796 0.3623948047022966
0.36319148936170215 0.46946751343429405 0.3548983368468365
0.36340425531914894 0.468812879238631 0.3489594174904522
0.36361702127659573 0.47064651971338023 0.3454653603387132
0.3638297872340425 0.47320541059389226 0.34383279811570533
0.36404255319148937 0.47030262950972956 0.3448267439809749
0.36425531914893616 0.46946751343429405 0.3429177999943168
0.36446808510638296 0.47231363682094324 0.3396062459343084
0.3646808510638298 0.469562380431199 0.3410674921621822
0.3648936170212766 0.46962846635076666 0.34819672257203527
0.3651063829787234 0.4659689166053602 0.35714005714748237
0.36531914893617023 0.46458231558378116 0.3672497236696239
0.365531914893617 0.4651090579830072 0.3789086143281519
0.3657446808510638 0.47078163514777444 0.38708048668981815
0.3659574468085106 0.47181635865475546 0.3994858035755503
0.36617021276595746 0.47142159257449934 0.4110739504445288
0.36638297872340425 0.47157361466819026 0.4211222752414678
0.36659574468085104 0.47452454511687026 0.4317606012866969
0.3668085106382979 0.4756236104343537 0.44114084298545136
0.3670212765957447 0.4750537795255555 0.4525670161900451
0.3672340425531915 0.4733756717147044 0.46357269825808833
0.36744680851063827 0.47271181510928706 0.4734881437428456
0.3676595744680851 0.47239863214460187 0.48103160071976053
0.3678723404255319 0.471490017050372 0.48671210331677744
0.3680851063829787 0.47125921791422287 0.488954179949587
0.36829787234042555 0.4683116366075078 0.4876735907528758
0.36851063829787234 0.467513434294089 0.4851793189187462
0.36872340425531913 0.4666920629267616 0.481092638997412
0.368936170212766 0.4635657669212859 0.47676567839076905
0.36914893617021277 0.4622369606907444 0.4735724594030964
0.36936170212765956 0.4605163940925962 0.4745104744955817
0.36957446808510636 0.4547609881314001 0.4769751273888656
0.3697872340425532 0.4510089015409353 0.4867037592341723
0.37 0.4483294157189845 0.49327323594370354
0.3702127659574468 0.4423222365940234 0.48641873232833516
0.37042553191489364 0.4417593890352993 0.4834590789827205
0.3706382978723404 0.44145839102349393 0.47806664017334344
0.3708510638297872 0.4411710272823001 0.4727969802488391
0.371063829787234 0.43917928676111373 0.47380334137656027
0.37127659574468086 0.4383530076674864 0.4760052694720618
0.37148936170212765 0.43630905116320823 0.4857727705640276
0.37170212765957444 0.4366189026635632 0.48728207361749837
0.3719148936170213 0.4382355328473289 0.5015531800140983
0.3721276595744681 0.431362970200293 0.5158128085400249
0.3723404255319149 0.42999586781521876 0.5305615404903861
0.3725531914893617 0.42785261689365006 0.5436526293048279
0.3727659574468085 0.42956434434290497 0.5511465664142049
0.3729787234042553 0.427915592626645 0.557456552900105
0.3731914893617021 0.42178402744311355 0.5631037680442706
0.37340425531914895 0.42266320662882806 0.5652173913043479
0.37361702127659574 0.4235466536394723 0.5645616529997202
0.37382978723404253 0.4221667738060493 0.5615963326773286
0.3740425531914894 0.4229357020678917 0.5570349867450052
0.37425531914893617 0.4223231422619079 0.5481512492072811
0.37446808510638296 0.42178016427486786 0.5404162225005817
0.37468085106382976 0.42256961406936977 0.5313296722200689
0.3748936170212766 0.4206563500127558 0.5262174386674265
0.3751063829787234 0.4197404043317404 0.5209448837316959
0.3753191489361702 0.4203952776648869 0.5172182056180348
0.37553191489361704 0.41929686159108354 0.5110428577130615
0.37574468085106383 0.4191272206503593 0.5079923116823922
0.3759574468085106 0.4202247860406543 0.506008391718947
0.37617021276595747 0.4213208967620196 0.4959049182264801
0.37638297872340426 0.4240686707975056 0.48796427052027963
0.37659574468085105 0.4273697594882274 0.48515684817703897
0.37680851063829784 0.42959234145417197 0.4813754386696092
0.3770212765957447 0.4319958314592534 0.48377892867469074
0.3772340425531915 0.43563232690285675 0.486746305122166
0.3774468085106383 0.43774602956236774 0.4866626123803128
0.3776595744680851 0.4360651152599566 0.4897405159997434
0.3778723404255319 0.43738492203271817 0.4900980717140698
0.3780851063829787 0.44233944992302043 0.4914906264755514
0.37829787234042556 0.43835691800706933 0.4815322640708531
0.37851063829787235 0.43927044108776564 0.47673690403520325
0.37872340425531914 0.4403702788628513 0.47056578244796005
0.37893617021276593 0.44450358412648944 0.46515428153646965
0.3791489361702128 0.44675337135356796 0.4546791491662487
0.3793617021276596 0.4444369584741021 0.44099298388399566
0.37957446808510636 0.44742502495481484 0.4207770948179946
0.3797872340425532 0.45127664082157287 0.39905930734325445
0.38 0.4537860221072625 0.38380560960030224
0.3802127659574468 0.45471261929173423 0.36118278965473505
0.3804255319148936 0.4542742506448912 0.34208821053947636
0.38063829787234044 0.4554462358542547 0.32627248769788514
0.38085106382978723 0.4557070124415034 0.3144460098333998
0.381063829787234 0.4584057156371607 0.31075663571230544
0.38127659574468087 0.45836807883153385 0.31982585593894775
0.38148936170212766 0.4593168055260867 0.32860991828807923
0.38170212765957445 0.45969711773326827 0.3397936920676055
0.3819148936170213 0.4634822684714801 0.35265329141967816
0.3821276595744681 0.46201074038925627 0.3599609008021588
0.3823404255319149 0.4636052760136786 0.36454845065481534
0.3825531914893617 0.46485661017484736 0.36715265316458845
0.3827659574468085 0.46599899582361437 0.36829503881335546
0.3829787234042553 0.4662175896363348 0.3711465705558805
0.3831914893617021 0.4719954485543418 0.3657218124979663
0.38340425531914896 0.4724779851207187 0.3666402996451717
0.38361702127659575 0.4755518347124856 0.37203005705312625
0.38382978723404254 0.4802149487054226 0.3791138251845487
0.38404255319148933 0.4813669389303844 0.3892991255379785
0.3842553191489362 0.48617214106432416 0.4015170342806772
0.384468085106383 0.486342051619199 0.4136903158787979
0.38468085106382977 0.4847781708131513 0.4222698630100857
0.3848936170212766 0.4882139794733683 0.4323082755031571
0.3851063829787234 0.4864471250454891 0.4436850814770755
0.3853191489361702 0.48316807541159107 0.45182944918210594
0.38553191489361704 0.4818243234093858 0.45458211692526057
0.38574468085106384 0.4785244504093046 0.45309566031788856
0.38595744680851063 0.47702794014652733 0.4549166048949253
0.3861702127659574 0.47583885378712604 0.45725040217857865
0.38638297872340427 0.47580879745983645 0.458351320029346
0.38659574468085106 0.47291864113346976 0.4579925466862247
0.38680851063829785 0.46718093628279334 0.4551986448180394
0.3870212765957447 0.46556617646427484 0.4480203920647754
0.3872340425531915 0.4633732210263795 0.43357953569686636
0.3874468085106383 0.46141567896231356 0.41024348927104937
0.3876595744680851 0.4589029259290105 0.39132724633972227
0.3878723404255319 0.45864194140529024 0.372395326931858
0.3880851063829787 0.4556717743250917 0.36030099377030234
0.3882978723404255 0.4526010212309826 0.35541070324385865
0.38851063829787236 0.4503359049841655 0.355994528985086
0.38872340425531915 0.4471210843962497 0.3598717734837171
0.38893617021276594 0.4497896326026744 0.3727917271457941
0.3891489361702128 0.44768541201036993 0.39072761320058275
0.3893617021276596 0.4454867156292409 0.4197191979980844
0.3895744680851064 0.44445399914356615 0.43934476486479523
0.38978723404255317 0.44350470589686236 0.4661769325447307
0.39 0.44211040547142155 0.48651190008246553
0.3902127659574468 0.44286593146925163 0.5022952739440031
0.3904255319148936 0.4430874450415241 0.5169695568329474
0.39063829787234045 0.44207340995883654 0.5272053368518095
0.39085106382978724 0.44001351522568843 0.53342615697614
0.39106382978723403 0.43944340068859306 0.5407119859119686
0.3912765957446808 0.4397715009263812 0.5386299341511459
0.39148936170212767 0.43716797287083575 0.5383058770639719
0.39170212765957446 0.4365116515448079 0.5375035053034249
0.39191489361702125 0.4387037379603932 0.5393388136809599
0.3921276595744681 0.4400415207258826 0.5389521285169118
0.3923404255319149 0.4382246902263539 0.5407988830635639
0.3925531914893617 0.44087558503912383 0.5415106607596906
0.39276595744680853 0.4411589843217722 0.5398143624816805
0.3929787234042553 0.4444365581347852 0.5405455182494374
0.3931914893617021 0.4396714540508444 0.5412835693415137
0.3934042553191489 0.44039325858418976 0.542005373874859
0.39361702127659576 0.43895043161796554 0.5412901916697526
0.39382978723404255 0.4399022288716488 0.5390914203711455
0.39404255319148934 0.43918534819032434 0.5368953666297939
0.3942553191489362 0.436536949481319 0.5390667422914411
0.394468085106383 0.4325506122111254 0.5415039872582824
0.3946808510638298 0.43301539823691265 0.5426449308241263
0.39489361702127657 0.42745481191988266 0.5412703601935035
0.3951063829787234 0.4268553626868473 0.5429673400879564
0.3953191489361702 0.4250388671172637 0.5473197838433822
0.395531914893617 0.41950515432411506 0.5527898343504871
0.39574468085106385 0.4157877658028009 0.5582823997733808
0.39595744680851064 0.41074347261241867 0.5604338600695549
0.39617021276595743 0.41075330199404203 0.5590962271839228
0.3963829787234043 0.4134338239944827 0.5501691015470561
0.39659574468085107 0.412799218368344 0.5439153503263362
0.39680851063829786 0.4151485625983967 0.5327663297915222
0.39702127659574465 0.4202460633917439 0.5188893021086765
0.3972340425531915 0.42656227279362025 0.5104186749347626
0.3974468085106383 0.4312551754740647 0.501925408700136
0.3976595744680851 0.4349792648278058 0.4922312871995512
0.39787234042553193 0.44135689900548886 0.4840653881885093
0.3980851063829787 0.4438290327812003 0.4765963790712033
0.3982978723404255 0.4456046494961519 0.470693238102301
0.3985106382978723 0.44465018688148317 0.46087373699503276
0.39872340425531916 0.4492939760394706 0.4534905867353218
0.39893617021276595 0.44506569894693426 0.443540711664718
0.39914893617021274 0.44501849073660926 0.4373403748465091
0.3993617021276596 0.4435849174523735 0.42518434408157174
0.3995744680851064 0.4479726428920372 0.41112048373307314
0.3997872340425532 0.4493462494457108 0.39896116835144996
0.4 0.4537508498056924 0.3927909148079809
0.4002127659574468 0.4575562996268711 0.38933582043950066
0.4004255319148936 0.46155418003983917 0.38810471501484495
0.4006382978723404 0.46511465146470904 0.38754442410873474
0.40085106382978725 0.4655593551538837 0.38359887993364367
0.40106382978723404 0.47211968154576744 0.3752997805726662
0.40127659574468083 0.46700849317152526 0.36596700435346874
0.4014893617021277 0.4708473147752164 0.35364728088873343
0.40170212765957447 0.4723578806211628 0.3417520413132667
0.40191489361702126 0.4710289434099638 0.3300156765801382
0.40212765957446805 0.47047449064714086 0.31655764821285753
0.4023404255319149 0.4709909482026288 0.3035699292360012
0.4025531914893617 0.46788238854376196 0.2943382993151739
0.4027659574468085 0.46943462718146955 0.28956068752411956
0.40297872340425533 0.4680253605869273 0.28547399873683116
0.4031914893617021 0.4658355338316093 0.2868679605697842
0.4034042553191489 0.4677225457882991 0.2977404998907648
0.40361702127659577 0.46946751343429405 0.3091641884995044
0.40382978723404256 0.4688208417939803 0.3228553210418505
0.40404255319148935 0.47158054246970726 0.3391800106213792
0.40425531914893614 0.47508847976718427 0.353211759811287
0.404468085106383 0.4721504744262106 0.366149476721811
0.4046808510638298 0.4673557729485793 0.3735661885181398
0.4048936170212766 0.4703286446971924 0.3841504135111241
0.4051063829787234 0.4707938638079525 0.3909246742932285
0.4053191489361702 0.4743510686689068 0.40010181049676086
0.405531914893617 0.4705614142000702 0.40865733769658646
0.4057446808510638 0.46946751343429405 0.41674354618267107
0.40595744680851065 0.47032679859948934 0.42725430744091303
0.40617021276595744 0.4684846110188464 0.43434099167336143
0.40638297872340423 0.46763851864628975 0.4437365020500317
0.4065957446808511 0.46775983140456256 0.4574909422347279
0.40680851063829787 0.46592262178147575 0.47173488782294953
0.40702127659574466 0.4660518299771177 0.4855609810737077
0.4072340425531915 0.4649536121318545 0.4980944501667841
0.4074468085106383 0.46385449026884457 0.5102143262223146
0.4076595744680851 0.4644552097740233 0.5209565921222554
0.4078723404255319 0.4655527454502361 0.5280502294185639
0.40808510638297874 0.46435096152382876 0.5403286939318782
0.4082978723404255 0.4621521101870253 0.537121306899648
0.4085106382978723 0.4596007415843291 0.5375024781017947
0.40872340425531917 0.45726580277878454 0.5349743005142588
0.40893617021276596 0.45439822081589915 0.5347509191462583
0.40914893617021275 0.4570864803867417 0.5337918843791742
0.40936170212765954 0.4562431330000819 0.5255442500017111
0.4095744680851064 0.45198219226305536 0.5203749621702365
0.4097872340425532 0.44649584382205093 0.5097810326491016
0.41 0.44278243128939704 0.4894943357131576
0.4102127659574468 0.44469368977098356 0.4644649043595827
0.4104255319148936 0.4421742518394174 0.4457375446627667
0.4106382978723404 0.44254602926193715 0.43081532650359144
0.41085106382978726 0.44406448461162684 0.4247757554271149
0.41106382978723405 0.44151337189793527 0.42877554773239424
0.41127659574468084 0.43821332332902446 0.43816901877697134
0.41148936170212763 0.43917928676111373 0.4495266540164256
0.4117021276595745 0.4386940898609467 0.4599463619531203
0.41191489361702127 0.43758692245986835 0.4584664682709824
0.41212765957446806 0.4386916457569407 0.46067591486512727
0.4123404255319149 0.4385642651098669 0.46226621852472016
0.4125531914893617 0.4352547083448203 0.46262823644357587
0.4127659574468085 0.4334355217708287 0.46777963928220906
0.4129787234042553 0.4333170493404983 0.4753236099626639
0.41319148936170214 0.4304969163539465 0.48145216848591765
0.41340425531914893 0.42502007133219233 0.4927154240808435
0.4136170212765957 0.4261072318534227 0.5011033201739343
0.41382978723404257 0.42451578874056484 0.49924745914989777
0.41404255319148936 0.4229335864286101 0.5005030246623399
0.41425531914893615 0.4218343890222141 0.5078334341478723
0.414468085106383 0.42159257449926724 0.5121036488150893
0.4146808510638298 0.4235412983559847 0.5222383607868092
0.4148936170212766 0.4228200765676821 0.5251835793532884
0.4151063829787234 0.4242748714253725 0.5332421548418722
0.4153191489361702 0.42242367797307756 0.5402521707705571
0.415531914893617 0.42111232004488225 0.5506444510594719
0.4157446808510638 0.41973238054252004 0.557927254212318
0.41595744680851066 0.4179192462921416 0.5608395728773681
0.41617021276595745 0.4194178224640789 0.5682428580048259
0.41638297872340424 0.4207350088965797 0.5632500372788742
0.4165957446808511 0.42927839033832765 0.5624167733158003
0.4168085106382979 0.4300990967586159 0.5604051774179188
0.41702127659574467 0.4371520082503968 0.5487175176683714
0.41723404255319146 0.44373647634461827 0.5384069637864894
0.4174468085106383 0.4481095018094662 0.5296333900283674
0.4176595744680851 0.45030573605271124 0.5230446872986321
0.4178723404255319 0.4549015175563662 0.514054649932493
0.41808510638297874 0.45855409743071646 0.5096921165409491
0.41829787234042554 0.45864901831548177 0.4971621223381155
0.41851063829787233 0.4581363596272565 0.4878283417337653
0.4187234042553191 0.4593753338373708 0.48089358014444833
0.41893617021276597 0.45827164693792216 0.47271934062306536
0.41914893617021276 0.457743038593063 0.4621679371821389
0.41936170212765955 0.4584431087335423 0.44864212676683113
0.4195744680851064 0.4587200781631655 0.4343386216476997
0.4197872340425532 0.4615752542215963 0.4123537773613805
0.42 0.46262823644357587 0.39382867733129995
0.42021276595744683 0.4628530256817591 0.3799604274577787
0.4204255319148936 0.4636052760136786 0.37084676680000067
0.4206382978723404 0.46549960798021556 0.35636991199706675
0.4208510638297872 0.4645201431010835 0.34053204963975914
0.42106382978723406 0.46193798677580766 0.32940084532032543
0.42127659574468085 0.4640587130526559 0.32280720923401185
0.42148936170212764 0.4618060590684014 0.31823286299496345
0.4217021276595745 0.46179781767953304 0.3131411822178798
0.4219148936170213 0.46420185416276644 0.31095372900455764
0.4221276595744681 0.4658904285870341 0.3020707638782752
0.42234042553191486 0.46458231558378116 0.2969603384453422
0.4225531914893617 0.4651541019040057 0.2905027390351737
0.4227659574468085 0.46695121049509125 0.29247594321783255
0.4229787234042553 0.46505210869053654 0.2993434838907837
0.42319148936170214 0.467412590340123 0.30893049207557144
0.42340425531914894 0.4702685553495768 0.323527569710775
0.42361702127659573 0.4687037847166135 0.3323105851386878
0.4238297872340426 0.47014542173102525 0.34554277953124163
0.42404255319148937 0.47095708970700373 0.35738033039954575
0.42425531914893616 0.46867555910964576 0.3661208131440948
0.42446808510638295 0.467513434294089 0.37454586360735814
0.4246808510638298 0.4666758326210414 0.3850247710050227
0.4248936170212766 0.4674967899525894 0.3941023118043982
0.4251063829787234 0.4682856070997973 0.4047228959128004
0.42531914893617023 0.4672220512111456 0.4117593478776845
0.425531914893617 0.46876449268773623 0.4168623597482226
0.4257446808510638 0.4651263708089629 0.42300259841429066
0.4259574468085106 0.46443339237975456 0.4273058887158563
0.42617021276595746 0.4641046716361404 0.4284318514899854
0.42638297872340425 0.46445800763606093 0.43184277797951487
0.42659574468085104 0.46165028992211343 0.43234545147855524
0.4268085106382979 0.4601830010117646 0.43979850513873125
0.4270212765957447 0.4562685957869864 0.4538881810181889
0.4272340425531915 0.4544371619668424 0.46637581560270347
0.4274468085106383 0.45333254162154507 0.4774220190556774
0.4276595744680851 0.45348853150843094 0.48658386320679387
0.4278723404255319 0.4553459216211511 0.4935414287618412
0.4280851063829787 0.45490695499923645 0.496634551164204
0.42829787234042555 0.4548752324342686 0.4957842692755506
0.42851063829787234 0.45676599902296044 0.49357770310153387
0.42872340425531913 0.4573390655718474 0.49107982372332315
0.428936170212766 0.4587200781631655 0.48821021800748926
0.42914893617021277 0.4587200781631655 0.48655049765391933
0.42936170212765956 0.4568301248240984 0.49111706169688385
0.42957446808510635 0.4595745890310854 0.5007076359276684
0.4297872340425532 0.4553878114138369 0.5035679164660378
0.43 0.4527716427716697 0.50949740315154
0.4302127659574468 0.4503822617107507 0.509004635916906
0.43042553191489363 0.4523051058518817 0.5120329498393738
0.4306382978723404 0.4513038985996117 0.5114336091025765
0.4308510638297872 0.45188080117244755 0.5054104032687622
0.43106382978723407 0.44864754198345813 0.4981602959531971
0.43127659574468086 0.4485414510679691 0.4834807998587874
0.43148936170212765 0.44714832256270526 0.467605429409382
0.43170212765957444 0.44606831740907776 0.4525095651418293
0.4319148936170213 0.44717082312125545 0.44671944294911586
0.4321276595744681 0.4476717494963008 0.45413922957255104
0.4323404255319149 0.44400546042037065 0.46531392910028657
0.4325531914893617 0.44126104806818306 0.4757988473213387
0.4327659574468085 0.44211040547142155 0.4923313429143688
0.4329787234042553 0.43971469442598476 0.5104003173213081
0.4331914893617021 0.44010006759428144 0.5244836640869215
0.43340425531914895 0.4399334850100814 0.5372175057530753
0.43361702127659574 0.43624816805080613 0.5453568285460885
0.43382978723404253 0.43624816805080613 0.5571042322918435
0.4340425531914894 0.43708699782977 0.5576822798418704
0.43425531914893617 0.43548889667638396 0.5604404940895832
0.43446808510638296 0.4333170493404983 0.5613092330239375
0.4346808510638298 0.43093616711353244 0.5565474685700058
0.4348936170212766 0.42947191262953194 0.5545329776026634
0.4351063829787234 0.4284876727423736 0.5444204540702523
0.4353191489361702 0.42976995830915404 0.5394532952326143
0.43553191489361703 0.42983763756962745 0.536945083763076
0.4357446808510638 0.4269067762232849 0.5314971336431294
0.4359574468085106 0.4269001137465507 0.5254487535503508
0.43617021276595747 0.43056615933599385 0.5187305467117542
0.43638297872340426 0.42992457881483975 0.5115345508881065
0.43659574468085105 0.4303367291546564 0.5058639849057601
0.43680851063829784 0.43436899288034414 0.49615048566947706
0.4370212765957447 0.43663888240208 0.4856865442581691
0.4372340425531915 0.4427478179864328 0.47375714036496736
0.4374468085106383 0.4462845188735039 0.46715845330706524
0.4376595744680851 0.44894968246213973 0.4649914229332451
0.4378723404255319 0.44963972567206634 0.46527235879370776
0.4380851063829787 0.45154936843447463 0.46718200155611606
0.43829787234042555 0.44814304335605165 0.47031675265638573
0.43851063829787235 0.4479726428920372 0.47118087450409313
0.43872340425531914 0.4471721896814963 0.4672897940483801
0.43893617021276593 0.44406448461162684 0.46107350564289423
0.4391489361702128 0.4453737590960335 0.452505940655436
0.43936170212765957 0.44699560332193444 0.43871578779108994
0.43957446808510636 0.4490571475702665 0.4257580537632809
0.4397872340425532 0.4507401610012297 0.4087411515965824
