0.0 0.457743038593063 0.43722520762090866
0.0002127659574468085 0.4590932994445173 0.4419511206009987
0.000425531914893617 0.4604435602959716 0.4466770335810888
0.0006382978723404255 0.46123671927333615 0.45123534368245455
0.000851063829787234 0.45731275274393623 0.4543745169059745
0.0010638297872340426 0.45676599902296044 0.4564581244894251
0.001276595744680851 0.45327237850443663 0.45851280928222227
0.0014893617021276596 0.45093321903511263 0.463531632431759
0.001702127659574468 0.44771782121785497 0.4644973750257204
0.0019148936170212765 0.44435907334830455 0.463946501430391
0.002127659574468085 0.4408472827798822 0.4644150226681365
0.002340425531914894 0.4389473121379958 0.46165119687347334
0.002553191489361702 0.43566268771757255 0.46425539671236676
0.0027659574468085106 0.4330242656560421 0.47288551099678044
0.0029787234042553193 0.43158747161922767 0.4890999389948678
0.0031914893617021275 0.4331075563536354 0.5103623246501793
0.003404255319148936 0.4304419047804291 0.5275046671220172
0.003617021276595745 0.43359495320791436 0.5505486696503699
0.003829787234042553 0.4339855508425001 0.5732908205674685
0.004042553191489362 0.43187056467030166 0.5962259471473467
0.00425531914893617 0.43282653573625257 0.6130963178777634
0.004468085106382979 0.43197481489431266 0.6184708277257608
0.004680851063829788 0.43527514106731036 0.6155289102847209
0.004893617021276595 0.43453753791186045 0.6115034246010589
0.005106382978723404 0.43234505790475425 0.6052911580816295
0.005319148936170213 0.43429408891060084 0.6081610907120631
0.005531914893617021 0.433902768531231 0.6162203705176893
0.00574468085106383 0.43220421381034596 0.6214518306403947
0.005957446808510639 0.431362970200293 0.6245386642290106
0.006170212765957446 0.431362970200293 0.6221459353974721
0.006382978723404255 0.43144815935618314 0.6192926885609171
0.006595744680851064 0.43259072544691696 0.6107234428804139
0.006808510638297872 0.4323974925599939 0.5948543701661709
0.007021276595744681 0.4300931589478117 0.5696169042752429
0.00723404255319149 0.4286514381566592 0.5576025643489722
0.007446808510638298 0.427593735285521 0.5431156696592548
0.007659574468085106 0.42841092481928134 0.5165570098120462
0.007872340425531916 0.42922811435304165 0.48999834996483743
0.008085106382978723 0.42940889106008795 0.47543287677268314
0.008297872340425531 0.43113781877352375 0.4623266511537814
0.00851063829787234 0.4352711284807034 0.44648596482476605
0.008723404255319148 0.4366999352105745 0.43739327834877484
0.008936170212765958 0.44120057775643295 0.43267705611434554
0.009148936170212766 0.44316591413784884 0.4290380749195235
0.009361702127659575 0.443121656406726 0.4279604373875349
0.009574468085106383 0.4458142654787877 0.4313481529352537
0.00978723404255319 0.4487032220747404 0.43502466809330426
0.01 0.44942829019046543 0.44123248646857477
0.010212765957446808 0.4498738915951754 0.4561848642152245
0.010425531914893617 0.45110629589610385 0.47014638011295623
0.010638297872340425 0.45153198011431955 0.4756802749497597
0.010851063829787235 0.4517069771190777 0.4802149487054226
0.011063829787234043 0.451074477650784 0.47543489934912525
0.01127659574468085 0.4525559141897686 0.4509450205268071
0.01148936170212766 0.45565779418271835 0.44215636054678265
0.011702127659574468 0.45867466059345424 0.43531654605041487
0.011914893617021277 0.4615171537084408 0.4324740529354283
0.012127659574468085 0.46071366168269134 0.441715361678216
0.012340425531914893 0.45969711773326827 0.4463876582812327
0.012553191489361702 0.4594447416047265 0.45743900203240523
0.01276595744680851 0.4574369834719505 0.4671320564899433
0.01297872340425532 0.46165119687347334 0.48348728117690914
0.013191489361702127 0.46165119687347334 0.4855400392732502
0.013404255319148937 0.46165119687347334 0.4875927973695913
0.013617021276595745 0.4620569097831295 0.47099132306068286
0.013829787234042552 0.46257282102402486 0.44932305094307645
0.014042553191489362 0.46417726972366663 0.41601493772012044
0.01425531914893617 0.4670037296559137 0.39177126003694773
0.01446808510638298 0.4666485560933824 0.37367029970376947
0.014680851063829787 0.4671621683371119 0.3573707633221476
0.014893617021276596 0.467986745175233 0.3455051592625235
0.015106382978723404 0.46944385340891903 0.3357550524824894
0.015319148936170212 0.4704445530043966 0.32136628396523653
0.015531914893617021 0.4710398822812184 0.30221163625154795
0.01574468085106383 0.47336185435071976 0.2829358597286074
0.015957446808510637 0.47435271128480694 0.2742274844285218
0.016170212765957447 0.47509433888213065 0.27456581503832084
0.016382978723404256 0.4769344454706165 0.273431944368172
0.016595744680851062 0.4755897504728113 0.26461216223215583
0.01680851063829787 0.47800080212692464 0.2552990103266025
0.01702127659574468 0.471698887385947 0.24608197378123395
0.01723404255319149 0.4684687431955965 0.24279976583764212
0.017446808510638297 0.46445478413131913 0.2431974812045168
0.017659574468085106 0.46207015315313954 0.2341408916740182
0.017872340425531916 0.4568918408117084 0.22637342316187137
0.018085106382978722 0.45092105690430545 0.22820792082679703
0.01829787234042553 0.45335086182048795 0.24096325648783248
0.01851063829787234 0.4426627765741131 0.2680050528025962
0.01872340425531915 0.43917928676111373 0.3063363733101291
0.018936170212765956 0.43917928676111373 0.3510248664831936
0.019148936170212766 0.43917928676111373 0.3889865881635778
0.019361702127659575 0.4406419968240664 0.42576604752330094
0.01957446808510638 0.4449784011835202 0.45791374406865526
0.01978723404255319 0.44266418602570223 0.4850625457659695
0.02 0.44731105611776134 0.5009868701081596
0.02021276595744681 0.4491715445146932 0.5064172452765272
0.020425531914893616 0.4509037616023448 0.5070901830951637
0.020638297872340425 0.4514383021112633 0.5071295576071109
0.020851063829787235 0.45247192102444006 0.5081631765202876
0.02106382978723404 0.45353178416397 0.5146145870311772
0.02127659574468085 0.4507584489937135 0.5227262071774644
0.02148936170212766 0.44750171034154135 0.534690113353076
0.02170212765957447 0.44892628039433286 0.5458930701092318
0.021914893617021276 0.45250402520673505 0.554170022197099
0.022127659574468085 0.4485888955845823 0.5615497576089757
0.022340425531914895 0.44369817538629897 0.570713964407321
0.0225531914893617 0.44477821493079606 0.5825755112653019
0.02276595744680851 0.4417677889758175 0.5906458250853699
0.02297872340425532 0.441133365901319 0.5859846344576828
0.023191489361702126 0.44489804440052916 0.5594884168606363
0.023404255319148935 0.44290645531615586 0.5176660992467818
0.023617021276595745 0.4415142352068145 0.48066192113184647
0.023829787234042554 0.4401563263312165 0.4538163597181819
0.02404255319148936 0.43714208632522195 0.44760880505051587
0.02425531914893617 0.432044952728496 0.46368876612849774
0.02446808510638298 0.4303859306301905 0.49799141590272433
0.024680851063829785 0.4303859306301905 0.548956788403332
0.024893617021276595 0.4290224649437352 0.598235874506152
0.025106382978723404 0.42953331463533956 0.6202975883204744
0.025319148936170214 0.4311014026765158 0.6319462423406412
0.02553191489361702 0.432669490717692 0.6435948963608078
0.02574468085106383 0.43423757875886826 0.6552435503809745
0.02595744680851064 0.4352711284807034 0.659425322861042
0.026170212765957445 0.4352711284807034 0.649169602163339
0.026382978723404255 0.43646899498307046 0.6423611523120458
0.026595744680851064 0.4390018011420259 0.640471841070913
0.026808510638297874 0.44227648716694223 0.6428905415055584
0.02702127659574468 0.44396863594620006 0.6279432272887812
0.02723404255319149 0.4456607847254579 0.6129959130720037
0.0274468085106383 0.4473529335047158 0.5980485988552263
0.027659574468085105 0.44764334111992016 0.5448257423102563
0.027872340425531914 0.4471237522313684 0.4694853534702695
0.028085106382978724 0.44723463183390305 0.4384742789799788
0.028297872340425533 0.4475519130659986 0.4219756549110112
0.02851063829787234 0.44786919429809424 0.40547703084204384
0.02872340425531915 0.44735570737161917 0.39651947793858566
0.02893617021276596 0.4464403089379055 0.39121016702304645
0.029148936170212764 0.4455249105041918 0.38590085610750735
0.029361702127659574 0.4446095120704781 0.38059154519196814
0.029574468085106383 0.4436941136367644 0.3752822342764289
0.029787234042553193 0.44200805286463746 0.37137105017789457
0.03 0.4388076044953748 0.3702072507708899
0.03021276595744681 0.43560715612611206 0.3690434513638853
0.030425531914893618 0.43240670775684936 0.3678796519568806
0.030638297872340424 0.43395022952358075 0.36845923055106916
0.030851063829787233 0.4355947208051793 0.3690759147816686
0.031063829787234043 0.4372392120867778 0.3696925990122681
0.03127659574468085 0.4388837033683763 0.3703092832428675
0.03148936170212766 0.4408542509330625 0.3702630734025481
0.03170212765957447 0.44394064163927044 0.3679482803728921
0.031914893617021274 0.4470270323454784 0.3656334873432362
0.03212765957446809 0.45011342305168645 0.36331869431358016
0.03234042553191489 0.4531986055978493 0.3613342585103084
0.0325531914893617 0.4559581419443462 0.36003908158280407
0.03276595744680851 0.45752492555002844 0.3605450326008494
0.03297872340425532 0.4610914411681074 0.3605988372881702
0.033191489361702124 0.4627016051266146 0.3562776606684711
0.03340425531914894 0.46277188748155246 0.3463320099056353
0.03361702127659574 0.46427386194020254 0.3284637435033215
0.033829787234042556 0.46604937274337865 0.3111751206421252
0.03404255319148936 0.46861802339233893 0.3045034399061275
0.03425531914893617 0.46946751343429405 0.30478220695947617
0.03446808510638298 0.4709125342992792 0.3118274595494919
0.03468085106382979 0.47203387701061794 0.31779192840469433
0.03489361702127659 0.47239863214460187 0.3256487258134316
0.035106382978723406 0.47340730525960034 0.333753913824722
0.03531914893617021 0.47380225881999316 0.34374601394292176
0.03553191489361702 0.4743711397406151 0.3826398251796832
0.03574468085106383 0.4750853000563113 0.41662742029780336
0.03595744680851064 0.47452194825121347 0.4209464508035532
0.036170212765957444 0.47395859644611565 0.4252654813093031
0.036382978723404256 0.47339524464101784 0.42958451181505314
0.03659574468085106 0.47283189283592003 0.43390354232080297
0.03680851063829787 0.4722141022412669 0.4374097375242436
0.03702127659574468 0.4714460148166285 0.43829993615952784
0.03723404255319149 0.47440919555516753 0.4501526591136842
0.0374468085106383 0.4763067904250122 0.4599180740290475
0.03765957446808511 0.4763067904250122 0.4659664116608571
0.03787234042553191 0.4755490185045483 0.470544521975945
0.038085106382978726 0.4744814128008302 0.4663315642500233
0.03829787234042553 0.4734058090722987 0.4504089197537505
0.03851063829787234 0.4686438156601687 0.4302698955247033
0.03872340425531915 0.46929485651791597 0.4042353966479049
0.03893617021276596 0.46427042586565487 0.399661702991713
0.03914893617021276 0.4619334280788549 0.412924179497936
0.039361702127659576 0.45969711773326827 0.4353994949184972
0.03957446808510638 0.45969711773326827 0.46090790812834825
0.03978723404255319 0.4567533494222814 0.48124258667824144
0.04 0.4575053764140981 0.4945404398427572
0.04021276595744681 0.457743038593063 0.4958410002461709
0.04042553191489362 0.45762262698758444 0.4891424631680986
0.040638297872340426 0.45652345464367183 0.48072062362284407
0.04085106382978723 0.4554648956670913 0.470783161428572
0.041063829787234045 0.4523809069739841 0.4624337671283208
0.04127659574468085 0.44626541911156004 0.45676599902296044
0.04148936170212766 0.4425185866778294 0.4561971406592657
0.04170212765957447 0.4396123907693461 0.45595265123173484
0.041914893617021276 0.438134401894839 0.462289009962715
0.04212765957446808 0.4386858869597368 0.47787483012300463
0.042340425531914895 0.44024773787524096 0.5013269547137368
0.0425531914893617 0.4416077933433067 0.5300204943167022
0.04276595744680851 0.4421145291585096 0.55990346713156
0.04297872340425532 0.44473216699623985 0.5838790791635655
0.043191489361702126 0.4460185637518319 0.5955788886107466
0.04340425531914894 0.44680528074412446 0.5982464141100258
0.043617021276595745 0.4479011068274912 0.5948147226656095
0.04382978723404255 0.4459705714746971 0.5770070524501202
0.044042553191489364 0.44489344680243953 0.556097451539356
0.04425531914893617 0.4426997311927732 0.5349033176006259
0.044468085106382976 0.43756510459626713 0.5249463880652269
0.04468085106382979 0.4354705996756641 0.5253785565298034
0.044893617021276595 0.43561094878231155 0.5341858920258693
0.0451063829787234 0.4338401211756953 0.5500089649504771
0.045319148936170214 0.4315418025351971 0.5684378462103364
0.04553191489361702 0.4303859306301905 0.5859149597423806
0.045744680851063826 0.4303859306301905 0.5959146113751165
0.04595744680851064 0.4339780727541278 0.6055420168965923
0.046170212765957445 0.431661264251721 0.6150239107740467
0.04638297872340425 0.43624816805080613 0.6301014647605928
0.046595744680851064 0.4382726132883837 0.6323308971505165
0.04680851063829787 0.4435429626633099 0.6307450468277525
0.047021276595744683 0.44628122892624356 0.620309695323828
0.04723404255319149 0.4492771499853468 0.6099393245139164
0.047446808510638296 0.4516986572124754 0.6011193916679298
0.04765957446808511 0.4535736874169825 0.5939578480988082
0.047872340425531915 0.45541947863869214 0.5869438414563115
0.04808510638297872 0.4572572943510835 0.5781423490351688
0.048297872340425534 0.45892416527864494 0.5447218877418186
0.04851063829787234 0.4587822109586165 0.45773660321615733
0.048723404255319146 0.45530129148598586 0.45027749006052026
0.04893617021276596 0.4518203720133551 0.44281837690488296
0.049148936170212765 0.44833945254072444 0.4353592637492459
0.04936170212765957 0.4448289016840731 0.41492032374932514
0.049574468085106384 0.44125906692404104 0.3685124718689085
0.04978723404255319 0.4412853251736308 0.3618637025872337
0.05 0.4414428305244048 0.35666602601168995
0.05021276595744681 0.4416003358751789 0.3514683494361464
0.050425531914893615 0.4417578412259529 0.34627067286060287
0.05063829787234043 0.44191534657672693 0.3410729962850591
0.050851063829787234 0.442072851927501 0.33587531970951556
0.05106382978723404 0.4428869559375698 0.32671523800542435
0.05127659574468085 0.443906622558464 0.31631463847230384
0.05148936170212766 0.44492628917935817 0.3059140389391836
0.051702127659574465 0.4459459558002523 0.2955134394060634
0.05191489361702128 0.4469656224211465 0.2851128398729429
0.052127659574468084 0.44798528904204066 0.27471224033982267
0.05234042553191489 0.4490049556629348 0.26431164080670244
0.0525531914893617 0.450024622283829 0.2539110412735819
0.05276595744680851 0.45104428890472315 0.2435104417404617
0.05297872340425532 0.45216690574206364 0.2362859232136319
0.05319148936170213 0.4537597222636148 0.24356737016929444
0.053404255319148934 0.4553525387851659 0.250848817124957
0.05361702127659575 0.4569453553067171 0.2581302640806198
0.05382978723404255 0.4585381718282682 0.2654117110362823
0.05404255319148936 0.4573289624230365 0.2850233453446985
0.05425531914893617 0.45835413509630357 0.30903409067027104
0.05446808510638298 0.46235203306711503 0.33125559753956724
0.054680851063829784 0.467722157580155 0.34725227931596764
0.0548936170212766 0.4715254327368181 0.3574808454125374
0.0551063829787234 0.4723258977325909 0.3678868903575851
0.05531914893617021 0.47470118983793547 0.39799816849595265
0.05553191489361702 0.4751452115565432 0.41038888453842115
0.05574468085106383 0.47489975509451593 0.41627983962707443
0.055957446808510634 0.47465429863248865 0.42217079471572777
0.05617021276595745 0.4744088421704614 0.4280617498043813
0.05638297872340425 0.4757697230125159 0.43932797315405014
0.056595744680851066 0.4778691746270022 0.4594924791624199
0.05680851063829787 0.4773482214718549 0.4718191088539408
0.05702127659574468 0.48042586684734223 0.4802149487054226
0.05723404255319149 0.48254369187077256 0.47901019761550684
0.0574468085106383 0.4805554110079583 0.4719694751670568
0.057659574468085104 0.4803811128740126 0.4650808080895511
0.05787234042553192 0.4788363875963723 0.46124967533452566
0.05808510638297872 0.477798671107152 0.4611363557614361
0.05829787234042553 0.47562828137237023 0.4588919491688992
0.05851063829787234 0.4732991304023084 0.45097130416921827
0.05872340425531915 0.47087858899035545 0.4353782616721072
0.058936170212765954 0.4671332540928971 0.40741022288385104
0.05914893617021277 0.4626600574971735 0.37433756297818355
0.05936170212765957 0.4586063009876049 0.3486658718460916
0.059574468085106386 0.45676599902296044 0.334485370551669
0.05978723404255319 0.4516678299016771 0.3307278944797265
0.06 0.4466353024826273 0.3441012985738249
0.06021276595744681 0.4460185637518319 0.3789278198044515
0.06042553191489362 0.44227595192630426 0.41818996387883844
0.06063829787234042 0.4493177841648416 0.4556359180214185
0.060851063829787236 0.444309892009105 0.5000562277426727
0.06106382978723404 0.444348172452841 0.5426086042471914
0.06127659574468085 0.44232964482037196 0.5621210380277246
0.06148936170212766 0.4430424523433744 0.5838133360452564
0.06170212765957447 0.44211701539724735 0.6013744653239694
0.06191489361702127 0.443076561011885 0.602334010938607
0.062127659574468086 0.4440361066265226 0.6032935565532445
0.06234042553191489 0.4431262622899203 0.6061366015034679
0.0625531914893617 0.4450839352357389 0.611350306369217
0.0627659574468085 0.44619164325230504 0.6177542439544138
0.06297872340425532 0.44699560332193444 0.6236339328936839
0.06319148936170213 0.44832481577061023 0.6167392135788639
0.06340425531914894 0.44877031846099047 0.607709150167592
0.06361702127659574 0.4485441847385628 0.5947488068404647
0.06382978723404255 0.44736999443499464 0.5781350874725097
0.06404255319148935 0.443742891267557 0.5668498771004833
0.06425531914893617 0.4398183755061056 0.563770238401809
0.06446808510638298 0.43929155501014805 0.5678283926031557
0.06468085106382979 0.440070052638796 0.5753212328272668
0.06489361702127659 0.43667932590382685 0.5869694471779503
0.0651063829787234 0.43828409601833673 0.5959677125464382
0.06531914893617022 0.4383684063130012 0.6039467407026335
0.06553191489361702 0.43725651768385004 0.6071674726928763
0.06574468085106383 0.4401563263312165 0.6114623129409152
0.06595744680851064 0.4407824641992651 0.6114082838702708
0.06617021276595744 0.44397477306996075 0.5978409711698143
0.06638297872340425 0.44031827300337745 0.5631194240421143
0.06659574468085107 0.43776391825080385 0.5187377711702718
0.06680851063829787 0.43722520762090866 0.4600261167766583
0.06702127659574468 0.4366013023495999 0.3992730303910271
0.06723404255319149 0.4301312048913863 0.35073671715278676
0.06744680851063829 0.42391307597023575 0.3252810223459094
0.06765957446808511 0.42545289639286055 0.3266080788182862
0.06787234042553192 0.42471352245349175 0.3460312316048559
0.06808510638297872 0.42911946413572033 0.375451497923623
0.06829787234042553 0.4315325237602353 0.4122227362645403
0.06851063829787234 0.428316163679007 0.4508567899010675
0.06872340425531914 0.43167248710934125 0.48171404440770466
0.06893617021276596 0.4359533140092613 0.49789413841273733
0.06914893617021277 0.4392230653805937 0.503357448051525
0.06936170212765957 0.4398170426491129 0.4951282029866488
0.06957446808510638 0.4413185287530188 0.4845612004465347
0.06978723404255319 0.4444048702192382 0.47388625012612157
0.06999999999999999 0.4424751864611276 0.46229599900178886
0.07021276595744681 0.44334656576313486 0.46374551010260867
0.07042553191489362 0.4490907166192794 0.467274575604671
0.07063829787234042 0.4460515347329889 0.4566341150983323
0.07085106382978723 0.4481314888557896 0.4456139172233394
0.07106382978723404 0.45006318061657913 0.42119411348612923
0.07127659574468086 0.45549355857136914 0.39323901358884744
0.07148936170212766 0.4586596823043667 0.3651765686978329
0.07170212765957447 0.4597257950893057 0.34426306168097515
0.07191489361702127 0.4590674108494225 0.3234537860711677
0.07212765957446808 0.4596641241151428 0.3095959537368499
0.07234042553191489 0.4589313785263076 0.30661885577187475
0.0725531914893617 0.46043016913067747 0.3126488583551766
0.07276595744680851 0.4604743874503603 0.3306842750898264
0.07297872340425532 0.4611183604364027 0.35843746243307756
0.07319148936170213 0.4640536220279536 0.3920403447715321
0.07340425531914893 0.46392395139699927 0.421517290488169
0.07361702127659574 0.4626520975952586 0.44837701482175374
0.07382978723404256 0.4636052760136786 0.47362654209607913
0.07404255319148936 0.4636052760136786 0.4900186927211405
0.07425531914893617 0.4636052760136786 0.5064108433462019
0.07446808510638298 0.4636052760136786 0.5228029939712633
0.07468085106382978 0.46454604492445556 0.531506125893045
0.0748936170212766 0.46748733201772735 0.5238587794505382
0.07510638297872341 0.46883600514820795 0.5089842500671462
0.07531914893617021 0.4693603759133368 0.49036908790507244
0.07553191489361702 0.4698847466784656 0.4717539257429987
0.07574468085106383 0.4704091174435944 0.45313876358092486
0.07595744680851063 0.47115645623050495 0.4319475108414165
0.07617021276595745 0.47072947857084546 0.4016839310890005
0.07638297872340426 0.46882442077185815 0.35906867662915
0.07659574468085106 0.4684904738641915 0.31459256349757186
0.07680851063829787 0.46523934052149857 0.2753009690909771
0.07702127659574468 0.4624395185310861 0.25297561470415253
0.0772340425531915 0.462104065147478 0.2515163862793234
0.0774468085106383 0.46670374552830085 0.2654119418825399
0.07765957446808511 0.4631849386081948 0.28757930237992124
0.07787234042553191 0.46493736394355456 0.3128689867215192
0.07808510638297872 0.4664622159002012 0.3395339654715453
0.07829787234042553 0.46695777734749455 0.36597991436375515
0.07851063829787235 0.4672282827972621 0.3908932523165119
0.07872340425531915 0.4683433870970414 0.40878592448803647
0.07893617021276596 0.46945881279214313 0.43214859564307573
0.07914893617021276 0.4643283939754741 0.4432916995719289
0.07936170212765957 0.46341995259680757 0.46275724089686376
0.07957446808510638 0.464353653520991 0.48273719913377305
0.0797872340425532 0.46316360117157646 0.4951516119146564
0.08 0.46092604757857514 0.48976397566195856
0.08021276595744681 0.4580891272998386 0.463565320058024
0.08042553191489361 0.45584682013104205 0.4283805827708292
0.08063829787234042 0.4526322007080218 0.392091886208376
0.08085106382978724 0.4501461282247894 0.37642934808200096
0.08106382978723405 0.44680861338183553 0.388691089169834
0.08127659574468085 0.4429254784444849 0.42622434247848756
0.08148936170212766 0.4404638940079156 0.4738288155980781
0.08170212765957446 0.4345925834968225 0.5204366827025043
0.08191489361702127 0.43412400627102704 0.5611751217921299
0.08212765957446809 0.43338419438539766 0.5881661895691271
0.0823404255319149 0.4335474195992071 0.6133267685569035
0.0825531914893617 0.43752347485029097 0.6510992934422004
0.08276595744680851 0.43768831826812477 0.6787572545389294
0.08297872340425531 0.43880106816470654 0.6996390900284477
0.08319148936170212 0.44332590642476 0.71136815983529
0.08340425531914894 0.4450415241817294 0.7100681672065855
0.08361702127659575 0.44581314131928595 0.7072989738343151
0.08382978723404255 0.45113979704151935 0.7018259045393294
0.08404255319148936 0.4489408077514602 0.6938530460694737
0.08425531914893616 0.4460185637518319 0.6841578019784221
0.08446808510638298 0.4450928288059777 0.6676503805829908
0.08468085106382979 0.44406448461162684 0.6498367283980119
0.0848936170212766 0.4445223428132902 0.6315048397035391
0.0851063829787234 0.4445840831822535 0.5992671231142175
0.08531914893617021 0.44211040547142155 0.5454850625584162
0.08553191489361701 0.439588538972677 0.4720115346580662
0.08574468085106383 0.43673510780481223 0.37486230352117766
0.08595744680851064 0.43453672141006877 0.26995201001686164
0.08617021276595745 0.43433477057736775 0.17403610783010637
0.08638297872340425 0.4350661384231373 0.1054271041786755
0.08659574468085106 0.42900104412381435 0.07474352711284804
0.08680851063829788 0.4303859306301905 0.08982440529540868
0.08702127659574468 0.42829911519621144 0.1468915574427824
0.08723404255319149 0.42838007619405394 0.23474473559051096
0.0874468085106383 0.42480609265394875 0.33891101778107874
0.0876595744680851 0.4235466536394723 0.42621655855130686
0.08787234042553191 0.4249345144022773 0.4995449725613844
0.08808510638297873 0.43025861300791174 0.5526818825255242
0.08829787234042553 0.42965971571287964 0.5838861793005536
0.08851063829787234 0.43233759265445304 0.5986282772163481
0.08872340425531915 0.4379264232569648 0.6059772293146101
0.08893617021276595 0.4401563263312165 0.6082071323888618
0.08914893617021276 0.4417932077432553 0.6016596067407061
0.08936170212765958 0.44596230103699824 0.59557594637107
0.08957446808510638 0.44847154828910585 0.5949859413564248
0.08978723404255319 0.45188080117244755 0.5824624796163468
0.09 0.45215662345881724 0.5733328532871554
0.0902127659574468 0.4524431798751368 0.5629056365735591
0.09042553191489362 0.4507749520756201 0.5406468423228763
0.09063829787234043 0.44992672203224227 0.5161335756185386
0.09085106382978723 0.4515967381687186 0.48211290105850646
0.09106382978723404 0.4528547394464941 0.45098749659585646
0.09127659574468085 0.45538676749045326 0.4210750102893548
0.09148936170212765 0.45959911092812555 0.40888803160660925
0.09170212765957447 0.45990629058505544 0.39677630917571854
0.09191489361702128 0.4632243931154939 0.38184855519735805
0.09212765957446808 0.463677164216945 0.36420539740065216
0.09234042553191489 0.46458231558378116 0.33780671336088114
0.0925531914893617 0.46296810036525543 0.30311630380395077
0.0927659574468085 0.46262823644357587 0.26334779704553674
0.09297872340425532 0.4614983016747554 0.2269139761838192
0.09319148936170213 0.4654278372710747 0.19719525966947016
0.09340425531914893 0.45890255639425576 0.1733275510712315
0.09361702127659574 0.457743038593063 0.15493205031825663
0.09382978723404255 0.4590887990037664 0.13425973139875746
0.09404255319148937 0.45969711773326827 0.11792939327597989
0.09425531914893617 0.45969711773326827 0.12822880903857667
0.09446808510638298 0.4630010599629313 0.17304752103798557
0.09468085106382979 0.46637086207925843 0.23443294978069504
0.09489361702127659 0.4693210952071539 0.305109369567607
0.0951063829787234 0.4726785452161302 0.3728911772508896
0.09531914893617022 0.47435271128480694 0.4329153703147567
0.09553191489361702 0.4777354323914106 0.48420553549457473
0.09574468085106383 0.4792350885207356 0.5251996678416159
0.09595744680851064 0.4775588680271191 0.5555557017031493
0.09617021276595744 0.48024525350786146 0.5709187070391444
0.09638297872340426 0.4831460674157304 0.576312672624891
0.09659574468085107 0.4801335831737637 0.5665337805181271
0.09680851063829787 0.47473083144724815 0.5568414855651709
0.09702127659574468 0.47631144187042057 0.5412589903324965
0.09723404255319149 0.474899563843728 0.5257566683982349
0.09744680851063829 0.48030480296475125 0.5172525981099921
0.09765957446808511 0.4793523070941742 0.5136058910271917
0.09787234042553192 0.47630880239807244 0.5157775794787085
0.09808510638297872 0.473985867117392 0.5195435173738109
0.09829787234042553 0.47380365346393244 0.5296244160283572
0.09851063829787234 0.4726779847990016 0.5523745795517895
0.09872340425531914 0.4735104396436174 0.5883294769935606
0.09893617021276596 0.47276162155534607 0.6246897172239417
0.09914893617021277 0.47515903031229056 0.6463212987847904
0.09936170212765957 0.47224079386078704 0.6278679632597678
0.09957446808510638 0.47065984330504085 0.5679655392561489
0.09978723404255319 0.47040117071480253 0.4748751748684044
0.1 0.4665855609759691 0.3637231283706254
0.10021276595744681 0.4590372932911496 0.26015541364384465
0.10042553191489362 0.44827528591742916 0.17877416650168515
0.10063829787234042 0.44246835635022275 0.14146533173212633
0.10085106382978723 0.43605238647185834 0.14758472296718234
0.10106382978723404 0.43101826840874685 0.18504137135149587
0.10127659574468086 0.424210961792715 0.23742159996526876
0.10148936170212766 0.41943773099892195 0.28782115783619716
0.10170212765957447 0.41722480914972787 0.3267679035387249
0.10191489361702127 0.4138675120691809 0.3586513984243965
0.10212765957446808 0.4141181526823076 0.3854578645881333
0.10234042553191489 0.41652802700564573 0.4054125089813054
0.1025531914893617 0.4177310038682431 0.4234547794077071
0.10276595744680851 0.4190474579391867 0.44537938955381845
0.10297872340425532 0.4226211010885913 0.4713190231344246
0.10319148936170212 0.42789663428876573 0.506003516493394
0.10340425531914893 0.4281775229083774 0.5473233956609304
0.10361702127659575 0.43200532146741016 0.5944610150602904
0.10382978723404256 0.4369051801766552 0.6401802824700202
0.10404255319148936 0.4393000032323074 0.6745741571196876
0.10425531914893617 0.441333749235389 0.689125910473554
0.10446808510638297 0.44211040547142155 0.6915494151474256
0.10468085106382978 0.44211040547142155 0.6873687370341929
0.1048936170212766 0.44211040547142155 0.6812791710761396
0.1051063829787234 0.44133956122670354 0.6749059555380422
0.10531914893617021 0.441133365901319 0.6718459246398728
0.10553191489361702 0.4415152946369974 0.6811955323006744
0.10574468085106382 0.4464532560134716 0.692561608669674
0.10595744680851064 0.4469414234325775 0.7060194491778349
0.10617021276595745 0.4455274593106759 0.7078755071637448
0.10638297872340426 0.4496450566885887 0.6968448570572289
0.10659574468085106 0.449698064559561 0.6737936029444896
0.10680851063829787 0.4481661687176038 0.6458681613181118
0.10702127659574467 0.4488785827789293 0.6196128208037286
0.1072340425531915 0.44867633641468013 0.6010945093506841
0.1074468085106383 0.4452508532128292 0.5957850648689346
0.1076595744680851 0.4463673664995696 0.5892945778091748
0.10787234042553191 0.44600569790636446 0.5847067193245298
0.10808510638297872 0.44568164413113515 0.5706081052354964
0.10829787234042552 0.4444600917094694 0.551191142923084
0.10851063829787234 0.4477480496223088 0.5209248327150571
0.10872340425531915 0.441133365901319 0.490472037516473
0.10893617021276596 0.4409007518623637 0.4578830918683576
0.10914893617021276 0.43902805174686377 0.4212821204407363
0.10936170212765957 0.43722520762090866 0.3823646810811262
0.10957446808510639 0.43458990322786195 0.33857123550284984
0.1097872340425532 0.4376082185918949 0.30081087599606604
0.11 0.43548492410933676 0.2761299885381594
0.1102127659574468 0.43177076190245617 0.2568296276573155
0.11042553191489361 0.43429199783636885 0.2525877306880715
0.11063829787234042 0.4331735251644477 0.2676178894241674
0.11085106382978724 0.4329134358682998 0.3026583079590457
0.11106382978723404 0.43429408891060084 0.34224779376055425
0.11127659574468085 0.4371419584624952 0.37794123021361803
0.11148936170212766 0.44412686286577363 0.4013658106543415
0.11170212765957446 0.4485485844277578 0.4177667045319464
0.11191489361702127 0.45096109344120067 0.4195352980491214
0.11212765957446809 0.45609054057123743 0.40888486195867163
0.1123404255319149 0.4589231157557032 0.3925382582942641
0.1125531914893617 0.46165119687347334 0.36874158609365615
0.1127659574468085 0.46279800161837575 0.33852521493120685
0.11297872340425531 0.46432219679230874 0.29742598427547995
0.11319148936170213 0.46458231558378116 0.2514774890539368
0.11340425531914894 0.46165119687347334 0.20445709291870492
0.11361702127659574 0.4613662798267124 0.1566118821974032
0.11382978723404255 0.4595513677759021 0.1389798489563471
0.11404255319148936 0.45955631515504547 0.15149866693882869
0.11425531914893616 0.46165119687347334 0.1887992733729452
0.11446808510638298 0.4639054819727543 0.23422202089955768
0.11468085106382979 0.46624549734820886 0.2804056614630763
0.1148936170212766 0.4665363947239862 0.325080574286299
0.1151063829787234 0.4693748431436759 0.37144321192548363
0.11531914893617021 0.4666475585840773 0.4213762587725778
0.11553191489361703 0.46776768903774857 0.46715046410846733
0.11574468085106383 0.46967380497039146 0.5069101448550578
0.11595744680851064 0.47303225417909317 0.5422424245461835
0.11617021276595745 0.47435271128480694 0.5656242803733637
0.11638297872340425 0.47517565451644883 0.5791549647029202
0.11659574468085106 0.47823293690590507 0.5818177531096544
0.11680851063829788 0.4782608695652173 0.5747288365697099
0.11702127659574468 0.47865158246202827 0.5509540546180712
0.11723404255319149 0.4802149487054226 0.5217270339633976
0.1174468085106383 0.47974477216066325 0.49675799613882926
0.1176595744680851 0.4816808859838033 0.47105302967715657
0.11787234042553191 0.48459290416619033 0.4452661954380556
0.11808510638297873 0.4773986118653242 0.41949758699621825
0.11829787234042553 0.47333524138135846 0.39658034541318665
0.11851063829787234 0.4707978033686271 0.3658694389858342
0.11872340425531915 0.46633721259239164 0.3455637990749888
0.11893617021276595 0.46099763054197435 0.3302899769739631
0.11914893617021277 0.45600703261727515 0.32428698840051495
0.11936170212765958 0.45192093116984217 0.31955213441963876
0.11957446808510638 0.4509037616023448 0.3145803461953565
0.11978723404255319 0.4509037616023448 0.31832708310758123
0.12 0.4505719819176443 0.33406399081073074
0.1202127659574468 0.4504737391159383 0.36429822365508274
0.12042553191489362 0.4520413957348429 0.3979162051689416
0.12063829787234043 0.44874102668383287 0.4268189067709503
0.12085106382978723 0.447236350667951 0.43158966736027304
0.12106382978723404 0.44261211975219394 0.4189888733488651
0.12127659574468085 0.4402753030216965 0.3963337484133427
0.12148936170212765 0.44123892478518933 0.3755396421207472
0.12170212765957447 0.4333170493404983 0.37393846749194326
0.12191489361702128 0.43417020062517525 0.38994157668640533
0.12212765957446808 0.43584218554829013 0.42203878046274856
0.12234042553191489 0.43624816805080613 0.46351438974265813
0.1225531914893617 0.43624816805080613 0.5078247751733453
0.12276595744680852 0.4372841026475648 0.5403149702082577
0.12297872340425532 0.4393529823566821 0.5588557735113807
0.12319148936170213 0.43983911185099234 0.5720058760362052
0.12340425531914893 0.44009860172887205 0.5773437990271136
0.12361702127659574 0.441133365901319 0.584319748423285
0.12382978723404255 0.438148575318111 0.5981360684579354
0.12404255319148937 0.43722520762090866 0.6183015934849773
0.12425531914893617 0.4365453776747547 0.6406017952031492
0.12446808510638298 0.4403098682767741 0.6609183921500009
0.12468085106382978 0.4365294151451064 0.6748457705866399
0.12489361702127659 0.4362545067595457 0.6770662366005054
0.1251063829787234 0.43722520762090866 0.6584223118426128
0.12531914893617022 0.43722520762090866 0.6300311139804331
0.125531914893617 0.43722520762090866 0.6074252576058172
0.12574468085106383 0.43624816805080613 0.5918959532551915
0.12595744680851065 0.435740455999214 0.5829349563836435
0.12617021276595744 0.432704798873387 0.5746101920160049
0.12638297872340426 0.431362970200293 0.5546354832740894
0.12659574468085105 0.4307833559602808 0.5255392429015427
0.12680851063829787 0.428947582608173 0.49499363536177604
0.1270212765957447 0.4284318514899854 0.4708141912359877
0.12723404255319148 0.42837801316796625 0.4596163602502395
0.1274468085106383 0.42698178596146796 0.4572700126346483
0.1276595744680851 0.43002819510852147 0.4603164217817018
0.12787234042553192 0.431362970200293 0.4648064207448941
0.1280851063829787 0.4331482257065128 0.47503641072033065
0.12829787234042553 0.43429408891060084 0.47923790913532005
0.12851063829787235 0.43781393280236475 0.48363771400002487
0.12872340425531914 0.4402449979789926 0.487720914499027
0.12893617021276596 0.4428638898432629 0.47968501953184234
0.12914893617021275 0.4460185637518319 0.4707178603508164
0.12936170212765957 0.44649574706885387 0.46412780520281777
0.1295744680851064 0.44761929105222015 0.4563913591407197
0.12978723404255318 0.44651596892086126 0.4521295037569622
0.13 0.44860473665957085 0.4449843400851439
0.1302127659574468 0.44801565452952746 0.4412624008137898
0.13042553191489362 0.4470152933933009 0.43634661840763866
0.13063829787234044 0.4471805669528375 0.4411736263011832
0.13085106382978723 0.4491835623501602 0.45347644037057006
0.13106382978723405 0.45106449778764274 0.4654437827248082
0.13127659574468084 0.4565248312866714 0.4756124389106379
0.13148936170212766 0.457709524156219 0.4785753779429702
0.13170212765957448 0.4623950987635485 0.4790650266710157
0.13191489361702127 0.4636052760136786 0.4754867963616911
0.1321276595744681 0.4639112673637208 0.4740037883380602
0.13234042553191488 0.467203849910941 0.45906847544648394
0.1325531914893617 0.47003036571800777 0.44361848961965233
0.1327659574468085 0.4701721038414552 0.431106166037223
0.13297872340425532 0.47239806364576836 0.4188020074398316
0.13319148936170214 0.4732271529936604 0.4088701962621983
0.13340425531914893 0.471570048970342 0.38787956793974987
0.13361702127659575 0.4704558908185882 0.3583911234257722
0.13382978723404254 0.46936105457382266 0.31701852094125826
0.13404255319148936 0.46781729301410024 0.2753825027836274
0.13425531914893618 0.4641726256739515 0.23475763112103687
0.13446808510638297 0.4602346161018794 0.21647956955580344
0.1346808510638298 0.458122075283778 0.22044021443139367
0.13489361702127659 0.4562981405172115 0.2401244601729112
0.1351063829787234 0.4549386284391469 0.27038505127841617
0.13531914893617022 0.45481536368185244 0.29752017191819174
0.13553191489361702 0.4616095131615107 0.3274541489762363
0.13574468085106384 0.4553155215310262 0.35703714440699796
0.13595744680851063 0.45676599902296044 0.3805333224661327
0.13617021276595745 0.45879186860719734 0.3958625543906199
0.13638297872340424 0.46130866425141226 0.4045392525933008
0.13659574468085106 0.46392263023046176 0.4107227032093756
0.13680851063829788 0.4689660749767073 0.422343201341264
0.13702127659574467 0.4695125345894416 0.4422454689368641
0.1372340425531915 0.4715692753099572 0.4497448357175317
0.13744680851063829 0.47212656910002576 0.46377806340191036
0.1376595744680851 0.4710254042962645 0.48108791201479834
0.13787234042553193 0.46940384297920407 0.4998084191906879
0.13808510638297872 0.4684904738641915 0.5172899392315068
0.13829787234042554 0.4684904738641915 0.5353542060901176
0.13851063829787233 0.4640034765711277 0.5594775104596715
0.13872340425531915 0.46161105038736966 0.5713205076415854
0.13893617021276597 0.4613216304194848 0.5766181295875219
0.13914893617021276 0.46344633350290904 0.5738518049245015
0.13936170212765958 0.4606741573033708 0.5673975066444272
0.13957446808510637 0.46121393191235865 0.5531101042412461
0.1397872340425532 0.4596465026859376 0.5189473440684871
0.13999999999999999 0.4587200781631655 0.4588702202165066
0.1402127659574468 0.4596436710508378 0.3648492830015425
0.14042553191489363 0.45954445050091675 0.26065563143194387
0.14063829787234042 0.45671586333511816 0.17189599155684243
0.14085106382978724 0.45352603740987074 0.12377807136636736
0.14106382978723403 0.45066605939702853 0.12482500063894823
0.14127659574468085 0.443080204192234 0.16410866329397836
0.14148936170212767 0.4389898366645008 0.22554044448160532
0.14170212765957446 0.43735895710984046 0.3008475992823453
0.14191489361702128 0.43632485896669565 0.3669320287229954
0.14212765957446807 0.4361634357177977 0.42868081300799904
0.1423404255319149 0.433955895170694 0.48540047975288003
0.1425531914893617 0.43382245777728756 0.5372272718206871
0.1427659574468085 0.43722520762090866 0.5818620014581343
0.14297872340425533 0.43722520762090866 0.6215154406072371
0.14319148936170212 0.4385703694979393 0.65635058577037
0.14340425531914894 0.43917928676111373 0.6873219211493937
0.14361702127659573 0.4410230888937636 0.7069829524788827
0.14382978723404255 0.44294714303140176 0.7260130888416619
0.14404255319148937 0.44151866381001714 0.732690250498946
0.14425531914893616 0.4424526546996635 0.7287501027970338
0.14446808510638298 0.4415757470499767 0.7157194955307028
0.14468085106382977 0.44154199836534386 0.6982729391981385
0.1448936170212766 0.441133365901319 0.6802609312217723
0.1451063829787234 0.44360342674014663 0.6515919219934475
0.1453191489361702 0.44027958067620054 0.6028160939517061
0.14553191489361703 0.44289888454577 0.5496616633914888
0.14574468085106382 0.44025047105954696 0.49625343696115276
0.14595744680851064 0.43549439135130363 0.45920551619998484
0.14617021276595746 0.4323400097703958 0.4365288058543204
0.14638297872340425 0.43293502522605265 0.41950661965513214
0.14659574468085107 0.4318812377178159 0.407315105636376
0.14680851063829786 0.4296776439082253 0.40245491236942155
0.14702127659574468 0.4267141196388408 0.4110343545013724
0.14723404255319147 0.4264432064480029 0.42891577411486714
0.1474468085106383 0.4259697110041382 0.4441426444440843
0.14765957446808511 0.4284318514899854 0.45707259152457574
0.1478723404255319 0.43089334551761244 0.46262823644357587
0.14808510638297873 0.4337557349092305 0.45616798842713113
0.14829787234042552 0.43662994751609513 0.44162764671067367
0.14851063829787234 0.44214877198828006 0.4238070233101943
0.14872340425531916 0.4449199655534484 0.408704151601657
0.14893617021276595 0.44901063400237284 0.40327262882825055
0.14914893617021277 0.45066553349927696 0.40915341534883237
0.14936170212765956 0.4538348803126526 0.4241863542927934
0.14957446808510638 0.45254248941836184 0.4440025134165508
0.1497872340425532 0.4541805293675334 0.46584969545167726
0.15 0.45543584585921915 0.4892963590741924
0.15021276595744681 0.45165016002927366 0.513237261021212
0.1504255319148936 0.4518145353499801 0.5419333435554707
0.15063829787234043 0.45198458119980234 0.5658400714684766
0.15085106382978725 0.4538348803126526 0.5780071749715612
0.15106382978723404 0.45566304026841703 0.5815853302623515
0.15127659574468086 0.4592706928107529 0.5742052711381157
0.15148936170212765 0.4592680313328991 0.5615730719778536
0.15170212765957447 0.46171403180647824 0.5423056366609538
0.15191489361702126 0.4650162536069755 0.5120260325672744
0.15212765957446808 0.4655593551538837 0.4753555573653972
0.1523404255319149 0.4712825564916799 0.42600250703101117
0.1525531914893617 0.46927531224295554 0.3715394901754581
0.15276595744680851 0.46786130317388447 0.3165715539478186
0.1529787234042553 0.46609792224373275 0.26922221461496987
0.15319148936170213 0.4638697586449125 0.2307835659312943
0.15340425531914895 0.4605695241325349 0.20532983261466836
0.15361702127659574 0.45969711773326827 0.1981867345521515
0.15382978723404256 0.4570629202321387 0.21014343461771223
0.15404255319148935 0.461618180903886 0.23252562945838143
0.15425531914893617 0.4595632798802788 0.2649315324339813
0.154468085106383 0.4587200781631655 0.301407681187576
0.15468085106382978 0.4594558449158445 0.33418935202651356
0.1548936170212766 0.46213740363514866 0.3653904399923998
0.1551063829787234 0.46299677142228013 0.39844351531820565
0.15531914893617021 0.463356788263897 0.4302675506270235
0.155531914893617 0.4653061185132999 0.45848573886617594
0.15574468085106383 0.4655593551538837 0.4811641957046866
0.15595744680851065 0.4660581586004098 0.4945375743179659
0.15617021276595744 0.46946751343429405 0.5058694486639681
0.15638297872340426 0.46909108940372585 0.505842169037056
0.15659574468085105 0.467493020113464 0.498157488578259
0.15680851063829787 0.4690225721315666 0.467699193822745
0.1570212765957447 0.46895145584379366 0.4112816112354675
0.15723404255319148 0.47196584222998594 0.33384931004960783
0.1574468085106383 0.4694081637087541 0.2645540465763738
0.1576595744680851 0.46542606632683114 0.21543598972277211
0.15787234042553192 0.46415040391900103 0.1966575175432816
0.15808510638297874 0.46093826763479556 0.20029035270839793
0.15829787234042553 0.45682161752434697 0.22011571157585363
0.15851063829787235 0.4534511794619261 0.25698618237651877
0.15872340425531914 0.4504641118377274 0.30920813787903617
0.15893617021276596 0.44992672203224227 0.37112517756529523
0.15914893617021275 0.44992672203224227 0.43418016793877584
0.15936170212765957 0.45241608675851136 0.4887265630259816
0.1595744680851064 0.45585711793979833 0.5334068571655413
0.15978723404255318 0.4542683818012951 0.565864321095997
0.16 0.45676599902296044 0.5909070885787323
0.1602127659574468 0.45676599902296044 0.6201155690250136
0.16042553191489362 0.461148687259252 0.6404214585439073
0.16063829787234044 0.46177107160492586 0.6545236998150058
0.16085106382978723 0.46165119687347334 0.672677812082279
0.16106382978723405 0.4611310639353058 0.6644256820670305
0.16127659574468084 0.4562067719791303 0.628065028945747
0.16148936170212766 0.4515010493127294 0.5649041898336199
0.16170212765957448 0.44939558103669036 0.49437877420049775
0.16191489361702127 0.44546884779660323 0.42910186063283184
0.1621276595744681 0.44481437783242944 0.38984812904566535
0.16234042553191488 0.44416720767892687 0.38086508175685846
0.1625531914893617 0.44214596267119577 0.39679401807276116
0.1627659574468085 0.44406448461162684 0.4331358024525163
0.16297872340425532 0.44380491683831186 0.4614994504657868
0.16319148936170214 0.44154962808374937 0.48420400630510113
0.16340425531914893 0.4402001449780881 0.4979331169078844
0.16361702127659575 0.4386102402870785 0.496317309852656
0.16382978723404254 0.4349795909811469 0.48341395836797085
0.16404255319148936 0.4308087799022391 0.4549464583947999
0.16425531914893618 0.42649634210217563 0.4222353585262509
0.16446808510638297 0.4262928322399395 0.4046924068875375
0.1646808510638298 0.41963849535906195 0.4079276958165145
0.16489361702127658 0.4188436411395501 0.43174349400233114
0.1651063829787234 0.4176844162188569 0.4647352702985362
0.16531914893617022 0.4228814537230906 0.4935297622719627
0.16553191489361702 0.42397031724522494 0.5175673505565552
0.16574468085106384 0.4218450451386682 0.5298848884734528
0.16595744680851063 0.4264197912863266 0.5252283462062858
0.16617021276595745 0.4297403262258978 0.5152606289131855
0.16638297872340424 0.4321068391189702 0.5058955051439159
0.16659574468085106 0.43278689832590916 0.5082916647961372
0.16680851063829788 0.43430629786931707 0.5269785495244682
0.16702127659574467 0.43574811878784325 0.5542700021110537
0.1672340425531915 0.43795634866248334 0.5839811598567626
0.16744680851063828 0.43649662372895337 0.5906204201270151
0.1676595744680851 0.4411265011215072 0.585742087056314
0.16787234042553192 0.4405181506582091 0.5758563931646011
0.16808510638297872 0.4430874450415241 0.5671783684226728
0.16829787234042554 0.44345335576333683 0.5627767088469945
0.16851063829787233 0.4450459874525242 0.5598414420333861
0.16872340425531915 0.4497027125029516 0.5642673522185584
0.16893617021276597 0.45188080117244755 0.5730713267799415
0.16914893617021276 0.45360703060160956 0.5974287695844809
0.16936170212765958 0.4509255132004008 0.6261092428225208
0.16957446808510637 0.452989953549358 0.6561096842858025
0.1697872340425532 0.45481452946504025 0.6692734103114161
0.17 0.4574112418959017 0.6674196979038148
0.1702127659574468 0.4576811935102176 0.6527305187890869
0.17042553191489362 0.458137110918996 0.6299723102966552
0.17063829787234042 0.45915230640399357 0.6004742635417032
0.17085106382978724 0.46300523775850594 0.5776879591536508
0.17106382978723403 0.4636052760136786 0.5635783084919251
0.17127659574468085 0.468308776202041 0.5621045749318896
0.17148936170212767 0.47465208351783467 0.5700291060341917
0.17170212765957446 0.47239863214460187 0.5716332264621925
0.17191489361702128 0.47144778775663443 0.5638959054509377
0.17212765957446807 0.4728384441104562 0.5266590571583398
0.1723404255319149 0.46855925786044755 0.45010884621068836
0.1725531914893617 0.4648326918470201 0.3417933810279461
0.1727659574468085 0.4626295464366991 0.22137151225001528
0.17297872340425532 0.45846926116710335 0.12867333006356088
0.17319148936170212 0.45676599902296044 0.07999639398275704
0.17340425531914894 0.45449912476352955 0.07552551491091232
0.17361702127659576 0.4509037616023448 0.10153216342278137
0.17382978723404255 0.4533678824873335 0.13806226549851877
0.17404255319148937 0.4540768389723137 0.16467719221957738
0.17425531914893616 0.4572619146290093 0.17808395120369086
0.17446808510638298 0.45677447396683657 0.18024685079617547
0.17468085106382977 0.4598278342782352 0.17387869708344444
0.1748936170212766 0.46015457780475816 0.16945424598567668
0.1751063829787234 0.45833461458347774 0.1654288559634281
0.1753191489361702 0.45825249627477427 0.16263521262876104
0.17553191489361702 0.4574580249285736 0.16170004885197842
0.17574468085106382 0.4545046884747902 0.17074529104465921
0.17595744680851064 0.4538348803126526 0.19721054689554549
0.17617021276595746 0.4557603690255918 0.23172247311332692
0.17638297872340425 0.4557446828941807 0.2897949552041371
0.17659574468085107 0.46249739071265283 0.31883159882356693
0.17680851063829786 0.4596434095827347 0.3531968637748003
0.17702127659574468 0.4609043572201569 0.383518771369222
0.1772340425531915 0.4670712102195731 0.41185995361554434
0.1774468085106383 0.46551185812831614 0.43143086519267726
0.1776595744680851 0.4649012998432415 0.45491115163732126
0.1778723404255319 0.4670744530433013 0.47447999039925964
0.17808510638297873 0.46771994101022063 0.4820180151400521
0.17829787234042552 0.4665363947239862 0.4677384794941194
0.17851063829787234 0.46466078843416975 0.4480916425208716
0.17872340425531916 0.4688130977436112 0.43541463467579383
0.17893617021276595 0.46439754498512653 0.4428194905136373
0.17914893617021277 0.4635821432424373 0.4587663437056481
0.17936170212765956 0.46165119687347334 0.4630328308809202
0.17957446808510638 0.46165119687347334 0.46789735645213565
0.1797872340425532 0.4624179388162835 0.4839369855699337
0.18 0.46411264296888793 0.5160291770144886
0.1802127659574468 0.4639681739045054 0.5504222962991331
0.1804255319148936 0.46287778991760964 0.5787688993295896
0.18063829787234043 0.46262823644357587 0.6043427744917963
0.18085106382978725 0.4636004993273641 0.6188972474242157
0.18106382978723404 0.46599215100696434 0.6265777058777409
0.18127659574468086 0.4545721084608808 0.6124618653867774
0.18148936170212765 0.4527477783636672 0.5835474965386888
0.18170212765957447 0.44897215560032877 0.541049843140958
0.18191489361702126 0.446392081489592 0.48995396581932565
0.18212765957446808 0.4467472726235827 0.4512660748638274
0.1823404255319149 0.44186425414726066 0.42695998736271384
0.1825531914893617 0.4391773508375967 0.4235524614100235
0.1827659574468085 0.436874092661251 0.4303451976191751
0.1829787234042553 0.43381818078527934 0.44055656449815916
0.18319148936170213 0.4337919089665826 0.4559854087889987
0.18340425531914895 0.4352681055156082 0.47438294093576006
0.18361702127659574 0.4324397202418232 0.4989580563360536
0.18382978723404256 0.4335924141180984 0.5313527917915523
0.18404255319148935 0.4368900046781308 0.5743148384011539
0.18425531914893617 0.4352940446581905 0.6135391957003741
0.184468085106383 0.4379111767024323 0.6559986570440413
0.18468085106382978 0.4426314670477737 0.690082812614135
0.1848936170212766 0.4459838469228817 0.7052832054623187
0.1851063829787234 0.44793175855236084 0.7042615505154236
0.1853191489361702 0.4482584661112387 0.6874202240854632
0.185531914893617 0.44894968246213973 0.6563562172729402
0.18574468085106383 0.447200478211131 0.6212555263170322
0.18595744680851065 0.44894968246213973 0.5921988175620966
0.18617021276595744 0.44894968246213973 0.5722114707617907
0.18638297872340426 0.4486809032193084 0.5475543201599914
0.18659574468085105 0.44680643436588696 0.5051336567662527
0.18680851063829787 0.4450415241817294 0.44303129419672604
0.1870212765957447 0.4424923442939463 0.3732869301077061
0.18723404255319148 0.4357841242345732 0.31401389597379936
0.1874468085106383 0.43429408891060084 0.2784208660039325
0.1876595744680851 0.43813885651220374 0.26146901869035566
0.18787234042553191 0.4345114159828601 0.2706966233241421
0.18808510638297873 0.43624816805080613 0.30078178800391675
0.18829787234042553 0.43695977954624937 0.35216091207155986
0.18851063829787235 0.4396489913160893 0.4109887131284668
0.18872340425531914 0.4429512801152177 0.4678948460180225
0.18893617021276596 0.445525011703861 0.5174785186090743
0.18914893617021278 0.4451645322522988 0.5579809901241095
0.18936170212765957 0.45187662526299616 0.5847853261178337
0.1895744680851064 0.44967849995435566 0.5980802523124499
0.18978723404255318 0.4481958345917182 0.6016753198692032
0.19 0.44758838857335087 0.5972357060358762
0.1902127659574468 0.44643471704971677 0.5848818011225294
0.19042553191489361 0.4488906721820758 0.5651453134287914
0.19063829787234043 0.44539657655979803 0.5435437035122286
0.19085106382978723 0.44560742661447583 0.5214538237428819
0.19106382978723405 0.4460185637518319 0.5047864273864597
0.19127659574468084 0.4480605836319696 0.4818709266867103
0.19148936170212766 0.45026031390074556 0.4473061028414313
0.19170212765957448 0.4512974317427059 0.39976112006304837
0.19191489361702127 0.45282881281471404 0.3637676100243372
0.1921276595744681 0.4535381083248738 0.3454268498346483
0.19234042553191488 0.4522222835038026 0.3480679392581437
0.1925531914893617 0.4544291997919954 0.36774499547105755
0.19276595744680852 0.4566353524401325 0.3963798959486273
0.19297872340425531 0.4662906669113627 0.42550660446006927
0.19319148936170213 0.46187207662848745 0.4407234461925328
0.19340425531914893 0.4587200781631655 0.4393154250378711
0.19361702127659575 0.4587200781631655 0.41816052111279506
0.19382978723404254 0.45928520597946465 0.3828374373430481
0.19404255319148936 0.4638294131800367 0.35092582411106404
0.19425531914893618 0.4655593551538837 0.32710405815517984
0.19446808510638297 0.4608642941285015 0.310742446617938
0.1946808510638298 0.4637819333745591 0.3010633926548878
0.19489361702127658 0.46598445762080515 0.29708344662931696
0.1951063829787234 0.467513434294089 0.2931897972222908
0.19531914893617022 0.4693680169045748 0.2901061299231795
0.19553191489361701 0.47024051787851917 0.2839693261517523
0.19574468085106383 0.4709043280571804 0.27822638995284604
0.19595744680851063 0.47311484123864606 0.28389412801870045
0.19617021276595745 0.47044859987709764 0.3024170164647823
0.19638297872340427 0.47435271128480694 0.3278300701729214
0.19659574468085106 0.4740989947367034 0.35342676432595527
0.19680851063829788 0.47375257249905517 0.37606312783484375
0.19702127659574467 0.4718416576484032 0.387980545926334
0.1972340425531915 0.4707225010746732 0.39381432310684517
0.19744680851063828 0.46991933485884047 0.4027237946847914
0.1976595744680851 0.46684125635717616 0.4198650252445243
0.19787234042553192 0.46458964915637163 0.4361931662563778
0.19808510638297872 0.4659519062835888 0.4525403292354576
0.19829787234042554 0.4614081408180118 0.4682281564157043
0.19851063829787233 0.46104447921636854 0.48257080635229976
0.19872340425531915 0.46016409412741255 0.491996872589072
0.19893617021276597 0.4587200781631655 0.5064190588125093
0.19914893617021276 0.45946720257795926 0.5251583695702992
0.19936170212765958 0.4579516450153606 0.5430307089538124
0.19957446808510637 0.457743038593063 0.5606135064298432
0.1997872340425532 0.457743038593063 0.5720566682950659
0.2 0.45719020384942866 0.5720566682950659
0.2002127659574468 0.45618966398520466 0.5668475093745576
0.20042553191489362 0.45624078603228235 0.5404474862193195
0.20063829787234042 0.45448332983104034 0.4948050628691458
0.20085106382978724 0.45227400773703336 0.4427540068905586
0.20106382978723403 0.45006470945266885 0.4033515359641519
0.20127659574468085 0.4478640567135812 0.3828908072837584
0.20148936170212767 0.44455598592982687 0.37274059599413767
0.20170212765957446 0.43762113817883036 0.37303115050022817
0.20191489361702128 0.4358771214990288 0.374459728667795
0.20212765957446807 0.4342809965037155 0.3751766487159515
0.2023404255319149 0.4333170493404983 0.3814496355357452
0.2025531914893617 0.4311353282991337 0.39344175422380806
0.2027659574468085 0.4320775406047807 0.41056823046061625
0.20297872340425532 0.4323400097703958 0.4263826601194057
0.20319148936170212 0.43367182297648 0.4371942310800906
0.20340425531914894 0.4355225770105322 0.4435807572514442
0.20361702127659576 0.4344200102712592 0.4428457127585955
0.20382978723404255 0.4367369499976549 0.4372215373557441
0.20404255319148937 0.4366166681848499 0.4279517728859552
0.20425531914893616 0.43698572520763285 0.4331157867612209
0.20446808510638298 0.43722520762090866 0.44652186384133696
0.20468085106382977 0.43821435740030057 0.46601954310687904
0.2048936170212766 0.438633645541585 0.5043237824763684
0.2051063829787234 0.4352711284807034 0.5188777435130377
0.2053191489361702 0.4348813958930312 0.5407643210425623
0.20553191489361702 0.43429408891060084 0.5559620557974104
0.20574468085106382 0.43492817242072446 0.5576922021936719
0.20595744680851064 0.4322627324371238 0.5613865103572093
0.20617021276595746 0.4348657093301519 0.5587835334641812
0.20638297872340425 0.43431817345766466 0.5563517815322329
0.20659574468085107 0.43572608181708733 0.5518247542297089
0.20680851063829786 0.4382022471910112 0.5410698038124065
0.20702127659574468 0.4365803771778787 0.5352613737582401
0.2072340425531915 0.4358903131019428 0.5319109360300677
0.2074468085106383 0.4365685305207496 0.5310210063507572
0.2076595744680851 0.4378155166372534 0.5357230521100992
0.2078723404255319 0.4382022471910112 0.5368832437713726
0.20808510638297872 0.4404049351959961 0.5451967780617526
0.20829787234042554 0.44444079305719136 0.5536448022297078
0.20851063829787234 0.44728377012625836 0.5596433206880562
0.20872340425531916 0.450814691127589 0.56495017988008
0.20893617021276595 0.45359757454619515 0.5698652833884033
0.20914893617021277 0.45481191988275516 0.5746276763475047
0.20936170212765956 0.45481191988275516 0.5842884385367709
0.20957446808510638 0.4581289401182699 0.5907107526297741
0.2097872340425532 0.4596035117726993 0.5951311941352522
0.21 0.45969711773326827 0.593464985152204
0.2102127659574468 0.45957447183748984 0.5821826188950536
0.2104255319148936 0.4582410335017594 0.5570546818131524
0.21063829787234042 0.4549799330483888 0.5227839160040801
0.21085106382978724 0.4542629272075932 0.48169996055245595
0.21106382978723404 0.45676599902296044 0.4298141274785104
0.21127659574468086 0.4524696447160333 0.3740651471003105
0.21148936170212765 0.454267321891429 0.3290622984066069
0.21170212765957447 0.4528744684618236 0.2987017490168967
0.2119148936170213 0.44992672203224227 0.27975372408767235
0.21212765957446808 0.44992672203224227 0.26802993295036126
0.2123404255319149 0.44776302476576896 0.2540995717591881
0.2125531914893617 0.44406448461162684 0.24380161769927888
0.2127659574468085 0.4458824049792008 0.23720441329514017
0.2129787234042553 0.4433446700427141 0.2357082032655167
0.21319148936170212 0.44211040547142155 0.23936610932886934
0.21340425531914894 0.4421096649316379 0.25355657923729474
0.21361702127659574 0.44173721268217897 0.27586025503562955
0.21382978723404256 0.4466974892285329 0.3014384907541086
0.21404255319148935 0.4499928328773193 0.32930270210013696
0.21425531914893617 0.452826211806419 0.35480596543484927
0.214468085106383 0.45503120904942373 0.3742756201608169
0.21468085106382978 0.4565133658225916 0.3897215621611286
0.2148936170212766 0.46146191994936026 0.3932584269662922
0.2151063829787234 0.46493168842898913 0.39479406162323427
0.2153191489361702 0.4655593551538837 0.3952125061064973
0.21553191489361703 0.46648195803644077 0.39152209457626885
0.21574468085106382 0.4661801604231724 0.3801294313939818
0.21595744680851064 0.46145850917746967 0.37411661204633195
0.21617021276595744 0.4603577950900449 0.3730290052773389
0.21638297872340426 0.4592577931022249 0.3791863117527917
0.21659574468085105 0.4604061686990202 0.38798427269421193
0.21680851063829787 0.46165119687347334 0.3878674133519161
0.2170212765957447 0.46246514710294284 0.3823493988282262
0.21723404255319148 0.46451137115583 0.36929357649540984
0.2174468085106383 0.46485981576356744 0.3639472398632144
0.2176595744680851 0.46708753576167755 0.36650263105768277
0.2178723404255319 0.4652459173452718 0.3813135952594599
0.21808510638297873 0.46458231558378116 0.40195130107563987
0.21829787234042553 0.46346088337598174 0.42569568875803654
0.21851063829787234 0.46262823644357587 0.45515109429117423
0.21872340425531914 0.46262823644357587 0.47901899217215593
0.21893617021276596 0.4607565474185138 0.5083726741964986
0.21914893617021278 0.46522000433266614 0.5305091682007265
0.21936170212765957 0.46206995088316133 0.5498641399991758
0.2195744680851064 0.46393798110212686 0.5708733778079684
0.21978723404255318 0.46458231558378116 0.5866965869501494
0.22 0.4651349361630475 0.5964428433220851
0.2202127659574468 0.4655593551538837 0.6014399260558153
0.2204255319148936 0.46396342976077515 0.6015469322716919
0.22063829787234043 0.4617701532446206 0.5958624870909699
0.22085106382978723 0.4594493531107164 0.5868840663934137
0.22106382978723405 0.45466727863198675 0.5716227445427603
0.22127659574468084 0.4483622370585024 0.5527076198223075
0.22148936170212766 0.44460318887026806 0.536170451520068
0.22170212765957448 0.44126155024094316 0.5213628451508088
0.22191489361702127 0.43917928676111373 0.5122560806917948
0.2221276595744681 0.4367346405998528 0.5170222318086324
0.22234042553191488 0.4353052007672503 0.5371788376105363
0.2225531914893617 0.4333170493404983 0.5585033967065898
0.22276595744680852 0.4333170493404983 0.571751281003274
0.2229787234042553 0.43435132606657806 0.5825738189694556
0.22319148936170213 0.43624816805080613 0.588099939427925
0.22340425531914893 0.4386389647130331 0.5906204201270151
0.22361702127659575 0.4394288530579746 0.5978951528594328
0.22382978723404254 0.44174225858523314 0.6260205340692347
0.22404255319148936 0.4411317538552176 0.6688609639480907
0.22425531914893618 0.4401563263312165 0.7210086923360293
0.22446808510638297 0.4404089898735804 0.7650550439424656
0.2246808510638298 0.441133365901319 0.7980274200217543
0.22489361702127658 0.441634696160191 0.8094004209870708
0.2251063829787234 0.44335868498880515 0.7865736928415507
0.22531914893617022 0.442565762998546 0.7243243640316587
0.225531914893617 0.44560483690043245 0.6171133830978922
0.22574468085106383 0.43713460765972056 0.4594465978178965
0.22595744680851063 0.4310484456722377 0.3139317116236036
0.22617021276595745 0.4220574810791739 0.17476431713605822
0.22638297872340427 0.41418156207708184 0.06290741284101961
0.22659574468085106 0.4118541801303987 0.006414759869981516
0.22680851063829788 0.4103904210935769 0.010277420458367829
0.22702127659574467 0.4092487431546629 0.054914706820539755
0.2272340425531915 0.4049829018075233 0.12594251755515676
0.22744680851063828 0.4037568630448927 0.19616311240190124
0.2276595744680851 0.40745227535016393 0.25891666017734893
0.22787234042553192 0.4123390646805351 0.3186535822736911
0.22808510638297871 0.4186483891827296 0.3732632602433304
0.22829787234042553 0.4184526734823368 0.41630367950187397
0.22851063829787233 0.42533069089901043 0.45340957525563264
0.22872340425531915 0.4319121119480028 0.48350979919168063
0.22893617021276597 0.43631928359394034 0.5038772450172876
0.22914893617021276 0.4394653709659647 0.5133155071333606
0.22936170212765958 0.44318479554949836 0.5184168424473977
0.22957446808510637 0.44584094667996615 0.5184083004753565
0.2297872340425532 0.4470246544741644 0.5122248453009682
0.23 0.44812414612049833 0.5032774089018369
0.2302127659574468 0.4494712758613949 0.4950651917281812
0.23042553191489362 0.45051966455640574 0.49061188084112173
0.23063829787234041 0.4535061276913613 0.4763160087187837
0.23085106382978723 0.4529387264779487 0.4550545770889512
0.23106382978723405 0.4539658283364864 0.434404865474967
0.23127659574468085 0.457482448658788 0.41703328675002654
0.23148936170212767 0.457743038593063 0.3979140362010385
0.23170212765957446 0.45724492388850574 0.39062100504766545
0.23191489361702128 0.45481191988275516 0.37985131450933857
0.23212765957446807 0.45481191988275516 0.36948639809217537
0.2323404255319149 0.45481191988275516 0.3639472398632144
0.2325531914893617 0.45548908295038215 0.3693645444042295
0.2327659574468085 0.45659466477170146 0.38143202025015843
0.23297872340425532 0.459574365969433 0.40127435525959226
0.23319148936170211 0.45986978348821866 0.42136515290856613
0.23340425531914893 0.46165119687347334 0.44308044357434767
0.23361702127659575 0.4619969366017686 0.45849469766443685
0.23382978723404255 0.46262823644357587 0.46343728838248227
0.23404255319148937 0.4647855686992308 0.46933468660127986
0.23425531914893616 0.4698548177876161 0.484344955173669
0.23446808510638298 0.4682561756590932 0.5137259712719943
0.2346808510638298 0.4721119245895758 0.5340117004550842
0.2348936170212766 0.47435271128480694 0.5448339186767478
0.2351063829787234 0.4749408045204656 0.5294434102543486
0.2353191489361702 0.4756757575891622 0.5021533949941803
0.23553191489361702 0.4737496537826261 0.45702631574726243
0.23574468085106381 0.4724410499496371 0.3975907632970551
0.23595744680851063 0.4753792432432353 0.33814827193394104
0.23617021276595745 0.47228432624399963 0.29124805416184274
0.23638297872340425 0.4723805947628311 0.267563032676702
0.23659574468085107 0.4712015179095504 0.25983085876996775
0.23680851063829786 0.4687441072526928 0.2538078998247574
0.23702127659574468 0.46727902119747994 0.2471713176441217
0.2372340425531915 0.4679895880547466 0.24474841231069866
0.2374468085106383 0.4700271046379535 0.24914733541246142
0.2376595744680851 0.46990632997991627 0.25689110838245705
0.2378723404255319 0.4650599477059495 0.2619530188748105
0.23808510638297872 0.46455150915336757 0.26636650857461
0.23829787234042554 0.4642414017162821 0.27253691251812884
0.23851063829787233 0.46636737774493275 0.290823831567975
0.23872340425531915 0.4627800565118919 0.3148148899276057
0.23893617021276595 0.4611130363079425 0.3390981476455669
0.23914893617021277 0.458674943030394 0.35564505907582117
0.23936170212765956 0.457743038593063 0.36940266865120847
0.23957446808510638 0.457743038593063 0.3809764563239344
0.2397872340425532 0.4538348803126526 0.3991258743767211
0.24 0.4538348803126526 0.4138166953951124
0.2402127659574468 0.4541619432928999 0.4251902672819872
0.2404255319148936 0.4552667863323007 0.43552407491721407
0.24063829787234042 0.4575327238298397 0.44266681551507764
0.24085106382978724 0.45801203541840646 0.44645760967124754
0.24106382978723404 0.4552336056529452 0.46205220096264116
0.24127659574468086 0.4538434752209456 0.48782498746721137
0.24148936170212765 0.4494303987306265 0.5191107979912339
0.24170212765957447 0.4460185637518319 0.5502265977847345
0.2419148936170213 0.445358207298331 0.572454322072561
0.24212765957446808 0.44406448461162684 0.5869102064420313
0.2423404255319149 0.44406448461162684 0.5933525982417025
0.2425531914893617 0.4433505247793775 0.5931006587429271
0.2427659574468085 0.4447755481599494 0.579913725879031
0.2429787234042553 0.4421161492046495 0.5710930307691618
0.24319148936170212 0.44381713037698584 0.5559293267041425
0.24340425531914894 0.4416056460550574 0.5535253957257423
0.24361702127659574 0.438257351813319 0.5609815740163783
0.24382978723404256 0.4357775769066647 0.5762516848300349
0.24404255319148935 0.4349822566632976 0.5913766114613478
0.24425531914893617 0.43125207607958077 0.6046316564705883
0.244468085106383 0.42861496378452935 0.6205123441612184
0.24468085106382978 0.4284318514899854 0.6259703793794456
0.2448936170212766 0.42780754952136957 0.6294710251811684
0.2451063829787234 0.42423914985384104 0.6157011812440156
0.2453191489361702 0.42437608217477446 0.6055993545849051
0.24553191489361703 0.42495859605582886 0.5939924090194506
0.24574468085106382 0.42452369320957506 0.5816508378538867
0.24595744680851064 0.42611025806241354 0.5683995165986501
0.24617021276595744 0.42370579927608804 0.5541825475551184
0.24638297872340426 0.4246817849919772 0.5445414685497912
0.24659574468085105 0.4264777723497801 0.5431632376897427
0.24680851063829787 0.4274896970545088 0.545711485036922
0.2470212765957447 0.43264305509101325 0.5480927024754905
0.24723404255319148 0.4350709505945032 0.5486077186126037
0.2474468085106383 0.43429408891060084 0.5478906359483895
0.2476595744680851 0.4368270408775926 0.5434090924308485
0.2478723404255319 0.43819506813940967 0.5378961785994831
0.24808510638297873 0.43868473894443266 0.5237112936698772
0.24829787234042552 0.44260217428531684 0.5122048720541723
0.24851063829787234 0.44480605651081156 0.5070659524400282
0.24872340425531914 0.4460185637518319 0.5051383535823205
0.24893617021276596 0.4460185637518319 0.5087442714071426
0.24914893617021278 0.449801195699357 0.5195814920526632
0.24936170212765957 0.4491269295261739 0.531111810600689
0.2495744680851064 0.45184094085888543 0.5582780016418933
0.24978723404255318 0.4512631194474311 0.5816510220981121
0.25 0.4543141107484477 0.6063997749739917
0.2502127659574468 0.4561500649568396 0.6244134248981696
0.25042553191489364 0.4577376502352427 0.6306682657855808
0.25063829787234043 0.4587200781631655 0.6344707187378813
0.2508510638297872 0.46241709025233274 0.6363036427695677
0.251063829787234 0.4627408169355981 0.6322189845314351
0.25127659574468086 0.47047017164676647 0.6204987485222773
0.25148936170212766 0.47322862139084226 0.5857700974077905
0.25170212765957445 0.4790499668741121 0.5462412939798453
0.2519148936170213 0.4780921670828331 0.47285107983812114
0.2521276595744681 0.47234589649299175 0.3821447021645237
0.2523404255319149 0.4682140024078079 0.2850217428170874
0.2525531914893617 0.464996594288238 0.19159412949827187
0.2527659574468085 0.4591852072204794 0.11593288932754431
0.2529787234042553 0.45450902781990665 0.06900013508426445
0.2531914893617021 0.4482317397708751 0.05396659926185581
0.25340425531914895 0.44411168498509834 0.06459552842404968
0.25361702127659574 0.44254984686563487 0.09334956496565003
0.25382978723404254 0.4436526284709529 0.1321124326730156
0.2540425531914894 0.4468304078827509 0.17458332469854249
0.2542553191489362 0.4496113108315929 0.20809034968822143
0.25446808510638297 0.4527743678459303 0.23054119665067013
0.25468085106382976 0.45620715030405545 0.23986321446018555
0.2548936170212766 0.46016512216718575 0.24243723884673174
0.2551063829787234 0.4623701651343169 0.25815981647017083
0.2553191489361702 0.4631191080780184 0.28425501496629146
0.25553191489361704 0.4638489202177835 0.3145981219351441
0.25574468085106383 0.46458231558378116 0.34255197978263496
0.2559574468085106 0.4637147177006059 0.3656665644050786
0.2561702127659574 0.46560516336948393 0.3795569688770557
0.25638297872340426 0.46781246798444387 0.3786028334147533
0.25659574468085106 0.469190168474238 0.3780481434946411
0.25680851063829785 0.467675705041137 0.37542660103996633
0.2570212765957447 0.46921864926639134 0.37264473374727836
0.2572340425531915 0.474081333002088 0.37043368621024086
0.2574468085106383 0.4697802588557561 0.3745661847116759
0.25765957446808513 0.4712498376005729 0.37843107844082685
0.2578723404255319 0.4664739667496298 0.39157586774311276
0.2580851063829787 0.4646317828948529 0.4139494175977717
0.2582978723404255 0.4603606154813299 0.43794734846315303
0.25851063829787235 0.457939763888094 0.46022823193702544
0.25872340425531914 0.4557889594528579 0.48174480660729113
0.25893617021276594 0.45302060102390657 0.49482997165711323
0.2591489361702128 0.4526991232430593 0.5090994524563435
0.2593617021276596 0.4481329452238993 0.509590256741245
0.25957446808510637 0.4531476350802581 0.5096243136988422
0.2597872340425532 0.44859361798601144 0.5109597509969106
0.26 0.4531229483874556 0.512457254518808
0.2602127659574468 0.4523663786283494 0.512457254518808
0.2604255319148936 0.45714323520989736 0.5075596608418397
0.26063829787234044 0.45524885913811586 0.4920375386050557
0.26085106382978723 0.45296266559713244 0.4723314003868788
0.261063829787234 0.44994908778881376 0.44845763581756654
0.2612765957446809 0.45029927811145004 0.42367679010179055
0.26148936170212767 0.4464335453993178 0.3996564751316178
0.26170212765957446 0.44382158305105107 0.38601793625981434
0.26191489361702125 0.44211040547142155 0.38179424233318815
0.2621276595744681 0.44145681547893917 0.3994976406624644
0.2623404255319149 0.441133365901319 0.4279161316894109
0.2625531914893617 0.44022927732420464 0.4577274409225873
0.26276595744680853 0.4410757409865212 0.4784363282910715
0.2629787234042553 0.4401563263312165 0.5002799023454153
0.2631914893617021 0.4407772016147607 0.5197345002139254
0.26340425531914896 0.44211040547142155 0.5361043149759044
0.26361702127659575 0.44437782501349193 0.5549029482715101
0.26382978723404255 0.4425520258071636 0.5796189623173819
0.26404255319148934 0.441133365901319 0.6006317694640645
0.2642553191489362 0.43829421045332145 0.6250887929729962
0.264468085106383 0.43839982989737064 0.6479032112354328
0.26468085106382977 0.4401563263312165 0.6756933270881877
0.2648936170212766 0.4408629326025457 0.6968254761813247
0.2651063829787234 0.44211040547142155 0.7058999802473542
0.2653191489361702 0.4470028316946619 0.7056650224134131
0.265531914893617 0.44476154751251346 0.6931279366410665
0.26574468085106384 0.4439468112319451 0.6738328252798008
0.26595744680851063 0.4450415241817294 0.6609526471770695
0.2661702127659574 0.4452994575637656 0.657500704925088
0.2663829787234043 0.44699560332193444 0.6690989456459107
0.26659574468085107 0.44737472794010574 0.6752437381077692
0.26680851063829786 0.44898651569959214 0.6685625863105079
0.2670212765957447 0.4461263888690619 0.6483534045224151
0.2672340425531915 0.4394999383783143 0.6229520109745494
0.2674468085106383 0.43642559961512034 0.5984344047550875
0.2676595744680851 0.43624816805080613 0.5793605975096084
0.26787234042553193 0.4359193497382188 0.5645503393115138
0.2680851063829787 0.4366281388637359 0.5517559352671543
0.2682978723404255 0.4408573321277202 0.5374498731352462
0.26851063829787236 0.44354316334658117 0.5280657243323115
0.26872340425531915 0.44161686703100755 0.5167859669600146
0.26893617021276595 0.43917928676111373 0.505449204035724
0.26914893617021274 0.44102911180208476 0.4888652980601173
0.2693617021276596 0.44128384248241304 0.455483773462636
0.2695744680851064 0.44229123970353307 0.3878644870407159
0.26978723404255317 0.43950323322763934 0.28921074505919714
0.27 0.43837094944995014 0.18860739484268657
0.2702127659574468 0.43624816805080613 0.11469390302660566
0.2704255319148936 0.4355465188961042 0.08067759416016446
0.27063829787234045 0.43776413243829637 0.08403057987492717
0.27085106382978724 0.4391596496017723 0.11229822988528895
0.27106382978723403 0.4418872692617131 0.15775321432358846
0.2712765957446808 0.4484478150158048 0.2082776043460936
0.2714893617021277 0.4521257130523673 0.2598973068881794
0.27170212765957447 0.45529684033171436 0.31087495076114
0.27191489361702126 0.45666717438689897 0.35999119765010207
0.2721276595744681 0.457743038593063 0.40151307212664544
0.2723404255319149 0.45948564493489613 0.4307793757600331
0.2725531914893617 0.4588506010216836 0.4501442601297725
0.2727659574468085 0.46458231558378116 0.4599921337916198
0.27297872340425533 0.46512782247152673 0.46165119687347334
0.2731914893617021 0.46693763120393794 0.46165119687347334
0.2734042553191489 0.46645022391479635 0.46430922282170467
0.27361702127659576 0.4708461540955088 0.4592670461792518
0.27382978723404255 0.4718079123594877 0.4471662829991657
0.27404255319148935 0.47233264181214196 0.4322868348547319
0.2742553191489362 0.4704445530043966 0.4216134465914786
0.274468085106383 0.47162606280434044 0.4053465306881021
0.2746808510638298 0.47500631598977217 0.3815507895617864
0.27489361702127657 0.4742126833988774 0.34475967380739175
0.2751063829787234 0.4768922478942175 0.3067164755137455
0.2753191489361702 0.47800125073802413 0.28166385701356095
0.275531914893617 0.4799583724940298 0.26935195494442826
0.27574468085106385 0.47631750166951253 0.2672310336675584
0.27595744680851064 0.4782608695652173 0.27000052540820496
0.27617021276595743 0.4790673710526232 0.2726171345216611
0.2763829787234042 0.47917922296715404 0.2646330706062586
0.2765957446808511 0.47587663600015434 0.2636255878471189
0.27680851063829787 0.4753297508549097 0.26646555175917574
0.27702127659574466 0.4743677013770848 0.2715645351655477
0.2772340425531915 0.4733756717147044 0.2852067907886639
0.2774468085106383 0.47265692833564765 0.3124898696682706
0.2776595744680851 0.4707180523148421 0.35023089614427194
0.27787234042553194 0.469496662275953 0.3978089665122555
0.27808510638297873 0.4664418002554355 0.44081979742583477
0.2782978723404255 0.46423717765168526 0.48272650213206375
0.2785106382978723 0.45934737720121105 0.5195242471860203
0.27872340425531916 0.45919699294449834 0.5468288241570488
0.27893617021276595 0.45789728346129416 0.5723310886003284
0.27914893617021275 0.4560438088270718 0.585650506422996
0.2793617021276596 0.4557889594528579 0.5868446207498351
0.2795744680851064 0.45384261654328717 0.5682220042056837
0.2797872340425532 0.4576207336032196 0.5501948827832788
0.27999999999999997 0.45676599902296044 0.5451115430097581
0.2802127659574468 0.45791421163263407 0.5374775458049175
0.2804255319148936 0.45867215355121826 0.5358582795893228
0.2806382978723404 0.4571006378616298 0.5330019624368679
0.28085106382978725 0.4559936585297882 0.5319980459208598
0.28106382978723404 0.45218894177503993 0.5373980724375869
0.28127659574468084 0.4467033134836784 0.5510976624562783
0.2814893617021277 0.4404387574385676 0.5626984499494404
0.2817021276595745 0.4366688311099653 0.5688473613292866
0.28191489361702127 0.4349224830757422 0.5646620559650435
0.28212765957446806 0.43429408891060084 0.5513127280359919
0.2823404255319149 0.43429408891060084 0.525815464307941
0.2825531914893617 0.43140270443256956 0.5014001035078725
0.2827659574468085 0.42953790376611484 0.4798640841156531
0.28297872340425534 0.42843289370141535 0.47337984056042415
0.28319148936170213 0.4295355621463863 0.48368908088120743
0.2834042553191489 0.4303859306301905 0.49844046487026306
0.2836170212765957 0.43114321557928426 0.5190530644396429
0.28382978723404256 0.4343543934017224 0.5375677531525687
0.28404255319148936 0.43624816805080613 0.5525026268899242
0.28425531914893615 0.43700140354611344 0.5649334296966005
0.284468085106383 0.43986860230614916 0.5742205229385274
0.2846808510638298 0.43917928676111373 0.5739034926110628
0.2848936170212766 0.43948514392957894 0.5708672320760237
0.2851063829787234 0.4408533950611696 0.5702282827228337
0.2853191489361702 0.4425960832994793 0.5539052265384812
0.285531914893617 0.4470728450973526 0.5370878655872944
0.2857446808510638 0.4441186762524353 0.5190972988147119
0.28595744680851065 0.44211040547142155 0.5105973832803766
0.28617021276595744 0.44033586490166476 0.5113006763782572
0.28638297872340424 0.4393353197430547 0.5183585001849088
0.2865957446808511 0.4430874450415241 0.5194630761020882
0.2868085106382979 0.44250403253288717 0.5205652773339472
0.28702127659574467 0.441975676415479 0.5225140764209713
0.28723404255319146 0.4414449455356627 0.5252767290306134
0.2874468085106383 0.4401563263312165 0.5274814122029677
0.2876595744680851 0.4385562085326713 0.5256897109426317
0.2878723404255319 0.4382022471910112 0.5233002008799684
0.28808510638297874 0.43926019402939365 0.5224703720246737
0.28829787234042553 0.4405657862563532 0.5247493090050049
0.2885106382978723 0.44244056656501884 0.5238650119771311
0.28872340425531917 0.4430874450415241 0.5260725830631076
0.28893617021276596 0.4419157051333439 0.5300421978407974
0.28914893617021276 0.441133365901319 0.5319980459208598
0.28936170212765955 0.44280825234751164 0.5303231594746671
0.2895744680851064 0.43828259142199705 0.5281220253328437
0.2897872340425532 0.43917928676111373 0.5181037667416742
0.29 0.43917928676111373 0.5028410973559299
0.2902127659574468 0.4398856726528818 0.47610524437373647
0.2904255319148936 0.44065291640481025 0.4351457716800641
0.2906382978723404 0.4395491474753133 0.38365463328499727
0.2908510638297872 0.44065080140012575 0.33058496766713397
0.29106382978723405 0.4437295154709546 0.28698424161298974
0.29127659574468084 0.44609771656023217 0.26150056005756306
0.29148936170212764 0.45206266427623126 0.273048697818082
0.2917021276595745 0.4581719568683787 0.2995584158415808
0.2919148936170213 0.4579650044162056 0.3420514010289572
0.29212765957446807 0.460223491832219 0.3874069484326025
0.2923404255319149 0.4626372970185036 0.4219967793386735
0.2925531914893617 0.4636052760136786 0.43741043537438645
0.2927659574468085 0.4726834841562845 0.43917928676111373
0.2929787234042553 0.46921838710557784 0.4260846171119434
0.29319148936170214 0.465749694212512 0.4000594305601481
0.29340425531914893 0.46526272687688636 0.3667560397747463
0.2936170212765957 0.46352038230632847 0.3420695857023053
0.29382978723404257 0.4657279357085722 0.330626382323368
0.29404255319148936 0.468621963246186 0.33127272330641816
0.29425531914893616 0.46622673503958545 0.34321450340273446
0.29446808510638295 0.4636976335604557 0.3518995136082636
0.2946808510638298 0.4637635437213435 0.3357745261564115
0.2948936170212766 0.4663882303741916 0.293779667028031
0.2951063829787234 0.4681266882723457 0.2344064305824996
0.29531914893617023 0.4655593551538837 0.17320574105429354
0.295531914893617 0.4661527790660476 0.12191084273533069
0.2957446808510638 0.4665363947239862 0.08407785387133508
0.29595744680851066 0.4665363947239862 0.07074952837439252
0.29617021276595745 0.46751070004706596 0.09324165701624515
0.29638297872340424 0.47275502258529356 0.14642766864078482
0.29659574468085104 0.467980818235354 0.21271506955720607
0.2968085106382979 0.4673054953852894 0.28576136725534407
0.2970212765957447 0.46900651932921644 0.35376420310050805
0.29723404255319147 0.4714016383194735 0.41117057944278623
0.2974468085106383 0.47007263054452936 0.4553668311207521
0.2976595744680851 0.46946751343429405 0.48336649909244156
0.2978723404255319 0.4685334957638976 0.5029449902160187
0.29808510638297875 0.46929969006162053 0.5095560364744386
0.29829787234042554 0.4684904738641915 0.5135308799663841
0.29851063829787233 0.4659640694887825 0.5127434171364099
0.2987234042553191 0.46317435005546054 0.5116807655995904
0.298936170212766 0.46091364267304885 0.5068345024678704
0.29914893617021276 0.45969711773326827 0.5040168548625884
0.29936170212765956 0.45784668549835084 0.49811260168313265
0.2995744680851064 0.45836376474555607 0.48326960852615497
0.2997872340425532 0.4635249565814054 0.4709343934277304
0.3 0.4554611149892763 0.4583727522376577
0.3002127659574468 0.45481191988275516 0.45415319336880766
0.30042553191489363 0.45365236199070613 0.46140423059115676
0.3006382978723404 0.4514389994603582 0.472385942635836
0.3008510638297872 0.4509037616023448 0.4987477924473906
0.30106382978723406 0.4470564625208326 0.519037879914209
0.30127659574468085 0.441133365901319 0.5395602648028915
0.30148936170212765 0.44089018953028275 0.5530022296350867
0.3017021276595745 0.4401563263312165 0.5563203570538721
0.3019148936170213 0.43768930524021915 0.5637957918475273
0.3021276595744681 0.4358886541229363 0.5786464459326137
0.30234042553191487 0.43848274699934 0.5989105160471148
0.3025531914893617 0.4348152702555043 0.6172867873562989
0.3027659574468085 0.4314282503603008 0.628746723414352
0.3029787234042553 0.43399718235987733 0.6276236570760542
0.30319148936170215 0.4337298418444014 0.610742087068461
0.30340425531914894 0.4360059215629128 0.5905504094557568
0.30361702127659573 0.43322764127754804 0.5707187719119868
0.3038297872340425 0.4323400097703958 0.5550351906057573
0.3040425531914894 0.4331228208495883 0.5460591597685636
0.30425531914893617 0.4333170493404983 0.5383463420432624
0.30446808510638296 0.43423827605906795 0.5394512642784399
0.3046808510638298 0.43368351132324334 0.5521499920619221
0.3048936170212766 0.43371033610504006 0.567633530816
0.3051063829787234 0.43345773576539426 0.5861572815511902
0.30531914893617024 0.43553485600475017 0.6092921584308425
0.30553191489361703 0.4349809801060497 0.6241595488489278
0.3057446808510638 0.4352711284807034 0.6283907091273713
0.3059574468085106 0.4380754623903788 0.6221815175717735
0.30617021276595746 0.44179521662402477 0.6110909269152326
0.30638297872340425 0.4382022471910112 0.5965088856261455
0.30659574468085105 0.4382022471910112 0.5830513010290723
0.3068085106382979 0.4382022471910112 0.571364609444932
0.3070212765957447 0.4388529894760308 0.560337750309274
0.3072340425531915 0.43362847635149276 0.5455064810086248
0.30744680851063827 0.43140364324947467 0.5202726846898854
0.3076595744680851 0.4370128695189773 0.4923926721068908
0.3078723404255319 0.42744008614873324 0.4649112486604162
0.3080851063829787 0.4299998809385967 0.4398655993685677
0.30829787234042555 0.4357637561478566 0.42268866310405623
0.30851063829787234 0.4357427684102508 0.4193352804753429
0.30872340425531913 0.43740686228709796 0.42209238312702185
0.308936170212766 0.4391628934860063 0.4283334918393407
0.3091489361702128 0.4422358213738005 0.43614903979735625
0.30936170212765957 0.4436238218390838 0.44318315906654093
0.30957446808510636 0.4442160661929788 0.44890766671245874
0.3097872340425532 0.4436352438897645 0.45888362807319333
0.31 0.4447369093818522 0.4689846741754816
0.3102127659574468 0.4474329229280851 0.4738129913208549
0.31042553191489364 0.44889394034886887 0.4688249265438166
0.31063829787234043 0.4471362703792941 0.45926748672977435
0.3108510638297872 0.4499489248326796 0.4359373055745114
0.311063829787234 0.45481277106823487 0.4075812474487995
0.31127659574468086 0.4590254372855604 0.38091093181812713
0.31148936170212765 0.46165119687347334 0.35785595881421345
0.31170212765957445 0.462355533820934 0.3354776099851039
0.3119148936170213 0.4634603724167291 0.3106117275271022
0.3121276595744681 0.4626433139065811 0.2851538163340252
0.3123404255319149 0.46488660490221917 0.2672682758502139
0.3125531914893617 0.45993834938917744 0.2499111806565183
0.3127659574468085 0.4606741573033708 0.23996609062519234
0.3129787234042553 0.46017770366862143 0.24040727119312352
0.3131914893617021 0.4615715640642667 0.25251878895192237
0.31340425531914895 0.4603722471664694 0.2732418516617782
0.31361702127659574 0.46233132113587183 0.30079752051675235
0.31382978723404253 0.4616591018089987 0.32372261384297507
0.3140425531914894 0.4655593551538837 0.34761021748215215
0.3142553191489362 0.46629357437984864 0.3690867744449691
0.31446808510638297 0.4703418869740687 0.39187072327487754
0.31468085106382976 0.4728782767824769 0.4109693912886057
0.3148936170212766 0.4742708151298366 0.42454908716471734
0.3151063829787234 0.4760805571974368 0.43443830223020274
0.3153191489361702 0.4736710172725827 0.4380053501524257
0.31553191489361704 0.4763351851408894 0.429124943901316
0.31574468085106383 0.47681288391232707 0.41696980088993174
0.3159574468085106 0.47435271128480694 0.3973916051744774
0.31617021276595747 0.4739445608341639 0.37654947360433416
0.31638297872340426 0.47390927890824563 0.36154228663810983
0.31659574468085105 0.471059852376065 0.3564493910907479
0.31680851063829785 0.47339635648600936 0.3577024605230799
0.3170212765957447 0.47069463147111273 0.3562559625357518
0.3172340425531915 0.4712298074398278 0.3495654737213159
0.3174468085106383 0.4688824044454924 0.3391293200293488
0.3176595744680851 0.4704445530043966 0.33950943605559336
0.3178723404255319 0.47088966624973927 0.3536670135339401
0.3180851063829787 0.4725563850505978 0.38576018733514417
0.3182978723404255 0.46991926189526856 0.42844026447638434
0.31851063829787235 0.4734043670039691 0.4770105248795488
0.31872340425531914 0.4677282206334956 0.5267091183156924
0.31893617021276593 0.4666323601241689 0.5814696255224401
0.3191489361702128 0.46661910822647107 0.6218947229011338
0.3193617021276596 0.4636052760136786 0.6601283394427718
0.31957446808510637 0.46454430176949635 0.6922838963384602
0.3197872340425532 0.4661536224609472 0.7098996833295512
0.32 0.46364767287096004 0.7057834208641194
0.3202127659574468 0.46432350199427314 0.6783986202037038
0.3204255319148936 0.46458231558378116 0.6346074755567528
0.32063829787234044 0.4593150318727187 0.5735903930755474
0.32085106382978723 0.4560059064309917 0.5112237380773818
0.321063829787234 0.45345659924661097 0.4525075392724154
0.32127659574468087 0.4478460326176263 0.4000164775072129
0.32148936170212766 0.43807901204197464 0.36232542616621755
0.32170212765957445 0.43382589483812295 0.35681288869853733
0.32191489361702125 0.4324856735849979 0.37803802057461017
0.3221276595744681 0.4294702472544658 0.40449205225250057
0.3223404255319149 0.4284318514899854 0.4189700280875132
0.3225531914893617 0.42865664315849716 0.4202438244881966
0.3227659574468085 0.42905802991290654 0.41397603134274447
0.3229787234042553 0.4293851743807667 0.40750850911040404
0.3231914893617021 0.4303859306301905 0.40039363203959655
0.32340425531914896 0.4332913149572893 0.39886997089857973
0.32361702127659575 0.43258822153248006 0.39656186331972626
0.32382978723404254 0.4333249117585263 0.39913114761094487
0.32404255319148934 0.43559303005375244 0.40433909866142537
0.3242553191489362 0.43161947341613494 0.41639026339013047
0.324468085106383 0.4311879793285296 0.4307018839699562
0.32468085106382977 0.4304345390130112 0.4464560391972182
0.3248936170212766 0.43200175089369003 0.46822631444409024
0.3251063829787234 0.4315751385889787 0.4852730762133299
0.3253191489361702 0.42868863483208897 0.49427138112538643
0.325531914893617 0.4312826503139971 0.49772134108097316
0.32574468085106384 0.43024637551042644 0.4948426004866578
0.32595744680851063 0.4340035477145639 0.48998534440644836
0.3261702127659574 0.43622563392562586 0.49372495315875525
0.32638297872340427 0.4401563263312165 0.5030976841259984
0.32659574468085106 0.44082686406589433 0.5233584604651402
0.32680851063829786 0.4405720604539318 0.5422471152985022
0.3270212765957447 0.4401563263312165 0.5601418111241233
0.3272340425531915 0.44139547423386033 0.5790387328059097
0.3274468085106383 0.4398885291370434 0.5929050625991192
0.3276595744680851 0.43831611045883234 0.6075900862094684
0.3278723404255319 0.437215406034848 0.6171769170688769
0.3280851063829787 0.43652132736881705 0.6364993160077081
0.3282978723404255 0.4387367805357696 0.6504038881421014
0.32851063829787236 0.4409468966376678 0.6552915010174373
0.32872340425531915 0.44315736730439365 0.6452288166034209
0.32893617021276594 0.4486224487820949 0.6251467024578115
0.32914893617021274 0.44934962981130006 0.5855407341525265
0.3293617021276596 0.4498488773288923 0.5355789022749602
0.3295744680851064 0.45178549884797825 0.4874358164826027
0.32978723404255317 0.4501228916054816 0.4552947272236658
0.33 0.4516639792737236 0.4410262959778021
0.3302127659574468 0.4512452844789164 0.43620063899119405
0.3304255319148936 0.450479399486775 0.4277542143774626
0.33063829787234045 0.4513321543383959 0.4057250857025636
0.33085106382978724 0.4514096061468538 0.3686730883583723
0.33106382978723403 0.4560218293793662 0.3206765336850417
0.3312765957446808 0.44993110906826667 0.2809208115846165
0.33148936170212767 0.45213000383771546 0.2733515335999108
0.33170212765957446 0.45309332109289907 0.2860780848865337
0.33191489361702126 0.45277049273264713 0.30856593676997324
0.3321276595744681 0.45528935504480944 0.33735576726031996
0.3323404255319149 0.45543868176561025 0.35994659832021064
0.3325531914893617 0.4535301690876659 0.38020699131630215
0.3327659574468085 0.453734512438788 0.39323178779774803
0.33297872340425533 0.4604908955327169 0.4036655189490632
0.3331914893617021 0.45368242773087514 0.38962736942653453
0.3334042553191489 0.453694213435913 0.3738659310080553
0.33361702127659576 0.45497546273145845 0.3485662472978023
0.33382978723404255 0.45485019437019497 0.32237573509474965
0.33404255319148934 0.4576153227935851 0.29766605611286323
0.3342553191489362 0.4609145394934797 0.2775025041236355
0.334468085106383 0.4625099588611144 0.2644949399672623
0.3346808510638298 0.4655838880833773 0.2584392327568816
0.33489361702127657 0.467791215424425 0.2614873643397574
0.3351063829787234 0.47026930921086796 0.27913763933207764
0.3353191489361702 0.4720086094368773 0.3004238054002177
0.335531914893617 0.4724558975402387 0.3219900398223018
0.33574468085106385 0.4733756717147044 0.3384665483935194
0.33595744680851064 0.4726035804588825 0.3509453731349988
0.33617021276595743 0.474198690970824 0.3667002457887527
0.3363829787234042 0.47147283303246607 0.3827637231162621
0.33659574468085107 0.47257955930767614 0.40950608088438106
0.33680851063829786 0.4730665780876293 0.4377544189911167
0.33702127659574466 0.4715279550453138 0.4653664075450263
0.3372340425531915 0.47156692102274833 0.4868239581511039
0.3374468085106383 0.4730840994655878 0.5014336432177045
0.3376595744680851 0.47094503897902934 0.5062613597817707
0.33787234042553194 0.47416119149093716 0.5000908997467465
0.33808510638297873 0.47118049548885366 0.48764208801768705
0.3382978723404255 0.4682832055843607 0.4692896079471392
0.3385106382978723 0.46718066552964244 0.4534170446552585
0.33872340425531916 0.4633229880570971 0.43953282703849067
0.33893617021276595 0.45969711773326827 0.4268478051206204
0.33914893617021274 0.45754594702957224 0.41324787435335397
0.3393617021276596 0.4593017484309299 0.40395135103944085
0.3395744680851064 0.45485463179943975 0.39043835923936426
0.3397872340425532 0.45348280382743483 0.38493450614899244
0.34 0.4501766260192867 0.39273604261412787
0.3402127659574468 0.44870176904244363 0.4165322705585196
0.3404255319148936 0.4504159951816388 0.45435428803585975
0.3406382978723404 0.45028911543921 0.5032410809521438
0.34085106382978725 0.45140796004315653 0.5647107114070545
0.34106382978723404 0.45188080117244755 0.6344450460405038
0.34127659574468083 0.4509173737867402 0.6975805475376398
0.3414893617021277 0.45160410801705153 0.7342107828272293
0.3417021276595745 0.45017716335724645 0.7596977172145917
0.34191489361702126 0.4505651951721352 0.7665262024660074
0.34212765957446806 0.4485380332952257 0.7661271406573255
0.3423404255319149 0.4458218250779029 0.7571006436929997
0.3425531914893617 0.4436150909125714 0.7378314394378869
0.3427659574468085 0.43721789386382304 0.7029434019033846
0.34297872340425534 0.43528303371765725 0.6604545338455007
0.34319148936170213 0.42963821957719556 0.6112672755920939
0.3434042553191489 0.4306480032209615 0.5536108481015799
0.34361702127659577 0.42952376869281633 0.484162945375173
0.34382978723404256 0.4303811738214636 0.41265175729781184
0.34404255319148935 0.42940889106008795 0.3527629797978311
0.34425531914893615 0.4286635286472827 0.31250685753327445
0.344468085106383 0.43191836143686807 0.3009667282234558
0.3446808510638298 0.4323195406409965 0.31269634001215946
0.3448936170212766 0.43207027315204916 0.3416695285906299
0.3451063829787234 0.43624816805080613 0.37094393354427174
0.3453191489361702 0.4350786520875816 0.39421103719557304
0.345531914893617 0.434351348830327 0.4300941996294232
0.3457446808510638 0.4352711284807034 0.4790116070782767
0.34595744680851065 0.43221395567844245 0.526970856680701
0.34617021276595744 0.431362970200293 0.5652217576010868
0.34638297872340423 0.4283640143560761 0.564471182831345
0.3465957446808511 0.42726212371275324 0.5402713747650091
0.3468085106382979 0.42967285203839345 0.5185657275357182
0.34702127659574467 0.42590525196785173 0.5050764247385847
0.3472340425531915 0.42594862487762664 0.4929580783436833
0.3474468085106383 0.4255007327796776 0.48023509700837613
0.3476595744680851 0.4262729690826416 0.46395100957758756
0.3478723404255319 0.4255807133047457 0.44811533067288756
0.34808510638297874 0.42652215272610905 0.4217263869191201
0.34829787234042553 0.42796440511583844 0.40111816746033785
0.3485106382978723 0.4321573752895953 0.3853295041097043
0.34872340425531917 0.4387618846734966 0.38013795978451
0.34893617021276596 0.44483715536994406 0.3844880228021964
0.34914893617021275 0.4463239529065917 0.40046293659194854
0.34936170212765955 0.4476103923219632 0.4186945699386752
0.3495744680851064 0.4516542046077275 0.4271149170728025
0.3497872340425532 0.45194629878831255 0.43390652788328343
0.35 0.45266634429324304 0.4440253699644921
0.3502127659574468 0.4515650223964119 0.4566174828129816
0.3504255319148936 0.4513487867042396 0.4758819218637762
0.3506382978723404 0.4524539617048412 0.49450531261725855
0.35085106382978726 0.4535564071824596 0.49905717366756486
0.35106382978723405 0.45466118319085974 0.48473155160785
0.35127659574468084 0.4576719709728264 0.4564285680349871
0.35148936170212763 0.4586189477393202 0.4163011913721663
0.3517021276595745 0.4575164107993203 0.38059735573339604
0.3519148936170213 0.45712272393013414 0.35023705448477715
0.35212765957446807 0.4562841088979038 0.3302681032213187
0.3523404255319149 0.45481191988275516 0.3214342852125568
0.3525531914893617 0.4585074986058997 0.3236760379317423
0.3527659574468085 0.45969711773326827 0.33610293493116133
0.3529787234042553 0.4655167342088658 0.36230571431980707
0.35319148936170214 0.4630372939813218 0.38676049156723374
0.35340425531914893 0.465296680778546 0.4116651197038068
0.3536170212765957 0.4669246365029339 0.42803717458830426
0.35382978723404257 0.47093946351884103 0.43727633345605316
0.35404255319148936 0.47082470088061523 0.44531160775850703
0.35425531914893615 0.4711652054601206 0.44653133798058936
0.354468085106383 0.47227013765331094 0.44007874820015014
0.3546808510638298 0.4733744940526228 0.4274689438648625
0.3548936170212766 0.4737702253234976 0.40678677417437
0.3551063829787234 0.4744857146320905 0.3890959680110425
0.3553191489361702 0.4690807904005916 0.36873116406949424
0.355531914893617 0.46900391521399704 0.3428312913369581
0.3557446808510638 0.4681853424576804 0.3111901984240097
0.35595744680851066 0.4659814754941222 0.2736303888071291
0.35617021276595745 0.4628964831361219 0.23695169065757662
0.35638297872340424 0.45585839623545543 0.2182641887440324
0.35659574468085103 0.4575832238857549 0.21767463110993435
0.3568085106382979 0.45561935991840746 0.23628227359251347
0.3570212765957447 0.45410344805430525 0.260600209874901
0.35723404255319147 0.45632967008055914 0.28096565368739057
0.3574468085106383 0.45810368625221676 0.30574447928649406
0.3576595744680851 0.45712975050716104 0.33302027791793665
0.3578723404255319 0.45951101392966726 0.36410231556860995
0.35808510638297875 0.4568213183427284 0.3930745660586608
0.35829787234042554 0.45738379572766935 0.4274193927521844
0.35851063829787233 0.4563808902935259 0.4610842646958338
0.3587234042553191 0.4569072795958377 0.4936049793210851
0.35893617021276597 0.45362083713335577 0.5111383822848606
0.35914893617021276 0.45455850368764833 0.5323232323980321
0.35936170212765955 0.457383378230011 0.5490212147815479
0.3595744680851064 0.45313532605423135 0.5561465498617432
0.3597872340425532 0.45390503667532583 0.5673819395325725
0.36 0.4556001716986242 0.5704967150627953
0.3602127659574468 0.45904498870495175 0.570107205044349
0.3604255319148936 0.4601497069343344 0.5634788956680538
0.3606382978723404 0.4600952911994618 0.5504914696873812
0.3608510638297872 0.46110812727946887 0.5324344443924852
0.36106382978723406 0.45750600201899666 0.5181414199897052
0.36127659574468085 0.4577249954434637 0.5125294271172052
0.36148936170212764 0.45296314844998575 0.5056472477312715
0.3617021276595745 0.45273192015715186 0.49493396456296707
0.3619148936170213 0.44926125343056234 0.48073815299801914
0.3621276595744681 0.4468616650175523 0.4674808049841836
0.36234042553191487 0.4425246074693903 0.4598140485829068
0.3625531914893617 0.4448641137216146 0.46393888215599727
0.3627659574468085 0.444390434471852 0.47711923504385645
0.3629787234042553 0.44124589226543215 0.4970889939945526
0.36319148936170215 0.4431724939614876 0.525882707759309
0.36340425531914894 0.44427158796845323 0.5480716912554453
0.36361702127659573 0.4447092885696197 0.5705528283643292
0.3638297872340425 0.44268899618619767 0.5873890649842917
0.36404255319148937 0.44172013851933034 0.5972686802113113
0.36425531914893616 0.44282450202342205 0.6025331054840426
0.36446808510638296 0.4405653295664849 0.6041626396966953
0.3646808510638298 0.4411223582253205 0.6110611973671797
0.3648936170212766 0.4361325210853452 0.6125140954120702
0.3651063829787234 0.4355118882290476 0.604595736163699
0.36531914893617023 0.43698279094822434 0.5869399327605587
0.365531914893617 0.4372143955375361 0.5655923842139873
0.3657446808510638 0.43686268675930984 0.5474582523927732
0.3659574468085106 0.4408957310003946 0.5390749578125024
0.36617021276595746 0.44296909928646355 0.5335668142662651
0.36638297872340425 0.4420770249398151 0.5241149682968261
0.36659574468085104 0.4373595498793087 0.5132022533334129
0.3668085106382979 0.4382022471910112 0.5069260553791419
0.3670212765957447 0.43859045522566553 0.5116677994825658
0.3672340425531915 0.43660625269026637 0.514978114531419
0.36744680851063827 0.43365197818813606 0.5163654127992183
0.3676595744680851 0.43100834946086986 0.5132871462930471
0.3678723404255319 0.4312822050625104 0.5034945101956084
0.3680851063829787 0.4352218830903251 0.4976046794057559
0.36829787234042555 0.4351737149179868 0.4938935026868587
0.36851063829787234 0.43978222759579416 0.4929890914348382
0.36872340425531913 0.4415588244769157 0.4858568810693905
0.368936170212766 0.442657937409283 0.47431012169456677
0.36914893617021277 0.4417460507596112 0.46306688445387556
0.36936170212765956 0.4427279850619227 0.4573051889923626
0.36957446808510636 0.44400876578876985 0.4493954330449956
0.3697872340425532 0.44406448461162684 0.452330548383369
0.37 0.4436866440737716 0.45890899843209315
0.3702127659574468 0.44242857304966005 0.461924290780938
0.37042553191489364 0.442199323213988 0.4705329429478988
0.3706382978723404 0.4434089076669014 0.4844319179172392
0.3708510638297872 0.445735307154868 0.4992877796542146
0.371063829787234 0.4492990862285919 0.5043271200561621
0.37127659574468086 0.45087140708737217 0.4961387724618176
0.37148936170212765 0.45410379164787545 0.4723717261674588
0.37170212765957444 0.456113703962684 0.43308558745061926
0.3719148936170213 0.45452529583667123 0.3798476134303126
0.3721276595744681 0.457212670220172 0.31931002302239947
0.3723404255319149 0.4581179201167616 0.258152737599707
0.3725531914893617 0.459201829492425 0.20800392188306102
0.3727659574468085 0.45884125233492645 0.17645387798723206
0.3729787234042553 0.460649349565182 0.16268329035662837
0.3731914893617021 0.4566337549494957 0.16510881280029596
0.37340425531914895 0.4555291618173357 0.1798573136092778
0.37361702127659574 0.45481191988275516 0.205026431392841
0.37382978723404253 0.45727844262672845 0.23462825497317844
0.3740425531914894 0.461492516696254 0.2684059591839532
0.37425531914893617 0.4648104688081936 0.30490343241528906
0.37446808510638296 0.4655593551538837 0.3405661448870449
0.37468085106382976 0.46852858334644515 0.36612997589694163
0.3748936170212766 0.47211727792499997 0.3914604253328959
0.3751063829787234 0.47125816764530704 0.4067179110404554
0.3753191489361702 0.4757848207884583 0.416586931857826
0.37553191489361704 0.475507003300393 0.4190165752856245
0.37574468085106383 0.47372646727229273 0.41901225134654774
0.3759574468085106 0.4703728223481739 0.42441436208302175
0.37617021276595747 0.46679453759990935 0.4326286683380366
0.37638297872340426 0.46363006797619016 0.445911131914282
0.37659574468085105 0.4668824680017436 0.44549275850821074
0.37680851063829784 0.46165119687347334 0.43860826607027376
0.3770212765957447 0.46165119687347334 0.4266787074859858
0.3772340425531915 0.4606820188590449 0.41193224057767913
0.3774468085106383 0.47185662835247205 0.3990136963727505
0.3776595744680851 0.467513434294089 0.38943797169813654
0.3778723404255319 0.467513434294089 0.3867575352925526
0.3780851063829787 0.46797399838420684 0.3906201381765016
0.37829787234042556 0.46907629567436343 0.3983362192075983
0.37851063829787235 0.46661011098046623 0.4125043533424242
0.37872340425531914 0.4647146277708079 0.4302230147779677
0.37893617021276593 0.4626353216861812 0.4469424640023943
0.3791489361702128 0.46105047357012346 0.4625557386371341
0.3793617021276596 0.46234523700341246 0.47684179766722906
0.37957446808510636 0.4572128816738379 0.4834527830095166
0.3797872340425532 0.4533067657274513 0.49307484231735654
0.38 0.45125366955781837 0.5132027276738407
0.3802127659574468 0.4561510840077468 0.545987987703769
0.3804255319148936 0.4533635474514353 0.5806457615412086
0.38063829787234044 0.4539084842504963 0.6208884584220602
0.38085106382978723 0.4566184280811236 0.6623157077773638
0.381063829787234 0.45496815481524894 0.692663133552071
0.38127659574468087 0.45245822466285507 0.7124387528266839
0.38148936170212766 0.4524045288178955 0.7213016577584875
0.38170212765957445 0.4548054782088061 0.7264224786973258
0.3819148936170213 0.45423968749851834 0.7212088721240196
0.3821276595744681 0.45653326827033797 0.7069971662446922
0.3823404255319149 0.45378610015179266 0.6808036142474198
0.3825531914893617 0.4526870939250605 0.638997985283795
0.3827659574468085 0.45158181548379 0.5687944648550167
0.3829787234042553 0.4483515278122027 0.481863769254108
0.3831914893617021 0.443943631652047 0.38830345562352175
0.38340425531914896 0.44174058918702874 0.306059849684746
0.38361702127659575 0.43553686752181553 0.2544260434818861
0.38382978723404254 0.4287426888742011 0.23935243096640657
0.38404255319148933 0.42332240402775423 0.2631414993908724
0.3842553191489362 0.4197910169008871 0.3197992367632534
0.384468085106383 0.41704174198976174 0.38202902473053374
0.38468085106382977 0.4172249259266025 0.4365815771868825
0.3848936170212766 0.41847071440790407 0.46499490856565967
0.3851063829787234 0.4160553207998981 0.45826175950323944
0.3853191489361702 0.4164482289134829 0.426715977833713
0.38553191489361704 0.4235435208221948 0.38448252510305747
0.38574468085106384 0.4221860384205401 0.3613538679749599
0.38595744680851063 0.4216727022562544 0.36015927321828495
0.3861702127659574 0.42707060668597624 0.3769007476257624
0.38638297872340427 0.42750552335330255 0.40322490723343385
0.38659574468085106 0.4284318514899854 0.43446184801631665
0.38680851063829785 0.43076167422249845 0.4665861043592542
0.3870212765957447 0.4322684140509633 0.49141295300867427
0.3872340425531915 0.43342566218751716 0.5040440433524507
0.3874468085106383 0.4354500137251642 0.5099665196452206
0.3876595744680851 0.4392948776423242 0.5051346889950806
0.3878723404255319 0.4425749433708505 0.4932989518931342
0.3880851063829787 0.4398752813719638 0.4800810440130778
0.3882978723404255 0.4431825395048487 0.4687931538787367
0.38851063829787236 0.44974160664216684 0.4558271459586721
0.38872340425531915 0.446222674336313 0.4482175755934145
0.38893617021276594 0.44805860581305545 0.43917928676111373
0.3891489361702128 0.4495900915591373 0.4400331655571105
0.3893617021276596 0.45188080117244755 0.4430874450415241
0.3895744680851064 0.45140411651101336 0.44499418368726046
0.38978723404255317 0.4503009717065648 0.4500095528008347
0.39 0.449196059077678 0.4577261048089619
0.3902127659574468 0.4472296663899721 0.47345724631060854
0.3904255319148936 0.4479726428920372 0.4911291916934163
0.39063829787234045 0.44835213501287946 0.5054348616184821
0.39085106382978724 0.45065312283528125 0.52009947880702
0.39106382978723403 0.4510610381047913 0.526577466210384
0.3912765957446808 0.4558929682823971 0.5246875839500136
0.39148936170212767 0.4593522338743736 0.5226301460853096
0.39170212765957446 0.4627396652708739 0.5159261524589215
0.39191489361702125 0.464497026985422 0.5046020729698357
0.3921276595744681 0.46662883952346373 0.4920382375217197
0.3923404255319149 0.46831260006812203 0.4709731091594867
0.3925531914893617 0.467513434294089 0.45214217467439455
0.39276595744680853 0.46578997261701627 0.439755830418945
0.3929787234042553 0.46416101113506236 0.43207114842506567
0.3931914893617021 0.4632125840901529 0.4228524074152356
0.3934042553191489 0.46262823644357587 0.41718789548530943
0.39361702127659576 0.46262823644357587 0.41007577645974996
0.39382978723404255 0.46244525444783613 0.39686275084662703
0.39404255319148934 0.462662187387359 0.3800472262042839
0.3942553191489362 0.467356575866816 0.3557768833075786
0.394468085106383 0.463125670214402 0.33040874042439555
0.3946808510638298 0.46445176905802277 0.31427121252572865
0.39489361702127657 0.4670359137700402 0.3094717841994938
0.3951063829787234 0.46317253932003793 0.317046634890761
0.3953191489361702 0.46655693102882445 0.33415188450615174
0.395531914893617 0.4676629259938731 0.3586028798703376
0.39574468085106385 0.46793731036702585 0.37019733955651596
0.39595744680851064 0.4669403471921578 0.3838542155009834
0.39617021276595743 0.4691107365171212 0.40248546338731295
0.3963829787234043 0.4730710160889621 0.42823757307677596
0.39659574468085107 0.4735937439937728 0.45674028490872964
0.39680851063829786 0.4758847579931284 0.4868827371350078
0.39702127659574465 0.4810312694766835 0.5079705085625679
0.3972340425531915 0.48164861471054926 0.5188674436614525
0.3974468085106383 0.4852076554373455 0.5226600506548271
0.3976595744680851 0.48216902784562765 0.5112596092509359
0.39787234042553193 0.4799240633299785 0.4840409884979302
0.3980851063829787 0.4813173317082567 0.4373248431618906
0.3982978723404255 0.4756610723650765 0.38101559952891223
0.3985106382978723 0.4665562277413379 0.33182393215393874
0.39872340425531916 0.45687989949122626 0.2901604900160659
0.39893617021276595 0.4533637219835928 0.2735537181727335
0.39914893617021274 0.44869827833056175 0.2801846717484534
0.3993617021276596 0.44356000249976496 0.2996925038886773
0.3995744680851064 0.4401330341947625 0.3300769448199782
0.3997872340425532 0.4398098624559729 0.3591938012625373
0.4 0.4378804186452607 0.3815108442593591
0.4002127659574468 0.4354510421958298 0.40407084736879845
0.4004255319148936 0.4344440398097364 0.4241464572360144
0.4006382978723404 0.4382022471910112 0.44132679672938485
0.40085106382978725 0.4390819192415432 0.45862495355985944
0.40106382978723404 0.43988596865461194 0.486410884669642
0.40127659574468083 0.4387349583728732 0.5160046383643326
0.4014893617021277 0.43719735494586004 0.5403257268387055
0.40170212765957447 0.43782324484896173 0.5576791770594884
0.40191489361702126 0.4382022471910112 0.559525862430026
0.40212765957446805 0.4409335916467584 0.551161120516491
0.4023404255319149 0.4430240002424365 0.539585950869119
0.4025531914893617 0.44230187728266296 0.5210788193523855
0.4027659574468085 0.44404413377313645 0.5176409977747014
0.40297872340425533 0.44691190451153023 0.5256336156378184
0.4031914893617021 0.44682082466688583 0.540060773496919
0.4034042553191489 0.4488398160124897 0.559782861205585
0.40361702127659577 0.44662115558811893 0.5908355312463035
0.40382978723404256 0.44411665231692415 0.6230833337836922
0.40404255319148935 0.44629661977492746 0.6595554807047304
0.40425531914893614 0.4406023003837347 0.6863908147242563
0.404468085106383 0.4417632395087374 0.7067987962783387
0.4046808510638298 0.4401811447064999 0.7151557377521699
0.4048936170212766 0.4397845122128848 0.7093958192489977
0.4051063829787234 0.4408896616596139 0.6888006726042744
0.4053191489361702 0.4428548215928081 0.6610602552974019
0.405531914893617 0.4421247480512948 0.629257382955048
0.4057446808510638 0.44280695684663895 0.5959076738218738
0.40595744680851065 0.440870108189438 0.5660370248014188
0.40617021276595744 0.43976332603939167 0.5287994319916688
0.40638297872340423 0.4386601261736052 0.48875971230815796
0.4065957446808511 0.43754596945413166 0.44484972126609335
0.40680851063829787 0.436422051004307 0.39860743187312186
0.40702127659574466 0.4324578897987878 0.36192969137294473
0.4072340425531915 0.43079156610876673 0.3406125709990575
0.4074468085106383 0.4262164973921357 0.34513317915787695
0.4076595744680851 0.42631780636124894 0.3670014506650763
0.4078723404255319 0.4263412138470236 0.4046463946495889
0.40808510638297874 0.42620595596523836 0.44459312323823186
0.4082978723404255 0.429041100339941 0.4743415042339389
0.4085106382978723 0.4323884091649402 0.48612558552058244
0.40872340425531917 0.4353109438991163 0.4876923136034048
0.40893617021276596 0.44046853280508913 0.48201850196569335
0.40914893617021275 0.4415897714791112 0.47109364382574326
0.40936170212765954 0.44450294806819357 0.4660979312674195
0.4095744680851064 0.44823801138351954 0.4534850774253431
0.4097872340425532 0.4480793582832301 0.4246873208438606
0.41 0.4489818612841139 0.38861015578047625
0.4102127659574468 0.4506164876334096 0.3346391335173661
0.4104255319148936 0.44894968246213973 0.2553263754309056
0.4106382978723404 0.44934770881813074 0.1672385361742134
0.41085106382978726 0.44940309817464485 0.09989201573590938
0.41106382978723405 0.4515463605887872 0.06858627237988958
0.41127659574468084 0.45674808113277304 0.07022047646607633
0.41148936170212763 0.45684228225891577 0.10243812376354805
0.4117021276595745 0.4578417172247668 0.1662295191634193
0.41191489361702127 0.45916651274978393 0.24593532540092028
0.41212765957446806 0.4573792468769021 0.32274526170520784
0.4123404255319149 0.4582833843286602 0.38655166735639984
0.4125531914893617 0.45660760674415923 0.4390066899811794
0.4127659574468085 0.45787632912481846 0.4773584460631181
0.4129787234042553 0.4587200781631655 0.5141084177056165
0.41319148936170214 0.4587200781631655 0.5535976538989893
0.41340425531914893 0.45969711773326827 0.589269295975183
0.4136170212765957 0.46082209413237857 0.6117361784878214
0.41382978723404257 0.46657102843071996 0.6176633928020979
0.41404255319148936 0.46998317597301426 0.6115725351578724
0.41425531914893615 0.46946751343429405 0.5873564553613332
0.414468085106383 0.4687479402669326 0.5488785126184806
0.4146808510638298 0.4693386204409118 0.504911459842764
0.4148936170212766 0.47142159257449934 0.44590418710612245
0.4151063829787234 0.47155350210173874 0.39389795617675877
0.4153191489361702 0.4718720559968297 0.3425921689112018
0.415531914893617 0.4708389106086366 0.29856765974199595
0.4157446808510638 0.47142159257449934 0.2652412888537888
0.41595744680851066 0.47010729667038437 0.2427075095906578
0.41617021276595745 0.46946751343429405 0.23869441412984263
0.41638297872340424 0.46764336733050427 0.25256727066850737
0.4165957446808511 0.46634912412834334 0.2825843117652804
0.4168085106382979 0.46398413978415715 0.3135301970101604
0.41702127659574467 0.4649277892380287 0.34615269272712784
0.41723404255319146 0.4636052760136786 0.36939222679186584
0.4174468085106383 0.4636052760136786 0.3886183179094169
0.4176595744680851 0.4636052760136786 0.40412279240207083
0.4178723404255319 0.4619489138540428 0.42447764211418815
0.41808510638297874 0.4645224814630617 0.42841190678307894
0.41829787234042554 0.4638260057996613 0.4349725227353688
0.41851063829787233 0.4650757294864939 0.4508743968963762
0.4187234042553191 0.4632334683479998 0.463787002055735
0.41893617021276597 0.46513545249191274 0.4739546554720681
0.41914893617021276 0.464989391928146 0.47854585117808635
0.41936170212765955 0.4620897297352224 0.4769645897176358
0.4195744680851064 0.4589980250662508 0.48249752464186474
0.4197872340425532 0.4578166469508675 0.5015792757923285
0.42 0.45953338605374555 0.5277891768165724
0.42021276595744683 0.45784075410689246 0.5584757142592668
0.4204255319148936 0.45536848796445617 0.5849308244252107
0.4206382978723404 0.45536100570749355 0.6031928195238642
0.4208510638297872 0.4557889594528579 0.6206910949433903
0.42106382978723406 0.45417332637523644 0.6306407438835726
0.42127659574468085 0.4500780139930531 0.6560757131487208
0.42148936170212764 0.4508175539255416 0.6692720766707738
0.4217021276595745 0.44972314197623786 0.6872663396409251
0.4219148936170213 0.44865277479934657 0.7040329260941636
0.4221276595744681 0.4471139347753516 0.7240758751154931
0.42234042553191486 0.44769292965999674 0.7389886214245498
0.4225531914893617 0.44894968246213973 0.7372246230161129
0.4227659574468085 0.4497526490147486 0.7125651400116555
0.4229787234042553 0.44899722317916735 0.656742731620203
0.42319148936170214 0.4498453575423435 0.5736079191336814
0.42340425531914894 0.44894968246213973 0.4915950327829229
0.42361702127659573 0.44894968246213973 0.43430108243741455
0.4238297872340426 0.4494284167004091 0.4090084866493158
0.42404255319148937 0.4511414070137048 0.4054581926302429
0.42425531914893616 0.44966639119377577 0.42760480741533147
0.42446808510638295 0.44808564056205674 0.45675917831276003
0.4246808510638298 0.44695480306721375 0.4783560701595656
0.4248936170212766 0.4432068076798224 0.4839565773135296
0.4251063829787234 0.43901668994565984 0.47294013530365525
0.42531914893617023 0.4375316981888197 0.4592500850651405
0.425531914893617 0.43022423423903317 0.4536731839214953
0.4257446808510638 0.42908722103048125 0.45384690979393505
0.4259574468085106 0.4270535855302595 0.459522530942412
0.42617021276595746 0.42464124248643836 0.4753663962101058
0.42638297872340425 0.4255007327796776 0.48889263161020474
0.42659574468085104 0.42592135320826635 0.5149196898787852
0.4268085106382979 0.42745481191988266 0.5410488909870381
0.4270212765957447 0.42745481191988266 0.5718389510408974
0.4272340425531915 0.42745481191988266 0.5999006375858275
0.4274468085106383 0.4270076727780292 0.6196005620845103
0.4276595744680851 0.4287224596407042 0.619911562751386
0.4278723404255319 0.4303859306301905 0.6033321918524592
0.4280851063829787 0.4303859306301905 0.5634465841346941
0.42829787234042555 0.43132188633627017 0.49839478139647947
0.42851063829787234 0.43063820548005977 0.4210638490565277
0.42872340425531913 0.433529623993666 0.33959502678935344
0.428936170212766 0.4349738734392062 0.2733347666260849
0.42914893617021277 0.4357814776223239 0.22497277946189567
0.42936170212765956 0.43704223583387686 0.19699426452775956
0.42957446808510635 0.44320809428288666 0.1914644384112037
0.4297872340425532 0.4425569314248567 0.20606763448077034
0.43 0.4449411002153233 0.23218707108275005
0.4302127659574468 0.44230064802003194 0.2668833049460413
0.43042553191489363 0.44406448461162684 0.28612367628919977
0.4306382978723404 0.4451238002442152 0.30538314075862555
0.4308510638297872 0.4484432346202346 0.3232865533438833
0.43106382978723407 0.45236994266062247 0.3485629077044029
0.43127659574468086 0.4575325239786935 0.36769887597430523
0.43148936170212765 0.45958665091830686 0.3889845447118976
0.43170212765957444 0.4597383893070312 0.41113404024447947
0.4319148936170213 0.46180504017016627 0.42683134265996914
0.4321276595744681 0.4629116995382139 0.43776197128792366
0.4323404255319149 0.4656639876435236 0.43058840797687986
0.4325531914893617 0.467953226865796 0.42012826279572185
0.4327659574468085 0.467513434294089 0.40973897657145586
0.4329787234042553 0.4667181578766063 0.40614170453024584
0.4331914893617021 0.46561201516804007 0.41705249604898
0.43340425531914895 0.4660256431772232 0.4155749077375384
0.43361702127659574 0.4703743976841674 0.41084411224551715
0.43382978723404253 0.46687053140826773 0.3934149702713817
0.4340425531914894 0.47124912959352083 0.3726185600436657
0.43425531914893617 0.46933317914389033 0.35615169663888935
0.43446808510638296 0.46629010431299406 0.3527072237701015
0.4346808510638298 0.4691130483495367 0.3592119963850369
0.4348936170212766 0.4714312480076559 0.3818429259860717
0.4351063829787234 0.47267851236798286 0.41685748160736885
0.4353191489361702 0.4748984233192628 0.44795476633201675
0.43553191489361703 0.4746968573741471 0.47119412083191176
0.4357446808510638 0.47557924688642716 0.47976801159229093
0.4359574468085106 0.4762826480339308 0.4808743558825181
0.43617021276595747 0.4769082235683711 0.4740888610649484
0.43638297872340426 0.4782054100563133 0.46133967141021903
0.43659574468085105 0.4783372890868795 0.437115959676234
0.43680851063829784 0.47923790913532005 0.4064063795588235
0.4370212765957447 0.479575417554434 0.37069819702617407
0.4372340425531915 0.4788105593031334 0.33193006371486555
0.4374468085106383 0.47489707749958376 0.29621757807149984
0.4376595744680851 0.4719228268232142 0.2659200510955305
0.4378723404255319 0.46632656561933494 0.24242058267835642
0.4380851063829787 0.46360381275305645 0.22716170004885194
0.43829787234042555 0.4578267617891318 0.22869309954719555
0.43851063829787235 0.4506058625958945 0.2439859291962949
0.43872340425531914 0.4454657975295721 0.2695180582867617
0.43893617021276593 0.4415512132546404 0.30263550895624197
0.4391489361702128 0.4401563263312165 0.3363357216400235
0.43936170212765957 0.4409308317727784 0.37501722893916045
0.43957446808510636 0.43932008950406043 0.4097101376540405
0.4397872340425532 0.4432675212361276 0.4406198963179421
