0.0 0.4352711284807034 0.45969711773326827
0.0002127659574468085 0.4342045276959299 0.47116307616958336
0.000425531914893617 0.4331379269111564 0.48262903460589845
0.0006382978723404255 0.4320713261263829 0.4940949930422136
0.000851063829787234 0.4316299239209014 0.5073158473804537
0.0010638297872340426 0.43203000903747274 0.524397655350295
0.001276595744680851 0.42951450657888285 0.5445409450115019
0.0014893617021276596 0.4299846819903307 0.5629663916424706
0.001702127659574468 0.42905274179978165 0.577252311300477
0.0019148936170212765 0.4295315867115406 0.582190625308931
0.002127659574468085 0.42888712031281595 0.5908761831765214
0.002340425531914894 0.4275436232474963 0.5963938462200171
0.002553191489361702 0.4278214969237834 0.5955357815077036
0.0027659574468085106 0.4314934341880109 0.601194863639707
0.0029787234042553193 0.4323400097703958 0.595321239881555
0.0031914893617021275 0.43605172038376944 0.5944794664906663
0.003404255319148936 0.43534238737820274 0.5895008627619139
0.003617021276595745 0.4364442154450187 0.5871011592340696
0.003829787234042553 0.43722520762090866 0.5850776197492337
0.004042553191489362 0.4367872995006005 0.5844214979155776
0.00425531914893617 0.43624816805080613 0.5760529300357136
0.004468085106382979 0.43624816805080613 0.5628681258762736
0.004680851063829788 0.4354411943299967 0.5504784429548295
0.004893617021276595 0.4399222013999183 0.5383753581903314
0.005106382978723404 0.441133365901319 0.520998161676579
0.005319148936170213 0.4425147292191793 0.5036349528456349
0.005531914893617021 0.4479726428920372 0.4874620902841296
0.00574468085106383 0.4506483144717713 0.47023385482601493
0.005957446808510639 0.4528868319698117 0.4451498656893513
0.006170212765957446 0.45105846494701923 0.4152103556911243
0.006382978723404255 0.44923009792422675 0.38527084569289727
0.006595744680851064 0.44740173090143426 0.3553313356946702
0.006808510638297872 0.44657797417837647 0.3318428579801147
0.007021276595744681 0.44887538627953305 0.32839673982837997
0.00723404255319149 0.44863857698064546 0.32896664461864406
0.007446808510638298 0.4482979926208377 0.3376959248247838
0.007659574468085106 0.45218386119068854 0.35432837417130914
0.007872340425531916 0.45417613440038357 0.3553245107761566
0.008085106382978723 0.45616840761007854 0.3563206473810041
0.008297872340425531 0.4581606808197735 0.35731678398585165
0.00851063829787234 0.4593267542920819 0.3584553658837853
0.008723404255319148 0.4577209242594124 0.36019388191835805
0.008936170212765958 0.4569041224091446 0.3668092968804302
0.009148936170212766 0.45897196434216864 0.36602726209292125
0.009361702127659575 0.46051210711836493 0.3672024589435339
0.009574468085106383 0.45926067940044896 0.3694870952129563
0.00978723404255319 0.4580286286439245 0.37262032657661986
0.01 0.4587200781631655 0.37559874838436696
0.010212765957446808 0.4591420208305518 0.3784696791794232
0.010425531914893617 0.4615792262927847 0.3813076848777076
0.010638297872340425 0.46443319562252317 0.3804077925937004
0.010851063829787235 0.463659247407575 0.3793100160153738
0.011063829787234043 0.46455723208917965 0.37482009260735044
0.01127659574468085 0.46289729835807364 0.37216714929578176
0.01148936170212766 0.4708402822616819 0.36437271518773984
0.011702127659574468 0.4681152062256014 0.36382688547691194
0.011914893617021277 0.4684223245928752 0.36576502046078707
0.012127659574468085 0.4718140196151103 0.36008511393931175
0.012340425531914893 0.46845109221978115 0.35748302604277316
0.012553191489361702 0.4691470736307657 0.3562911432041579
0.01276595744680851 0.47033349896248844 0.35439895224600493
0.01297872340425532 0.4695130764916056 0.3467250320598604
0.013191489361702127 0.46943322019974965 0.33840703810236955
0.013404255319148937 0.467513434294089 0.33044967289385
0.013617021276595745 0.4676320393596568 0.3261081058059091
0.013829787234042552 0.4683009597335593 0.32171555530122936
0.014042553191489362 0.467513434294089 0.3268723275850112
0.01425531914893617 0.467513434294089 0.33636369395287996
0.01446808510638298 0.46640481520866905 0.35129612315350456
0.014680851063829787 0.4632409392096956 0.3668287521072774
0.014893617021276596 0.46112188790093805 0.3832451970698757
0.015106382978723404 0.46005195143490996 0.39814861237915694
0.015319148936170212 0.4563557945383419 0.41608534051590573
0.015531914893617021 0.45339172655326515 0.43535135403478054
0.01574468085106383 0.4504669648757472 0.4552985401543009
0.015957446808510637 0.44992672203224227 0.4673297101574303
0.016170212765957447 0.4527524400637079 0.4835609700320079
0.016382978723404256 0.4509577148985623 0.493240182894061
0.016595744680851062 0.4521279795214017 0.4996438247587115
0.01680851063829787 0.45342732352979814 0.5058217559195171
0.01702127659574468 0.45298410268410305 0.5071466678540203
0.01723404255319149 0.4557889594528579 0.5072142524791469
0.017446808510638297 0.4550012577017903 0.5077917449622577
0.017659574468085106 0.4516374875201371 0.5142151687528204
0.017872340425531916 0.4479933990391918 0.5211468299139578
0.018085106382978722 0.44954617838999245 0.5312369586363601
0.01829787234042553 0.4457654227000447 0.542021582673673
0.01851063829787234 0.4417530047009175 0.5497518334703911
0.01872340425531915 0.44142906944294424 0.5508575012944342
0.018936170212765956 0.4433479001685166 0.5542526881981382
0.019148936170212766 0.4400401893023287 0.5554469956033219
0.019361702127659575 0.43917928676111373 0.5581079661370355
0.01957446808510638 0.43917928676111373 0.5612715351402013
0.01978723404255319 0.43917928676111373 0.5583781143136297
0.02 0.4392345682688409 0.5583781143136297
0.02021276595744681 0.44005233339043953 0.5584821072544066
0.020425531914893616 0.4385802077010202 0.5608361408005135
0.020638297872340425 0.44070568079790584 0.5646680368376583
0.020851063829787235 0.43947586026942964 0.5688635924492931
0.02106382978723404 0.4386857063933195 0.5768260619277449
0.02127659574468085 0.43668396982139096 0.5807445883970562
0.02148936170212766 0.4367162691601434 0.5864075101429794
0.02170212765957447 0.4338836543620524 0.5882559064382613
0.021914893617021276 0.4330196175073358 0.5867122618466047
0.022127659574468085 0.4333170493404983 0.5821576621762221
0.022340425531914895 0.4354182120923688 0.5766476989222483
0.0225531914893617 0.43691420144926113 0.5696595198177332
0.02276595744680851 0.43722520762090866 0.5642377343013778
0.02297872340425532 0.43638262251769744 0.5523097058223964
0.023191489361702126 0.43624816805080613 0.5438131653027941
0.023404255319148935 0.43893264164239315 0.5354888359433375
0.023617021276595745 0.44366822164598285 0.5313113946529865
0.023829787234042554 0.4388547920878219 0.5290669272105519
0.02404255319148936 0.43892144731883953 0.5312245275940368
0.02425531914893617 0.43862083070233426 0.5376162819817115
0.02446808510638298 0.4375611858321295 0.5452698223720815
0.024680851063829785 0.4407507514540546 0.5501085797470201
0.024893617021276595 0.43852189290807503 0.5523560540344823
0.025106382978723404 0.43757829623698324 0.5534929164631168
0.025319148936170214 0.4396852527798783 0.5505269052853827
0.02553191489361702 0.44252940162254634 0.5424655323087164
0.02574468085106383 0.445666426212646 0.5313351377576695
0.02595744680851064 0.44694967857935225 0.5179394740228893
0.026170212765957445 0.4493842547995726 0.5046029778219174
0.026382978723404255 0.45076877054984155 0.48528987315449446
0.026595744680851064 0.45184439047057245 0.4643152847002427
0.026808510638297874 0.45088346375647403 0.4539643476592678
0.02702127659574468 0.44985118269810104 0.4439856307616628
0.02723404255319149 0.44903284231431917 0.43236053365442234
0.0274468085106383 0.44968924084920336 0.40938658493347446
0.027659574468085105 0.4496168733323152 0.375357301433163
0.027872340425531914 0.4491313736704558 0.3350608294988326
0.028085106382978724 0.44943892387677425 0.3131310794037145
0.028297872340425533 0.45022075380481746 0.30218546041111005
0.02851063829787234 0.4510025837328606 0.2912398414185058
0.02872340425531915 0.45178441366090377 0.2802942224259014
0.02893617021276596 0.4525662435889469 0.269348603433297
0.029148936170212764 0.45334388486208077 0.2745010815539365
0.029361702127659574 0.45411903466603376 0.2892289278290431
0.029574468085106383 0.45489418446998675 0.3039567741041497
0.029787234042553193 0.4556693342739397 0.31868462037925627
0.03 0.4564444840778927 0.3334124666543626
0.03021276595744681 0.4572196338818456 0.3481403129294692
0.030425531914893618 0.4586359533876649 0.3571283080198112
0.030638297872340424 0.4613853326127419 0.35418254456437165
0.030851063829787233 0.4641347118378189 0.351236781108932
0.031063829787234043 0.4668840910628959 0.34829101765349235
0.03127659574468085 0.46963347028797287 0.34534525419805273
0.03148936170212766 0.47142159257449934 0.34373952382090517
0.03170212765957447 0.47142159257449934 0.3446265120040935
0.031914893617021274 0.47285702109958916 0.3452399451787562
0.03212765957446809 0.4805705005510102 0.34518330811680625
0.03234042553191489 0.4770560155702859 0.35225323383445134
0.0325531914893617 0.47695131102546395 0.36650480492617177
0.03276595744680851 0.47700039248641446 0.3807136230196571
0.03297872340425532 0.47375322229851163 0.39265128473367006
0.033191489361702124 0.4711342009614542 0.401592094387719
0.03340425531914894 0.4704445530043966 0.40993050039826223
0.03361702127659574 0.46705512990289044 0.4084327556967351
0.033829787234042556 0.4684506857416659 0.40504258399131177
0.03404255319148936 0.466814122216335 0.4041447259835949
0.03425531914893617 0.4687311046634458 0.4083952821163397
0.03446808510638298 0.46728125910358 0.41205435398875023
0.03468085106382979 0.46490723756124575 0.4225741613447876
0.03489361702127659 0.46458231558378116 0.4277042517000953
0.035106382978723406 0.4660333598289978 0.4356870727160689
0.03531914893617021 0.4625959878836131 0.44082918508459334
0.03553191489361702 0.45867437230973684 0.44344359546717754
0.03574468085106383 0.4563611419936458 0.4413006914127923
0.03595744680851064 0.4543220540839854 0.43722251559347164
0.036170212765957444 0.4546007805906459 0.43624816805080613
0.036382978723404256 0.45407966348051976 0.43624816805080613
0.03659574468085106 0.4538348803126526 0.442039407677569
0.03680851063829787 0.45537334544040686 0.43944908922836434
0.03702127659574468 0.45539350229218517 0.43899316151235657
0.03723404255319149 0.45489880251950593 0.439982561057715
0.0374468085106383 0.4560841451323106 0.44206466420554946
0.03765957446808511 0.4562234483875674 0.47130007808196284
0.03787234042553191 0.4535487381835675 0.5006141664947299
0.038085106382978726 0.44949770001815337 0.5127672809909722
0.03829787234042553 0.4454466618527394 0.5249203954872141
0.03851063829787234 0.44211040547142155 0.5358900126862651
0.03872340425531915 0.44211040547142155 0.5413356357127189
0.03893617021276596 0.44208619668752647 0.5468957273113494
0.03914893617021276 0.4412160793636823 0.557747450571237
0.039361702127659576 0.44176516775537367 0.5718840494370419
0.03957446808510638 0.4401563263312165 0.5724381992990586
0.03978723404255319 0.4409093023109088 0.5770942905450148
0.04 0.44067172765944057 0.5784163860151237
0.04021276595744681 0.44150805335275056 0.5796654806594091
0.04042553191489362 0.44050321825255334 0.5827881945177172
0.040638297872340426 0.4385464290944495 0.586629002636286
0.04085106382978723 0.43760946794359906 0.5908453278151136
0.041063829787234045 0.4366297157182027 0.5991249101969865
0.04127659574468085 0.4368761257712739 0.602693976817881
0.04148936170212766 0.4339018581445239 0.6030095648635231
0.04170212765957447 0.42893349652781804 0.6060471451324108
0.041914893617021276 0.428129187695714 0.5998119592846153
0.04212765957446808 0.4277518752564945 0.5856030378117778
0.042340425531914895 0.4294842982898601 0.4969645878002563
0.0425531914893617 0.43092209708162044 0.45996520095898324
0.04276595744680851 0.4317003905540019 0.4603543476951739
0.04297872340425532 0.43247868402638334 0.46074349443136464
0.043191489361702126 0.4332569774987648 0.4611326411675553
0.04340425531914894 0.43403527097114625 0.461521787903746
0.043617021276595745 0.43481356444352764 0.4619109346399367
0.04382978723404255 0.4355918579159091 0.4623000813761274
0.044042553191489364 0.43651249618039994 0.4620408406000341
0.04425531914893617 0.43819899584561806 0.45829306356621596
0.044468085106382976 0.4398854955108362 0.4545452865323978
0.04468085106382979 0.44157199517605444 0.45079750949857955
0.044893617021276595 0.4432584948412726 0.4470497324647614
0.0451063829787234 0.4449449945064908 0.44330195543094325
0.045319148936170214 0.44564544990103233 0.4418795936029181
0.04553191489361702 0.4464236870225644 0.43586676338179636
0.045744680851063826 0.44863248720522797 0.4292502934316321
0.04595744680851064 0.4501236974494833 0.4319460589359136
0.046170212765957445 0.4478919952048225 0.43640946342523534
0.04638297872340425 0.4467726645850161 0.44317272966395294
0.046595744680851064 0.447687774474162 0.4506788928618514
0.04680851063829787 0.44697872184242926 0.45741489286331183
0.047021276595744683 0.44626966921069655 0.4641508928647725
0.04723404255319149 0.4496006829596834 0.46713341459196156
0.047446808510638296 0.4480745948263339 0.4668790665697366
0.04765957446808511 0.4445413849940836 0.4628434478296152
0.047872340425531915 0.4465973467215777 0.45320832317363685
0.04808510638297872 0.44795453736152785 0.4413325267369221
0.048297872340425534 0.4513704855630284 0.4277784379450284
0.04851063829787234 0.4553882371828859 0.4203904076893512
0.048723404255319146 0.4541425506188293 0.41388431524159147
0.04893617021276596 0.4564768373530142 0.4077869528202124
0.049148936170212765 0.45819467568339706 0.4013050844491438
0.04936170212765957 0.4571032144447446 0.39174538333362074
0.049574468085106384 0.45902010137275395 0.3838650244161922
0.04978723404255319 0.45799168635020787 0.378247413237513
0.05 0.457743038593063 0.3757338255601408
0.05021276595744681 0.4568758445821595 0.3678669686063142
0.050425531914893615 0.4607583072640565 0.3636845119806454
0.05063829787234043 0.4623606765822909 0.35871332204020606
0.050851063829787234 0.46401044410363645 0.3439769901019218
0.05106382978723404 0.46595803509142825 0.3375615542493707
0.05127659574468085 0.46789107491625653 0.33618081151735046
0.05148936170212766 0.4698241147410847 0.3348000687853303
0.051702127659574465 0.47142159257449934 0.33383300512902986
0.05191489361702128 0.47183965286269175 0.3352631431924255
0.052127659574468084 0.4736660623856694 0.33989029683816446
0.05234042553191489 0.4731706434590557 0.34498946542268144
0.0525531914893617 0.46993422181070915 0.34787698024333963
0.05276595744680851 0.46967290310038096 0.3542017985423545
0.05297872340425532 0.4683537526363957 0.36310025786239697
0.05319148936170213 0.46671985788481485 0.3659013190034197
0.053404255319148934 0.46744195262718863 0.37224022432583526
0.05361702127659575 0.46670220722751093 0.38178267088034823
0.05382978723404255 0.4705963405817903 0.38633367650392086
0.05404255319148936 0.4706631922097859 0.3820737132843852
0.05425531914893617 0.46816121582531584 0.38707766605332533
0.05446808510638298 0.46574496836394974 0.39146804449352285
0.054680851063829784 0.46082425503037816 0.40077454807309804
0.0548936170212766 0.46069119798946884 0.4062969816917254
0.0551063829787234 0.4563219971542347 0.4099822379301504
0.05531914893617021 0.45219833234624174 0.4160723143011659
0.05553191489361702 0.44989298227918134 0.41677485615487625
0.05574468085106383 0.4479726428920372 0.4213176083671305
0.055957446808510634 0.4484802678195906 0.427785044953668
0.05617021276595745 0.450661299375563 0.4383342642988647
0.05638297872340425 0.4528447144581121 0.44841522068155537
0.056595744680851066 0.4550385786708134 0.4566955946050902
0.05680851063829787 0.4572298839954854 0.4654608159037786
0.05702127659574468 0.45690254661494334 0.4767588460534053
0.05723404255319149 0.4596394455985817 0.48113431614083857
0.0574468085106383 0.4577715997912143 0.4888940600437407
0.057659574468085104 0.45680021747285715 0.5012649793990225
0.05787234042553192 0.45418777242193786 0.514600952252792
0.05808510638297872 0.45071194757766053 0.5269833840981916
0.05829787234042553 0.44799376463617063 0.5367987567948387
0.05851063829787234 0.44612006697471235 0.5442935474406718
0.05872340425531915 0.4442463693132542 0.5517883380865047
0.058936170212765954 0.4420820810933728 0.5617670933115326
0.05914893617021277 0.4389303618937024 0.5678466838801629
0.05936170212765957 0.4379831039992411 0.5727887154133651
0.059574468085106386 0.4393354099929016 0.579324861049391
0.05978723404255319 0.4406877159865621 0.5858610066854166
0.06 0.4420400219802225 0.5923971523214423
0.06021276595744681 0.4421740323658947 0.5985557923284885
0.06042553191489362 0.43822329770604 0.6033850860834352
0.06063829787234042 0.4390635368649826 0.6064845530409189
0.060851063829787236 0.43952341536009526 0.6088677164734038
0.06106382978723404 0.44307225543539525 0.6111382510991694
0.06127659574468085 0.4402427815602048 0.6111382510991694
0.06148936170212766 0.43805552712333484 0.6122620107369484
0.06170212765957447 0.43587270280859763 0.6124160778332193
0.06191489361702127 0.4352711284807034 0.6089475457937759
0.062127659574468086 0.4329639320198423 0.5966711500845556
0.06234042553191489 0.4323400097703958 0.5816920714967893
0.0625531914893617 0.43425457928865624 0.5655137134689323
0.0627659574468085 0.433915037757767 0.5362787276299498
0.06297872340425532 0.43059389172121465 0.5058024996060345
0.06319148936170213 0.4323286738443635 0.4728225566935808
0.06340425531914894 0.43385627484942485 0.4413410954340486
0.06361702127659574 0.43221011309583246 0.41192382307048186
0.06382978723404255 0.431362970200293 0.3963372223358253
0.06404255319148935 0.4290090297540739 0.38933519288925994
0.06425531914893617 0.42573406883280757 0.39376879443013485
0.06446808510638298 0.4255007327796776 0.4065159200221471
0.06468085106382979 0.4256313926837052 0.42231411368152344
0.06489361702127659 0.4262340070449731 0.43575470238856867
0.0651063829787234 0.42621786007517776 0.4481073361100256
0.06531914893617022 0.42927917669570537 0.46269518454438424
0.06553191489361702 0.4328551986684897 0.47394419883888395
0.06574468085106383 0.43636087007820146 0.4803276507328179
0.06595744680851064 0.4421232616799004 0.4870702959567392
0.06617021276595744 0.4447159681660451 0.4928078206038448
0.06638297872340425 0.4430874450415241 0.4900270276399163
0.06659574468085107 0.44418702879966243 0.48400056279779713
0.06680851063829787 0.4465685142679168 0.48161907732954273
0.06702127659574468 0.44894999973617117 0.4792375918612884
0.06723404255319149 0.4510098763443885 0.47601045309059037
0.06744680851063829 0.4516007034928445 0.4689205273091202
0.06765957446808511 0.45345361961455966 0.4582195357573601
0.06787234042553192 0.45771246756634243 0.4402786104380988
0.06808510638297872 0.45969711773326827 0.41550736597149257
0.06829787234042553 0.46125866164689455 0.3844908618134357
0.06851063829787234 0.4643216289255406 0.3518985128940814
0.06872340425531914 0.46274515677618555 0.3185591223745786
0.06893617021276596 0.467513434294089 0.2984695536800336
0.06914893617021277 0.46624789527556815 0.28116557018667176
0.06936170212765957 0.46196521118310624 0.2759786819127775
0.06957446808510638 0.46305980810812053 0.28185190267508803
0.06978723404255319 0.4614297422092305 0.29328771523845415
0.06999999999999999 0.45720665256235876 0.3090700656427063
0.07021276595744681 0.4565016091921544 0.3222217587510499
0.07042553191489362 0.4575876568137636 0.3306172615947335
0.07063829787234042 0.45867366045144914 0.3307743121914429
0.07085106382978723 0.46443595552959904 0.3269173095687709
0.07106382978723404 0.4665675145284196 0.3245233392103436
0.07127659574468086 0.46762327351915145 0.31378870411279486
0.07148936170212766 0.47012526791797155 0.30710491402093126
0.07170212765957447 0.4733756717147044 0.29984485516514675
0.07191489361702127 0.4737443184408361 0.29702905686056
0.07212765957446808 0.47483689900834575 0.3028519423012148
0.07234042553191489 0.4747306387498999 0.3128921383822683
0.0725531914893617 0.47364072276198194 0.32203326015806566
0.07276595744680851 0.478337469579181 0.33298524690721526
0.07297872340425532 0.47171342111922965 0.3468633457862837
0.07319148936170213 0.46835136056376986 0.3629669538259609
0.07340425531914893 0.4663503310206413 0.3777184154412402
0.07361702127659574 0.464654087962098 0.3897384630121215
0.07382978723404256 0.4634094908045227 0.4030259929538033
0.07404255319148936 0.4635581565893002 0.4153043193794764
0.07425531914893617 0.4611963422242268 0.4233344882207263
0.07446808510638298 0.4586526471066386 0.4322615771209607
0.07468085106382978 0.45676599902296044 0.4460444398481639
0.0748936170212766 0.45676599902296044 0.46621887668348816
0.07510638297872341 0.45633853095754634 0.47703983517247434
0.07531914893617021 0.45585682371717623 0.4866739799798764
0.07553191489361702 0.45431363491908483 0.5005715238033136
0.07574468085106383 0.4545854239736584 0.5121463745680458
0.07595744680851063 0.45481191988275516 0.5212366770941608
0.07617021276595745 0.45675159798603726 0.5202879721165519
0.07638297872340426 0.4563544011154963 0.5096708016282626
0.07659574468085106 0.46021997350536753 0.4928196898403755
0.07680851063829787 0.45809214064044435 0.4786341374075546
0.07702127659574468 0.4561168389006824 0.4665495922707283
0.0772340425531915 0.4557889594528579 0.4638398373921617
0.0774468085106383 0.4546832159001464 0.4718983526590147
0.07765957446808511 0.4521912691437746 0.48812253657848553
0.07787234042553191 0.44840689423586233 0.5108287860259598
0.07808510638297872 0.4491926518034562 0.5262443876588109
0.07829787234042553 0.4469447166169164 0.5314671205482934
0.07851063829787235 0.44406448461162684 0.5272916582027112
0.07872340425531915 0.44197125520077335 0.5142741751720747
0.07893617021276596 0.4427469254388298 0.49742443927716873
0.07914893617021276 0.4430874450415241 0.48212750715739755
0.07936170212765957 0.44117557725176476 0.4743949226352527
0.07957446808510638 0.441954074820956 0.4753297508549097
0.0797872340425532 0.4414023456496151 0.4766746495963901
0.08 0.4413372089831651 0.48176134168193563
0.08021276595744681 0.4401563263312165 0.4906253045479335
0.08042553191489361 0.43833538087331875 0.4986455668550643
0.08063829787234042 0.43722520762090866 0.5076025579102801
0.08085106382978724 0.4364013271380658 0.5179180997241892
0.08106382978723405 0.43531214525308637 0.530528805082161
0.08127659574468085 0.43506833498542835 0.5343577120516151
0.08148936170212766 0.4323400097703958 0.540700244161856
0.08170212765957446 0.4326290000157968 0.5449885505775944
0.08191489361702127 0.4333170493404983 0.5464860135820114
0.08212765957446809 0.433803260115791 0.5466582574919158
0.0823404255319149 0.43486168575869755 0.5479469872946829
0.0825531914893617 0.4359557439101532 0.5530078353299548
0.08276595744680851 0.4338473828572752 0.5584712646891041
0.08297872340425531 0.44339087565400637 0.5685131778051032
0.08319148936170212 0.4382022471910112 0.5800654969754617
0.08340425531914894 0.43813041413289244 0.5839966423106532
0.08361702127659575 0.43692366191146054 0.5867122618466047
0.08382978723404255 0.43500996793168206 0.586973422395626
0.08404255319148936 0.43429408891060084 0.5865548826924317
0.08425531914893616 0.43381184359798486 0.5813824655180876
0.08446808510638298 0.4338994354547873 0.5732598168013691
0.08468085106382979 0.4384760002585236 0.5645267073576306
0.0848936170212766 0.4393411796714338 0.5573953926353449
0.0851063829787234 0.4410504838693124 0.5442612539701339
0.08531914893617021 0.44236960550607773 0.5250990083616197
0.08553191489361701 0.4458453202309629 0.5111961494620789
0.08574468085106383 0.4480854256926495 0.49184502651093953
0.08595744680851064 0.44992672203224227 0.471637052890105
0.08617021276595745 0.4496297099206449 0.45513243240917467
0.08638297872340425 0.4477163972014171 0.4434561068456312
0.08659574468085106 0.44773528707698546 0.43291959115307665
0.08680851063829788 0.44894968246213973 0.42697166758407085
0.08702127659574468 0.45135026251296595 0.42167661224812775
0.08723404255319149 0.4514189112527485 0.420100385278761
0.0874468085106383 0.45006275699299214 0.4172515164917538
0.0876595744680851 0.44992672203224227 0.40132454846995275
0.08787234042553191 0.4563244426490615 0.3852589363837995
0.08808510638297873 0.4614497722090459 0.36989056694011924
0.08829787234042553 0.4629206555506355 0.3513027438798374
0.08851063829787234 0.46401513031611885 0.33905652891859744
0.08872340425531915 0.4591443416397057 0.32978958053509694
0.08893617021276595 0.46198740849859715 0.31179001665633105
0.08914893617021276 0.4636052760136786 0.30873107755544404
0.08936170212765958 0.4636052760136786 0.3150190412516653
0.08957446808510638 0.4636052760136786 0.3213070049478862
0.08978723404255319 0.4636052760136786 0.3275949686441071
0.09 0.4636052760136786 0.33388293234032795
0.0902127659574468 0.4636052760136786 0.3401708960365488
0.09042553191489362 0.4636052760136786 0.33970205977000867
0.09063829787234043 0.4636052760136786 0.338862095086619
0.09085106382978723 0.4658124296909916 0.34185494155651663
0.09106382978723404 0.4669897573583997 0.34911954088236535
0.09127659574468085 0.4665363947239862 0.35647204714847364
0.09148936170212765 0.46829471080234647 0.3614457344454922
0.09170212765957447 0.4705008764319195 0.366402482910094
0.09191489361702128 0.4722045658556821 0.3754776484155257
0.09212765957446808 0.47355580489681076 0.3858826626953927
0.09234042553191489 0.4704445530043966 0.3968045327613753
0.0925531914893617 0.47121238315405045 0.40700817530389416
0.0927659574468085 0.47411560593701063 0.4187691090838088
0.09297872340425532 0.467513434294089 0.42780256501185804
0.09319148936170213 0.467513434294089 0.43544645989434827
0.09340425531914893 0.46572433325446144 0.44202791642113276
0.09361702127659574 0.46207529616404736 0.4427921867399046
0.09382978723404255 0.4642890042459964 0.44002618736637195
0.09404255319148937 0.4642330052182321 0.4358634119219845
0.09425531914893617 0.4643506797630777 0.43429408891060084
0.09446808510638298 0.46458231558378116 0.43429408891060084
0.09468085106382979 0.46458231558378116 0.4418553812872813
0.09489361702127659 0.4634587166177666 0.4535906377221102
0.0951063829787234 0.4611621831966444 0.46442128659194853
0.09531914893617022 0.45817052437145406 0.47612344067326184
0.09553191489361702 0.4560019337058741 0.48391013273281663
0.09574468085106383 0.45481191988275516 0.4797674021999572
0.09595744680851064 0.4536204300292348 0.4660122823101641
0.09617021276595744 0.453566532442642 0.4528785486023594
0.09638297872340426 0.45465775473798065 0.44663522433093
0.09659574468085107 0.45949605236089236 0.4507026962299689
0.09680851063829787 0.4587200781631655 0.47052152499672195
0.09702127659574468 0.4585297196791811 0.48600144467549644
0.09723404255319149 0.4583517318706915 0.5023668605494827
0.09744680851063829 0.4588612213111839 0.5132931509408923
0.09765957446808511 0.45721089357239764 0.5192006388450013
0.09787234042553192 0.4554661069835462 0.5355536641643708
0.09808510638297872 0.45336960518450725 0.5460953857166296
0.09829787234042553 0.4470574477529194 0.5509451893222901
0.09851063829787234 0.44410714269785134 0.5572731004848537
0.09872340425531914 0.4406985111480776 0.5666292856276919
0.09893617021276596 0.43676980688345957 0.5707856902610344
0.09914893617021277 0.4349127947957598 0.5698087047006759
0.09936170212765957 0.43282486453964697 0.5608121615353528
0.09957446808510638 0.4307919620003155 0.5534040173436842
0.09978723404255319 0.42977632055253645 0.5469041372868847
0.1 0.42940889106008795 0.5379954928650985
0.10021276595744681 0.4299764992365711 0.5269826501604028
0.10042553191489362 0.42922272658546706 0.5165977944708378
0.10063829787234042 0.42745481191988266 0.5020102170766406
0.10085106382978723 0.4276177372211581 0.473373110526955
0.10106382978723404 0.4283146827121587 0.44818808540626615
0.10127659574468086 0.4263158420311377 0.4356004467762364
0.10148936170212766 0.42469832949910896 0.4287811240690532
0.10170212765957447 0.42493978757676615 0.4312273484345576
0.10191489361702127 0.4230121802126518 0.435989416474601
0.10212765957446808 0.4217126305931377 0.44344761332313537
0.10234042553191489 0.42383817175169447 0.4498242367988058
0.1025531914893617 0.42642089815229534 0.4594696209433292
0.10276595744680851 0.4261449538206085 0.4701545665100497
0.10297872340425532 0.42621596233751224 0.48052796729305114
0.10319148936170212 0.43211334288850006 0.4920019639765758
0.10340425531914893 0.43776089150419595 0.5072250291779519
0.10361702127659575 0.4373009470082689 0.5126049470607382
0.10382978723404256 0.43631757338087607 0.5170301283840061
0.10404255319148936 0.43362714403822694 0.5252055244070585
0.10425531914893617 0.4333170493404983 0.53274010258526
0.10446808510638297 0.4361304662414019 0.5357100345189297
0.10468085106382978 0.4334207125239369 0.5305026904335644
0.1048936170212766 0.43499990557080287 0.5220773627040827
0.1051063829787234 0.4382022471910112 0.499054701502352
0.10531914893617021 0.43884335830730203 0.47410902020499324
0.10553191489361702 0.4432841532626655 0.4378613970845667
0.10574468085106382 0.4463661286011132 0.40260014783457343
0.10595744680851064 0.44894968246213973 0.3771354455494696
0.10617021276595745 0.44894968246213973 0.3725673691181868
0.10638297872340426 0.44951518832589926 0.37870359894656663
0.10659574468085106 0.4510160348085359 0.3871883527761028
0.10680851063829787 0.4512833334003115 0.3959224141793769
0.10702127659574467 0.45160766126640145 0.4071367005975756
0.1072340425531915 0.45106949794279677 0.4147359190359401
0.1074468085106383 0.45184193989582705 0.41760669366561587
0.1076595744680851 0.45564034941053383 0.41318181776915025
0.10787234042553191 0.4540379256573403 0.403320351896686
0.10808510638297872 0.4561445778117124 0.39059311110837763
0.10829787234042552 0.45964410007627743 0.3798979789268002
0.10851063829787234 0.4612610063278171 0.37313078653979403
0.10872340425531915 0.46236668230736183 0.3705941396924721
0.10893617021276596 0.464326453338988 0.37065858573153604
0.10914893617021276 0.46262823644357587 0.3668711813557578
0.10936170212765957 0.46276588530874674 0.3647866305681461
0.10957446808510639 0.4638774398804725 0.36585238693077143
0.1097872340425532 0.4641733532329762 0.3720134039063475
0.11 0.46409062679548396 0.37226158321882435
0.1102127659574468 0.4640376996060322 0.3696972848984346
0.11042553191489361 0.4642634979458303 0.36751599384942396
0.11063829787234042 0.46458231558378116 0.3660869421899931
0.11085106382978724 0.46643839494180583 0.3603330809293452
0.11106382978723404 0.46742937487558034 0.36003908158280407
0.11127659574468085 0.4665363947239862 0.3593789664378773
0.11148936170212766 0.46796160310335505 0.3528323377343898
0.11170212765957446 0.46945851390973775 0.3448904684839358
0.11191489361702127 0.4684904738641915 0.3456665073542831
0.11212765957446809 0.4700247958156913 0.34712768857711784
0.1123404255319149 0.4704445530043966 0.3527693382743944
0.1125531914893617 0.4733756717147044 0.35664181976762455
0.1127659574468085 0.4733756717147044 0.36472699776036077
0.11297872340425531 0.4733756717147044 0.3691789527611811
0.11319148936170213 0.47151125330733934 0.3736279748314002
0.11340425531914894 0.46768468895765986 0.376860264355535
0.11361702127659574 0.4643565956556635 0.3798055929129735
0.11382978723404255 0.4627483592046963 0.37884307893699415
0.11404255319148936 0.4616993480623206 0.3795317217960086
0.11425531914893616 0.4598362984930232 0.38439270620367333
0.11446808510638298 0.46145887046455064 0.39849746258367236
0.11468085106382979 0.4603468321499045 0.4088959959782298
0.1148936170212766 0.45969711773326827 0.4099189686193173
0.1151063829787234 0.45969711773326827 0.40942308058009913
0.11531914893617021 0.4591094222857336 0.4086927087629669
0.11553191489361703 0.4587200781631655 0.40930197730234336
0.11574468085106383 0.459533205687949 0.41230748223238617
0.11595744680851064 0.45781100547712844 0.4194006112648329
0.11617021276595745 0.4595132756456481 0.43502945726108144
0.11638297872340425 0.45751971120422996 0.4456836436927501
0.11659574468085106 0.456411240750965 0.4623548961290042
0.11680851063829788 0.4552974464018036 0.47437665741283036
0.11702127659574468 0.45418564106160725 0.4845236577766967
0.11723404255319149 0.4524139971536692 0.49158347316370193
0.1174468085106383 0.44862288313079146 0.5010612582208964
0.1176595744680851 0.4470329649248709 0.5064455706864469
0.11787234042553191 0.4422888567557869 0.5191269652129743
0.11808510638297873 0.44312177774855654 0.538925775308025
0.11829787234042553 0.4379513086032938 0.5520941440598806
0.11851063829787234 0.4383144198312302 0.5637120027250184
0.11872340425531915 0.43967965962837713 0.5710796287249633
0.11893617021276595 0.43976271943248724 0.5722464940677102
0.11914893617021277 0.4408436646240098 0.5744083844507553
0.11936170212765958 0.4403379972046924 0.5670341000391074
0.11957446808510638 0.4410625752636103 0.5579673998451969
0.11978723404255319 0.44218653673375374 0.5485315873502715
0.12 0.44391286988566664 0.5461987952945181
0.1202127659574468 0.4430874450415241 0.5447929633378787
0.12042553191489362 0.44270444448911733 0.5506946834617554
0.12063829787234043 0.44211040547142155 0.5589054347701056
0.12085106382978723 0.44331892787773847 0.5634947950003568
0.12106382978723404 0.43902253977872563 0.5664011852340599
0.12127659574468085 0.4380574485622749 0.567171470444553
0.12148936170212765 0.4363020962204795 0.5728719233561484
0.12170212765957447 0.4361585080789921 0.5732130278087967
0.12191489361702128 0.4356760243081566 0.57640492240146
0.12212765957446808 0.4378480524859276 0.5836955985911488
0.12234042553191489 0.43995512361065103 0.593508077788237
0.1225531914893617 0.4415813288058641 0.6072724869182422
0.12276595744680852 0.4432368514864099 0.6147819992618572
0.12297872340425532 0.443370967760409 0.621571583759424
0.12319148936170213 0.4447372615570884 0.6197152242215925
0.12340425531914893 0.4431353222827702 0.6160952648115517
0.12361702127659574 0.44591106017174276 0.6086466540585187
0.12382978723404255 0.44434055521125165 0.6031306924909886
0.12404255319148937 0.44355587410653596 0.5990524090991598
0.12425531914893617 0.44503126271938376 0.5954748335904912
0.12446808510638298 0.4434381972238128 0.585685338001267
0.12468085106382978 0.44384734589017205 0.5734681546609655
0.12489361702127659 0.4502967869316862 0.555053708473382
0.1251063829787234 0.4500135224679888 0.5239869630475635
0.12531914893617022 0.4509990989457721 0.49278312539597885
0.125531914893617 0.4485307379354093 0.4551204397822548
0.12574468085106383 0.4501382477691769 0.4218846893507717
0.12595744680851065 0.44899843059281874 0.39504292612738223
0.12617021276595744 0.44765186245236416 0.369999264005834
0.12638297872340426 0.443333635088838 0.3469202456721886
0.12659574468085105 0.43895048715527407 0.32943857607423616
0.12680851063829787 0.4363919032240066 0.32591456421581366
0.1270212765957447 0.4382144300752623 0.3288773698556555
0.12723404255319148 0.4401563263312165 0.348370718795889
0.1274468085106383 0.440635538073168 0.3738641610042188
0.1276595744680851 0.4431794965139804 0.39398299653697016
0.12787234042553192 0.44693038415003195 0.4063017180258962
0.1280851063829787 0.4513058678059266 0.40848895388435186
0.12829787234042553 0.45638465433123143 0.40693698094772834
0.12851063829787235 0.45939238512338026 0.4052876344174112
0.12872340425531914 0.46158277976867573 0.39272609857737384
0.12893617021276596 0.4618103967273205 0.380600593448998
0.12914893617021275 0.4628268638221816 0.355753790198839
0.12936170212765957 0.45969711773326827 0.3366394727388627
0.1295744680851064 0.4584324262330514 0.31840828765473544
0.12978723404255318 0.4578416371824858 0.3041954550407594
0.13 0.45806699323354866 0.28999548458132135
0.1302127659574468 0.45697415774400274 0.27732638491534434
0.13042553191489362 0.454988777490907 0.25815303442937215
0.13063829787234044 0.45771347869289936 0.23441637850656427
0.13085106382978723 0.456912537015275 0.21494888485457755
0.13106382978723405 0.45801054436902416 0.20744638640458132
0.13127659574468084 0.45910303103168487 0.21225565786664038
0.13148936170212766 0.45969711773326827 0.22587125249719384
0.13170212765957448 0.46247055220582545 0.24829050207794714
0.13191489361702127 0.4668429672048724 0.2719908760186823
0.1321276595744681 0.4691215064778373 0.29575863347480474
0.13234042553191488 0.4687238144696897 0.32047586270275463
0.1325531914893617 0.47020744742276827 0.34301243221498195
0.1327659574468085 0.47140113297578967 0.36260192751633785
0.13297872340425532 0.47142159257449934 0.37402422869517205
0.13319148936170214 0.4716084326411493 0.3868239701199823
0.13340425531914893 0.4764676273000903 0.4004810022119485
0.13361702127659575 0.47142159257449934 0.4108849772700864
0.13382978723404254 0.4703205949996834 0.4189093717983862
0.13404255319148936 0.470709422329795 0.425232352228094
0.13425531914893618 0.47287765713815155 0.43440802640862003
0.13446808510638297 0.4718012538360551 0.44672748772523146
0.1346808510638298 0.46929062725280285 0.45587601401963657
0.13489361702127659 0.46928096545434556 0.46248598813398756
0.1351063829787234 0.46859692691706367 0.4696993816342913
0.13531914893617022 0.46652557864881355 0.4792973975487698
0.13553191489361702 0.4644664215728164 0.49079660248320156
0.13574468085106384 0.4633707813031009 0.4982315896606328
0.13595744680851063 0.4629802897249099 0.5023348055364482
0.13617021276595745 0.4636052760136786 0.5031096074244212
0.13638297872340424 0.46885387194543554 0.5058072926094889
0.13659574468085106 0.4618736527608054 0.5030866906369269
0.13680851063829788 0.4585615830330047 0.5025283636876213
0.13702127659574467 0.46152399731893257 0.4989482999434262
0.1372340425531915 0.4605184592469561 0.49741241582623236
0.13744680851063829 0.4589086991547128 0.49197335815902
0.1376595744680851 0.4587840197805645 0.48863999723471246
0.13787234042553193 0.45507672205979194 0.49167462136961687
0.13808510638297872 0.4517880214158788 0.4954982316768656
0.13829787234042554 0.4496078001227558 0.5039524095349066
0.13851063829787233 0.44590127025546045 0.5136688810816536
0.13872340425531915 0.4432831169342781 0.5224220022189205
0.13893617021276597 0.4460185637518319 0.5311330797467555
0.13914893617021276 0.44560878847806895 0.5370198355292937
0.13936170212765958 0.4423220990024829 0.5386256293805165
0.13957446808510637 0.4405267712027759 0.5422731815380208
0.1397872340425532 0.44210604350580096 0.5442132215299524
0.13999999999999999 0.4436909269746932 0.5431190388289219
0.1402127659574468 0.44406448461162684 0.5427454811919883
0.14042553191489363 0.44153521251206274 0.5520194788903899
0.14063829787234042 0.44593205610206377 0.5506137023426698
0.14085106382978724 0.43917928676111373 0.5534929164631168
0.14106382978723403 0.43939452243928856 0.5526319737504177
0.14127659574468085 0.4401563263312165 0.5492504493230512
0.14148936170212767 0.4378961818098413 0.5486077186126037
0.14170212765957446 0.43583485579455256 0.5486077186126037
0.14191489361702128 0.43557058164418766 0.5479301322059854
0.14212765957446807 0.4344748974662736 0.5460382170136416
0.1423404255319149 0.4397637372336352 0.544764991848457
0.1425531914893617 0.43342923486587015 0.5447556530948793
0.1427659574468085 0.4352711284807034 0.5442620760377903
0.14297872340425533 0.4355659548578112 0.5372706305872598
0.14319148936170212 0.43624816805080613 0.5338401942371267
0.14340425531914894 0.4367823623470862 0.5283500348693569
0.14361702127659573 0.43722520762090866 0.5248283590605157
0.14382978723404255 0.4356857088973604 0.523411979998265
0.14404255319148937 0.4343827049504299 0.5258699603807571
0.14425531914893616 0.43438484013798195 0.5193872827369073
0.14446808510638298 0.4370721121614594 0.5210028865442401
0.14468085106382977 0.43679944962862205 0.5130331297144733
0.1448936170212766 0.4393817472061844 0.5059876357629806
0.1451063829787234 0.442655616285954 0.4966734453185504
0.1453191489361702 0.44468754261213983 0.49167034711573027
0.14553191489361703 0.44725630505051345 0.482103260501415
0.14574468085106382 0.451388020682634 0.4749686868970739
0.14595744680851064 0.45091566959249596 0.46663165864519546
0.14617021276595746 0.45341088099740906 0.46069719841417534
0.14638297872340425 0.449474413788239 0.4512747618885385
0.14659574468085107 0.447626589901758 0.4449804047809946
0.14680851063829786 0.44699560332193444 0.43888886112978415
0.14702127659574468 0.44524081588811804 0.4313694431875733
0.14723404255319147 0.44687784010072334 0.424485518954169
0.1474468085106383 0.44633093840827986 0.4168236483762193
0.14765957446808511 0.4488282702672114 0.4073012175325133
0.1478723404255319 0.4511388535142453 0.39403704654699484
0.14808510638297873 0.45455598513632717 0.3785738742898534
0.14829787234042552 0.457743038593063 0.3671713574533382
0.14851063829787234 0.458976393353007 0.3585494116330186
0.14872340425531916 0.462792768423237 0.3551538837322912
0.14893617021276595 0.4619817830547748 0.3519032180710332
0.14914893617021277 0.4606741573033708 0.3502686858817783
0.14936170212765956 0.4597914917328498 0.34762068917021505
0.14957446808510638 0.45969711773326827 0.34834078640361316
0.1497872340425532 0.45969711773326827 0.3501730584538979
0.15 0.45969711773326827 0.35616298391704065
0.15021276595744681 0.45969711773326827 0.3600080075516872
0.1504255319148936 0.45969711773326827 0.3611676749333629
0.15063829787234043 0.45969711773326827 0.3616348333336665
0.15085106382978725 0.4629548046595767 0.35906097598154163
0.15106382978723404 0.46227963571936953 0.35941064273690787
0.15127659574468086 0.46165119687347334 0.36003908158280407
0.15148936170212765 0.4656915940338687 0.3580519427226027
0.15170212765957447 0.46931603702062935 0.3563505808041726
0.15191489361702126 0.46957024382617696 0.3538424199649616
0.15212765957446808 0.4751188263480291 0.3561420065830081
0.1523404255319149 0.47622164869486083 0.3547079348123155
0.1525531914893617 0.4733756717147044 0.35674873302309684
0.15276595744680851 0.4726403555825308 0.3600492274011907
0.1529787234042553 0.4715467889955551 0.3652753368981409
0.15319148936170213 0.4762587372230427 0.376543037230215
0.15340425531914895 0.4731681298505156 0.3799949567132335
0.15361702127659574 0.4712040953725125 0.38414052287122663
0.15382978723404256 0.46944704270691584 0.3867516534080676
0.15404255319148935 0.467513434294089 0.38784095221272047
0.15425531914893617 0.4647241627230346 0.392836063629466
0.154468085106383 0.46127576879115245 0.4002469486338704
0.15468085106382978 0.4606741573033708 0.40839659643042525
0.1548936170212766 0.45976067746101706 0.41443549886980513
0.1551063829787234 0.456881572859109 0.42222823059808445
0.15531914893617021 0.45836930786625524 0.4321646246219406
0.155531914893617 0.4555970680385815 0.43223966843857725
0.15574468085106383 0.4524502470107606 0.43510927637417995
0.15595744680851065 0.45188080117244755 0.4367747946667446
0.15617021276595744 0.45188080117244755 0.43593521656746914
0.15638297872340426 0.4511153390789278 0.4360365905742231
0.15659574468085105 0.4509037616023448 0.43713377814536397
0.15680851063829787 0.4557889594528579 0.44509061609657047
0.1570212765957447 0.45593514737032975 0.44801891874423727
0.15723404255319148 0.45730456547006787 0.4559891461010824
0.1574468085106383 0.4587200781631655 0.46555872134265025
0.1576595744680851 0.45667369521143564 0.476537549953824
0.15787234042553192 0.45165120786543206 0.4913062667309591
0.15808510638297874 0.44992672203224227 0.5075523013589294
0.15829787234042553 0.4474661371839418 0.5180417745441733
0.15851063829787235 0.4441781266390102 0.5286881204526074
0.15872340425531914 0.4446437476224603 0.5402693185249465
0.15893617021276596 0.4403498836659307 0.558359608520567
0.15914893617021275 0.43988396795370294 0.5705673236911066
0.15936170212765957 0.4354920667944682 0.5863722629550382
0.1595744680851064 0.4333170493404983 0.6022968210526238
0.15978723404255318 0.43466820836242986 0.6115850299436909
0.16 0.43765667574953376 0.615477877508205
0.1602127659574468 0.4400370751272432 0.6123537930772187
0.16042553191489362 0.44052329442642285 0.6028326437447402
0.16063829787234044 0.4454712485030589 0.5936812338149514
0.16085106382978723 0.4421837685340829 0.5821205162467373
0.16106382978723405 0.4397411333847726 0.5686132391315017
0.16127659574468084 0.438127888883615 0.5544751468201952
0.16148936170212766 0.4410664375348232 0.5466871036556465
0.16170212765957448 0.43779236498242013 0.5403815198431919
0.16191489361702127 0.43362684276504077 0.5388373229115779
0.1621276595744681 0.43237645503378236 0.5444808887518737
0.16234042553191488 0.42753176607882404 0.5519236081176184
0.1625531914893617 0.4291974317425175 0.5592949611204197
0.1627659574468085 0.43172410417570767 0.5735432511037156
0.16297872340425532 0.42953372775001925 0.5801742496060409
0.16319148936170214 0.43061100183687323 0.579647913649204
0.16340425531914893 0.4323400097703958 0.5765890663690588
0.16361702127659575 0.4339059062645333 0.5736159818342699
0.16382978723404254 0.4360895289259365 0.571238267849833
0.16404255319148936 0.43530793277996926 0.5648861526109549
0.16425531914893618 0.4360972063169225 0.5556692265040064
0.16446808510638297 0.4360669554882518 0.549416631969449
0.1646808510638298 0.43934964649865627 0.541045255710919
0.16489361702127658 0.44412388942521264 0.5333942996601634
0.1651063829787234 0.44637901715388495 0.520795174259912
0.16531914893617022 0.4438028214129289 0.5013553384160637
0.16553191489361702 0.44394549816500256 0.47623134643368675
0.16574468085106384 0.4460299019657619 0.4537640164755901
0.16595744680851063 0.4505144345135629 0.4268229561422771
0.16617021276595745 0.4540657942805333 0.4030642041033887
0.16638297872340424 0.4512060746483223 0.3734416003158394
0.16659574468085106 0.45146574177752685 0.3419932009292296
0.16680851063829788 0.45037686529121823 0.3125935357988974
0.16702127659574467 0.4524983082341955 0.28629594369580336
0.1672340425531915 0.448499788849998 0.27589617357134366
0.16744680851063828 0.4487650356876545 0.27149777425243876
0.1676595744680851 0.4509641573305801 0.2782395384712453
0.16787234042553192 0.4530078297017345 0.2890109482128758
0.16808510638297872 0.45302605244393157 0.30546084672025403
0.16829787234042554 0.4505136064310496 0.3215344733263207
0.16851063829787233 0.4524966624377534 0.33900264036946387
0.16872340425531915 0.45353466952005206 0.35819419525444735
0.16893617021276597 0.4513389124808664 0.3662256322557399
0.16914893617021276 0.4544305483876605 0.37305023544782473
0.16936170212765958 0.457743038593063 0.37764986605879397
0.16957446808510637 0.45760084775543647 0.37931378760288587
0.1697872340425532 0.4580629063727815 0.3845255571451231
0.17 0.46129647611778707 0.38668674803430403
0.1702127659574468 0.4611065107878217 0.3845774034365696
0.17042553191489362 0.46165119687347334 0.37853814322319823
0.17063829787234042 0.4629959733281609 0.3699879575429367
0.17085106382978724 0.46281287467787824 0.36072378612142253
0.17106382978723403 0.46262823644357587 0.34901139385676905
0.17127659574468085 0.4655593551538837 0.3398271506134702
0.17148936170212767 0.4655593551538837 0.32701871371086955
0.17170212765957446 0.4655593551538837 0.3181121994752524
0.17191489361702128 0.46514207600206403 0.31732413838364665
0.17212765957446807 0.4667235690220683 0.32114467307678257
0.1723404255319149 0.4691436212413197 0.3229115779189058
0.1725531914893617 0.4679295527471836 0.32521851894957143
0.1727659574468085 0.46927778209881565 0.32848921833630357
0.17297872340425532 0.4713973628021514 0.3318503126839167
0.17319148936170212 0.4704445530043966 0.3389872452161405
0.17340425531914894 0.4699206200186067 0.3481234666501553
0.17361702127659576 0.46925481840715666 0.35294389178215635
0.17382978723404255 0.4704445530043966 0.36164567536283837
0.17404255319148937 0.46863751288938565 0.3725271327584601
0.17425531914893616 0.4689193883934402 0.387193410019683
0.17446808510638298 0.46782760873656404 0.4036036330590629
0.17468085106382977 0.46562968526234294 0.4219718081474661
0.1748936170212766 0.4635223902158623 0.43919687676480734
0.1751063829787234 0.46262823644357587 0.45174574456973926
0.1753191489361702 0.46262823644357587 0.46227598160273214
0.17553191489361702 0.46218403804833347 0.46946751343429405
0.17574468085106382 0.4593883992476918 0.4728617098729664
0.17595744680851064 0.45499331445188473 0.47945433706667695
0.17617021276595746 0.4570710111519639 0.4828100536951808
0.17638297872340425 0.457743038593063 0.4850037018314085
0.17659574468085107 0.4557889594528579 0.4905963761107199
0.17680851063829786 0.4557889594528579 0.4864668895418533
0.17702127659574468 0.4554853065629258 0.4907641412756318
0.1772340425531915 0.45562530066334134 0.49560455022628735
0.1774468085106383 0.4583336774633793 0.4938935026868587
0.1776595744680851 0.45454379692884617 0.4984026583907281
0.1778723404255319 0.4557172625121457 0.5107075791607922
0.17808510638297873 0.44885261799794574 0.5222269396722604
0.17829787234042552 0.44404406678553404 0.531163931133407
0.17851063829787234 0.44336300846992543 0.537998065055676
0.17872340425531916 0.44402175426089274 0.5408768627532512
0.17893617021276595 0.44038707030963403 0.5459073438807137
0.17914893617021277 0.44016712405275327 0.5451934789780132
0.17936170212765956 0.4405191198181802 0.5481335842348516
0.17957446808510638 0.43942585299904563 0.5473933381861943
0.1797872340425532 0.43917928676111373 0.545806253954109
0.18 0.43917928676111373 0.5447103834722611
0.1802127659574468 0.4434566918123652 0.5438238195619678
0.1804255319148936 0.4384181252616956 0.5451313164735623
0.18063829787234043 0.43884855089827596 0.5486380546494254
0.18085106382978725 0.4368514160983805 0.552966153923891
0.18106382978723404 0.43470111143272655 0.556913018750978
0.18127659574468086 0.43429408891060084 0.5607323937787426
0.18148936170212765 0.43187392158531407 0.562922677907462
0.18170212765957447 0.431362970200293 0.5632633121641426
0.18191489361702126 0.431362970200293 0.5617337045588348
0.18212765957446808 0.4322957270852323 0.5660521621826259
0.1823404255319149 0.4356481705495101 0.5604092367719935
0.1825531914893617 0.4334585990057875 0.5583781143136297
0.1827659574468085 0.4318037157214275 0.5583781143136297
0.1829787234042553 0.43202062657220125 0.560351083429354
0.18319148936170213 0.431560660365728 0.5620885824286052
0.18340425531914895 0.43045993606880234 0.5686075115144751
0.18361702127659574 0.4332287451610804 0.5664151913229951
0.18382978723404256 0.43120299843147825 0.5720394593378519
0.18404255319148935 0.4303859306301905 0.5763827402778562
0.18425531914893617 0.4311942285749692 0.5729670421434271
0.184468085106383 0.4323400097703958 0.5664237433566605
0.18468085106382978 0.4329829420120227 0.5536193285397379
0.1848936170212766 0.43484109671062116 0.5402254580769278
0.1851063829787234 0.43879886384191613 0.5246312757369276
0.1853191489361702 0.438293120781635 0.5072994358964237
0.185531914893617 0.4423986150600397 0.49310959073519195
0.18574468085106383 0.4443274834027324 0.47517983966626975
0.18595744680851065 0.4461869107113776 0.46641314935523215
0.18617021276595744 0.4479726428920372 0.460651528891633
0.18638297872340426 0.4479726428920372 0.4609363091639007
0.18659574468085105 0.44871463154100044 0.4653611401182897
0.18680851063829787 0.44894968246213973 0.4673997422963743
0.1870212765957447 0.448942653518073 0.4733616138265709
0.18723404255319148 0.44847686360343497 0.469908930440306
0.1874468085106383 0.45237318811598404 0.45649660260028085
0.1876595744680851 0.45456907792339774 0.44112202243597365
0.18787234042553191 0.4562770789950067 0.42111245981516837
0.18808510638297873 0.4579814212446065 0.3986909170116777
0.18829787234042553 0.46090524258037785 0.3796501376009546
0.18851063829787235 0.46165119687347334 0.3663718258376168
0.18872340425531914 0.4587635410630065 0.36203662362285033
0.18893617021276596 0.4625249791813383 0.3516032214485577
0.18914893617021278 0.46254787909260614 0.34501550427266875
0.18936170212765957 0.4652149552122432 0.3391206904141902
0.1895744680851064 0.46458231558378116 0.33474048422525515
0.18978723404255318 0.4651628734555631 0.3280375106456757
0.19 0.4634641418523057 0.3213736348898143
0.1902127659574468 0.46262823644357587 0.3159071498216672
0.19042553191489361 0.4663692931146483 0.3001310346737952
0.19063829787234043 0.46602553139143155 0.28258685848134124
0.19085106382978723 0.4710272387262409 0.26681712352425635
0.19106382978723405 0.4688279794467159 0.2610383180086535
0.19127659574468084 0.467513434294089 0.2617051940658444
0.19148936170212766 0.46919365053905737 0.26555245246927234
0.19170212765957448 0.4704445530043966 0.2787888590357396
0.19191489361702127 0.4704445530043966 0.29183147532480536
0.1921276595744681 0.4704445530043966 0.30930270627527345
0.19234042553191488 0.4721202972351619 0.3269560362669732
0.1925531914893617 0.4688749939910504 0.3455127910828737
0.19276595744680852 0.4704445530043966 0.3688720280944857
0.19297872340425531 0.46958116807898814 0.3947120352955766
0.19319148936170213 0.46794153866538196 0.4193208288653156
0.19340425531914893 0.467513434294089 0.4408223168338716
0.19361702127659575 0.46514304866629236 0.45805740291831853
0.19382978723404254 0.46640388869851046 0.4725143825491118
0.19404255319148936 0.4655610812053278 0.4782522393079967
0.19425531914893618 0.4647968092450261 0.4842303538164554
0.19446808510638297 0.46720645568484004 0.4864402684776431
0.1946808510638298 0.467745305638709 0.49027350085831706
0.19489361702127658 0.465514797824373 0.4852783758739783
0.1951063829787234 0.46595159120030405 0.47768316713343206
0.19531914893617022 0.4627501559908192 0.46619985357495
0.19553191489361701 0.46000638811279676 0.457693810161546
0.19574468085106383 0.4568754594288672 0.4501821296460247
0.19595744680851063 0.4587200781631655 0.4384822412038363
0.19617021276595745 0.45810749411883306 0.4144896944858397
0.19638297872340427 0.4545001556330164 0.38002731440247334
0.19659574468085106 0.45055288614613737 0.34205825924098077
0.19680851063829788 0.44782464502560637 0.30870061209580846
0.19702127659574467 0.4463147060580741 0.2859332956106122
0.1972340425531915 0.447616087721173 0.28010011441982396
0.19744680851063828 0.44429278720104404 0.29464125959836446
0.1976595744680851 0.44479408844915286 0.3223310986680748
0.19787234042553192 0.441133365901319 0.366115921800332
0.19808510638297872 0.441133365901319 0.41949148183983814
0.19829787234042554 0.44000890980207913 0.4718261779004906
0.19851063829787233 0.4391973419180832 0.5236199584002309
0.19872340425531915 0.4407748502862156 0.5660878904172688
0.19893617021276597 0.4418652128117359 0.6006061599386068
0.19914893617021276 0.44211040547142155 0.6243245748731436
0.19936170212765958 0.44307563195643346 0.6373883755559424
0.19957446808510637 0.4438234266759212 0.6443883739513924
0.1997872340425532 0.44879641812368715 0.6338285505413045
0.2 0.445388257996871 0.6220429345594728
0.2002127659574468 0.44555020143686486 0.6137219523150156
0.20042553191489362 0.4450415241817294 0.6060370487853555
0.20063829787234042 0.4450415241817294 0.6004865098727309
0.20085106382978724 0.4417218297074829 0.5886247692166374
0.20106382978723403 0.43922754025635297 0.579088959266741
0.20127659574468085 0.43979500899955576 0.5613829792648882
0.20148936170212767 0.4366665803740793 0.5493777844684652
0.20170212765957446 0.43689979481717006 0.5313480214722699
0.20191489361702128 0.43429408891060084 0.5094819067908128
0.20212765957446807 0.4337587108786546 0.49288954218596287
0.2023404255319149 0.4314097123347665 0.48358081225286914
0.2025531914893617 0.429629601659506 0.478166672392787
0.2027659574468085 0.42940889106008795 0.4799061358006914
0.20297872340425532 0.4255007327796776 0.4861762431575254
0.20319148936170212 0.42589529421089334 0.49415654364100253
0.20340425531914894 0.42768462705392474 0.49734203069918537
0.20361702127659576 0.42586334226540234 0.5056985235906517
0.20382978723404255 0.4264777723497801 0.515330427025295
0.20404255319148937 0.42766847679980485 0.5224869575145098
0.20425531914893616 0.4284318514899854 0.528018770922881
0.20446808510638298 0.43093764557735065 0.5315727212979173
0.20468085106382977 0.4342192729615366 0.5281896422392017
0.2048936170212766 0.4364372358309315 0.5222593508893095
0.2051063829787234 0.43926489058549156 0.5100338352265732
0.2053191489361702 0.4434186065621698 0.4911784305543562
0.20553191489361702 0.44542794814707365 0.4709890640428339
0.20574468085106382 0.44699560332193444 0.45339195049956904
0.20595744680851064 0.44699560332193444 0.43789262908436494
0.20617021276595746 0.4494063942996764 0.4286689099625364
0.20638297872340425 0.44992672203224227 0.4256129370999053
0.20659574468085107 0.4499922531925043 0.4319527506426513
0.20680851063829786 0.45035955378852227 0.44178894977268407
0.20702127659574468 0.4476699260429899 0.4519768509526126
0.2072340425531915 0.44784392808563467 0.45999256530871574
0.2074468085106383 0.45058758059871007 0.46165119687347334
0.2076595744680851 0.4498798277863246 0.4543142944576894
0.2078723404255319 0.4528985255245971 0.441426538252447
0.20808510638297872 0.45565606597227293 0.4282521728033924
0.20829787234042554 0.457743038593063 0.41704866689411757
0.20851063829787234 0.4584723399143166 0.40365512500208717
0.20872340425531916 0.46104209188132084 0.3850865337408142
0.20893617021276595 0.45927479885392763 0.3676476559969747
0.20914893617021277 0.46034563287705166 0.35494055658731477
0.20936170212765956 0.46165119687347334 0.3458957305605129
0.20957446808510638 0.4577238792592491 0.340095978752423
0.2097872340425532 0.4594856159160955 0.34042778957502806
0.21 0.4598420983965435 0.3403049826297186
0.2102127659574468 0.46262823644357587 0.33427266617802737
0.2104255319148936 0.46262823644357587 0.316285789391839
0.21063829787234042 0.46385667321854024 0.2914311314568075
0.21085106382978724 0.4671540865897442 0.2736290258114208
0.21106382978723404 0.469144696957119 0.26524906300569784
0.21127659574468086 0.4679182769853302 0.2633121641426477
0.21148936170212765 0.47018570418054545 0.268656703915561
0.21170212765957447 0.47139082263045445 0.2785831565750839
0.2119148936170213 0.4701533936113956 0.3014392009017521
0.21212765957446808 0.47009594295373963 0.32602924294173924
0.2123404255319149 0.47396284337814953 0.33677321683637534
0.2125531914893617 0.47235400859455334 0.351047258742145
0.2127659574468085 0.4701572068793974 0.36406208419555675
0.2129787234042553 0.46795769890248806 0.37087502720723686
0.21319148936170212 0.467513434294089 0.3743883618611777
0.21340425531914894 0.4665212424878807 0.3825412961673748
0.21361702127659574 0.4655593551538837 0.38446507083536874
0.21382978723404256 0.46503919565481316 0.383684831586763
0.21404255319148935 0.4651100126817856 0.38153395212506114
0.21425531914893617 0.467513434294089 0.38349350794127846
0.214468085106383 0.46690473019506984 0.3878769268015476
0.21468085106382978 0.4658093152806091 0.3944398247895221
0.2148936170212766 0.4655593551538837 0.4021226753369962
0.2151063829787234 0.4674914053812693 0.4088249733494747
0.2153191489361702 0.4602352092170165 0.42410593237160993
0.21553191489361703 0.4558405941492226 0.4387930314535851
0.21574468085106382 0.4553203094103445 0.4522723218957796
0.21595744680851064 0.45780597434418374 0.46732462704072686
0.21617021276595744 0.4557889594528579 0.4792909670058957
0.21638297872340426 0.4557889594528579 0.49027365169580545
0.21659574468085105 0.45662426815986357 0.4987636240657963
0.21680851063829787 0.4548570060936465 0.5045282224307589
0.2170212765957447 0.4539327885161666 0.5085490962383976
0.21723404255319148 0.45545194072595996 0.5085490962383976
0.2174468085106383 0.45708096835874723 0.5105353069413451
0.2176595744680851 0.4544436457613903 0.521137902116351
0.2178723404255319 0.4500421402484014 0.5330089079023602
0.21808510638297873 0.445967351459721 0.5466010918402897
0.21829787234042553 0.444263701573072 0.5577614181921708
0.21851063829787234 0.44137803962440336 0.5736828604822571
0.21872340425531914 0.44489391111653703 0.573973844168973
0.21893617021276596 0.44082872158303754 0.5730337078651686
0.21914893617021278 0.43836960062464275 0.5735734986228159
0.21936170212765957 0.4366329148823969 0.5726793060158291
0.2195744680851064 0.43722520762090866 0.5676234040020977
0.21978723404255318 0.4378460044757591 0.5649528371647494
0.22 0.4374598627951288 0.5620131985465979
0.2202127659574468 0.43980865008952225 0.5570034955762482
0.2204255319148936 0.4391856993495347 0.5515311422168063
0.22063829787234043 0.44358438887057877 0.545196504161248
0.22085106382978723 0.43992110750420205 0.5412980039678569
0.22106382978723405 0.43741649185921216 0.5384041265601592
0.22127659574468084 0.4338238233548534 0.5354359386455227
0.22148936170212766 0.434491835243525 0.5361039505341942
0.22170212765957448 0.4352711284807034 0.539710416400434
0.22191489361702127 0.4336195379778403 0.53913981154892
0.2221276595744681 0.4342127498963099 0.5397330234673896
0.22234042553191488 0.4322555557901311 0.545704751229051
0.2225531914893617 0.4291216607231744 0.5467972546408554
0.22276595744680852 0.4269323950519718 0.5471082621745903
0.2229787234042553 0.4292915636956783 0.5460556829938962
0.22319148936170213 0.4337742080349879 0.5461546659904934
0.22340425531914893 0.43049491161179776 0.5462916326218288
0.22361702127659575 0.4323398351545312 0.5466536394723986
0.22382978723404254 0.4307647448633764 0.5492059439495205
0.22404255319148936 0.4265081764712783 0.5476458811032503
0.22425531914893618 0.4306057486944093 0.5457743672155234
0.22446808510638297 0.4323400097703958 0.5386096911202993
0.2246808510638298 0.43405572068023696 0.534428861521793
0.22489361702127658 0.43676568760290574 0.5244137274964257
0.2251063829787234 0.4379793641513554 0.5104634598431822
0.22531914893617022 0.44057407437651946 0.49529517269545076
0.225531914893617 0.4403163870199512 0.48131869808887123
0.22574468085106383 0.4410913859206426 0.4586665981679442
0.22595744680851063 0.441133365901319 0.44496880771291114
0.22617021276595745 0.44174915146343474 0.4306465994745775
0.22638297872340427 0.44311994464414267 0.4202200176867053
0.22659574468085106 0.4362268548935082 0.41275659205374826
0.22680851063829788 0.4353724626007653 0.4023123011121277
0.22702127659574467 0.43659729694559296 0.3962598927908579
0.2272340425531915 0.4413869445132099 0.39301017333689553
0.22744680851063828 0.4447835177957465 0.3888892418877448
0.2276595744680851 0.44600601582746585 0.38162178759562343
0.22787234042553192 0.4568704736557635 0.38649268572532447
0.22808510638297871 0.457743038593063 0.368558390394956
0.22829787234042553 0.4601549712407643 0.3575705030847619
0.22851063829787233 0.46643995744352035 0.3512457254518808
0.22872340425531915 0.4673273288898413 0.3500825804775306
0.22893617021276597 0.4658371048562953 0.3485923564439846
0.22914893617021276 0.4655593551538837 0.348314606741573
0.22936170212765958 0.4693058077915929 0.3501878330604277
0.22957446808510637 0.46735678928190877 0.356365890820664
0.2297872340425532 0.46476925699459837 0.35945709109234414
0.23 0.46015975939765075 0.36071783365774207
0.2302127659574468 0.45601580213549175 0.36041418002653836
0.23042553191489362 0.45481191988275516 0.35805352492576686
0.23063829787234041 0.45420094233344205 0.34965508578847304
0.23085106382978723 0.4567471148304051 0.33980799993642474
0.23106382978723405 0.45943447343232197 0.3324928669526679
0.23127659574468085 0.45684305578413265 0.3288508721006934
0.23148936170212767 0.46804949392693945 0.3229115779189058
0.23170212765957446 0.46401940224812416 0.3243610197394653
0.23191489361702128 0.4662115296312987 0.33170737834186864
0.23212765957446807 0.4657247251396322 0.3347187377530109
0.2323404255319149 0.46645020775788887 0.3370729312830865
0.2325531914893617 0.46917661001220995 0.34295193135074215
0.2327659574468085 0.46866529231403065 0.3492197751827434
0.23297872340425532 0.4703363609348857 0.35488340355851383
0.23319148936170211 0.46757258891928555 0.35947612438907767
0.23340425531914893 0.46919947194464484 0.3662558180436464
0.23361702127659575 0.4706152964247786 0.3687470660035364
0.23382978723404255 0.46611830465105664 0.369114156562214
0.23404255319148937 0.46504855272298967 0.3684107658662044
0.23425531914893616 0.46458231558378116 0.3740571639036007
0.23446808510638298 0.46530814211657395 0.3802778869385124
0.2346808510638298 0.463871975953696 0.38575240012553047
0.2348936170212766 0.4626449049609721 0.39986434471346305
0.2351063829787234 0.45959593678274385 0.41529397219631276
0.2353191489361702 0.45718983390147755 0.43171094633645973
0.23553191489361702 0.45391195197113837 0.4478267969051361
0.23574468085106381 0.45405764918533936 0.4609120621066495
0.23595744680851063 0.4493455906850335 0.47195179997318065
0.23617021276595745 0.44894968246213973 0.4812245144086015
0.23638297872340425 0.4505953290084679 0.4872601837815509
0.23659574468085107 0.44901822912766987 0.496516161402281
0.23680851063829786 0.45302756610662387 0.49627189523724846
0.23702127659574468 0.45481191988275516 0.5013339172815288
0.2372340425531915 0.45512575650062986 0.5027223885342608
0.2374468085106383 0.45925365383340716 0.5007327796775769
0.2376595744680851 0.46250097364595166 0.5079107450678019
0.2378723404255319 0.4576254880874388 0.523498566053997
0.23808510638297872 0.45653894633232045 0.5385897039529257
0.23829787234042554 0.451613202678686 0.5537916330918592
0.23851063829787233 0.44992672203224227 0.5632776568030989
0.23872340425531915 0.45042122796912637 0.5779308780193472
0.23893617021276595 0.4525980433999206 0.586737121766771
0.23914893617021277 0.44821486433886254 0.5951463626986903
0.23936170212765956 0.4489387513200281 0.6003853502569853
0.23957446808510638 0.44909447633271077 0.5983523799487535
0.2397872340425532 0.44725094715709773 0.5914307874030554
0.24 0.44362370012269325 0.5761557677599479
0.2402127659574468 0.44115768334681144 0.5605024155722815
0.2404255319148936 0.4367961348420415 0.5512170327387612
0.24063829787234042 0.4324243405607322 0.5483845414176622
0.24085106382978724 0.4280535565572512 0.5493248471710471
0.24106382978723404 0.42413329921360804 0.5534274992703938
0.24127659574468086 0.42314112155024675 0.5601850308419893
0.24148936170212765 0.422858675874753 0.5676802405578418
0.24170212765957447 0.42176597859807086 0.573947362412552
0.2419148936170213 0.42067541044038503 0.5768221151231383
0.24212765957446808 0.42265666288020365 0.5720653731761492
0.2423404255319149 0.4315956903849092 0.5729096546342541
0.2425531914893617 0.4255134948760005 0.5696459746106167
0.2427659574468085 0.42473487426862855 0.5568731220958931
0.2429787234042553 0.42986940568948334 0.5366094301796831
0.24319148936170212 0.430763755367021 0.5107776129316123
0.24340425531914894 0.431823623860293 0.48445750048645037
0.24361702127659574 0.43150139534372545 0.4665202675918346
0.24382978723404256 0.43040438261475633 0.4540378521428773
0.24404255319148935 0.4354735266955573 0.4528578407425501
0.24425531914893617 0.4370039372322572 0.45352165190850446
0.244468085106383 0.43590895775057514 0.4578242212542436
0.24468085106382978 0.4352711284807034 0.46394275380292416
0.2448936170212766 0.43815951912046164 0.4642256822121797
0.2451063829787234 0.440851344935072 0.4605431806320093
0.2453191489361702 0.441133365901319 0.45725430580094245
0.24553191489361703 0.4430026059803821 0.4530275188648341
0.24574468085106382 0.44421930721477915 0.4438322507068984
0.24595744680851064 0.4452807881467749 0.440395590296262
0.24617021276595744 0.44263249697825796 0.4364420703606541
0.24638297872340426 0.4452012755942688 0.4331572979279588
0.24659574468085105 0.4464995262870696 0.42888258502596877
0.24680851063829787 0.4515602308015003 0.4240148092165941
0.2470212765957447 0.445967215585943 0.41888432061236475
0.24723404255319148 0.4422302385868903 0.4176844162188569
0.2474468085106383 0.4430807712455199 0.4099214900260694
0.2476595744680851 0.4451998931703561 0.40148407881785086
0.2478723404255319 0.4538348803126526 0.39367740495534564
0.24808510638297873 0.4541874593073672 0.3796903597374467
0.24829787234042552 0.4567098530511908 0.3723222586737985
0.24851063829787234 0.46110905062384483 0.37040672039899986
0.24872340425531914 0.4604738429277563 0.3722227791978123
0.24893617021276596 0.46053736800455175 0.3719003457228542
0.24914893617021278 0.4635559363400499 0.37560592847294044
0.24936170212765957 0.4642679815200812 0.38195306420999436
0.2495744680851064 0.4625579624565031 0.38702895017577355
0.24978723404255318 0.46487136401029117 0.3946893563987635
0.25 0.4631457630995725 0.4023372547856498
0.2502127659574468 0.4632027873025437 0.4065344922365935
0.25042553191489364 0.4629125518156954 0.4090151535416776
0.25063829787234043 0.46262823644357587 0.40986809965803617
0.2508510638297872 0.46727466218952396 0.41823166600074235
0.251063829787234 0.468630951312213 0.4232017625854664
0.25127659574468086 0.47101349080775173 0.43060438646248617
0.25148936170212766 0.47245846694851024 0.42592613730955914
0.25170212765957445 0.4700221592318429 0.4196128576614935
0.2519148936170213 0.4727000094944376 0.4130365903618654
0.2521276595744681 0.47467205943272667 0.40163745931757766
0.2523404255319149 0.47435271128480694 0.38707873832248324
0.2525531914893617 0.4734581551877943 0.3665739488951159
0.2527659574468085 0.4704109956164208 0.3407370672153874
0.2529787234042553 0.4696169796069535 0.31699113575540905
0.2531914893617021 0.469127092345675 0.29727776222561436
0.25340425531914895 0.46479321146399627 0.2883321211203714
0.25361702127659574 0.4625985188904608 0.29075842476486585
0.25382978723404254 0.4622731615349281 0.3029298607376502
0.2540425531914894 0.46115461367540833 0.31930815512862426
0.2542553191489362 0.4641001545581153 0.34004156419262827
0.25446808510638297 0.46165974555145245 0.3580907015612517
0.25468085106382976 0.4642045664871817 0.36003908158280407
0.2548936170212766 0.4609055533324434 0.3580506988067243
0.2551063829787234 0.4587200781631655 0.3488883604071344
0.2553191489361702 0.459705033531081 0.3434294088910601
0.25553191489361704 0.46006136921720475 0.3471061374080567
0.25574468085106383 0.4552878515533431 0.35811017867152567
0.2559574468085106 0.4572667860735317 0.3738857677562033
0.2561702127659574 0.45773864124334596 0.4050356700041277
0.25638297872340426 0.4557889594528579 0.4312135520119453
0.25659574468085106 0.4562848756098129 0.4563736320726575
0.25680851063829785 0.45738023415746176 0.48294864400253534
0.2570212765957447 0.45676599902296044 0.5059543526710859
0.2572340425531915 0.4543554629200638 0.5248022891593567
0.2574468085106383 0.45647902517267247 0.538010572526924
0.25765957446808513 0.4543668380163466 0.5652688562329771
0.2578723404255319 0.4557643300369721 0.5807022479306744
0.2580851063829787 0.45038114867187723 0.6015042279798087
0.2582978723404255 0.44669407745909745 0.621206280017542
0.25851063829787235 0.45032668468776776 0.6321674689250862
0.25872340425531914 0.45054131607564024 0.6440550182626256
0.25893617021276594 0.4479726428920372 0.64496781045765
0.2591489361702128 0.4472692718136949 0.6365028802239545
0.2593617021276596 0.44453591021998473 0.6181892467686325
0.25957446808510637 0.44406448461162684 0.5868080459320639
0.2597872340425532 0.439988142927231 0.5504656151913778
0.26 0.43840663447498934 0.5132098098399701
0.2602127659574468 0.4388566505227405 0.49002186782637924
0.2604255319148936 0.43731508668157565 0.4826126081003455
0.26063829787234044 0.43455725613621476 0.4854006166351856
0.26085106382978723 0.43194974499558497 0.4918397909033371
0.261063829787234 0.43538375571815696 0.4995226024118681
0.2612765957446809 0.43348691962241426 0.5136186056767388
0.26148936170212767 0.4312386669079296 0.5217478238191848
0.26170212765957446 0.4288572623113427 0.5303540609576242
0.26191489361702125 0.4267686248083173 0.5373604664939559
0.2621276595744681 0.42670909953087205 0.541909970635299
0.2623404255319149 0.42745177086783853 0.5451857993282115
0.2625531914893617 0.430623311289009 0.5502969001591619
0.26276595744680853 0.42990548033253034 0.5547021116946582
0.2629787234042553 0.4285576328061476 0.5486369295717988
0.2631914893617021 0.432318298134495 0.539857785753482
0.26340425531914896 0.44195713078218896 0.5207582416826982
0.26361702127659575 0.4346566087277922 0.5093028759106178
0.26382978723404255 0.43746687971541515 0.5088915776475373
0.26404255319148934 0.4319683131322156 0.5090609806528231
0.2642553191489362 0.43117029648331456 0.5097233665205487
0.264468085106383 0.43304722301400556 0.5112103886222127
0.26468085106382977 0.43497179796299074 0.5098254663262128
0.2648936170212766 0.4352711284807034 0.5095261358085001
0.2651063829787234 0.4399692906684678 0.5065950170981925
0.2653191489361702 0.4384153892273763 0.5059555909890973
0.265531914893617 0.43917928676111373 0.5043299334157259
0.26574468085106384 0.442354776207078 0.5056179775280898
0.26595744680851063 0.4482250440441031 0.505066357455022
0.2661702127659574 0.4492753207168374 0.5059437405887971
0.2663829787234043 0.44894968246213973 0.5042861975237628
0.26659574468085107 0.45251403705344073 0.5000995437965837
0.26680851063829786 0.44989360873399953 0.4993252672303189
0.2670212765957447 0.44863874451709845 0.4859659428884964
0.2672340425531915 0.4472707452084807 0.47746352983996027
0.2674468085106383 0.4487606886048942 0.4641401873015401
0.2676595744680851 0.4494106413484188 0.4403616607356979
0.26787234042553193 0.4508625524331586 0.4032251256203106
0.2680851063829787 0.4564421652471878 0.36371935115333265
0.2682978723404255 0.461282379193697 0.33135553909795545
0.26851063829787236 0.456859689116022 0.304950105284813
0.26872340425531915 0.4600057989962837 0.2932917095528126
0.26893617021276595 0.46082011971418024 0.2919233373953873
0.26914893617021274 0.46031599667420336 0.29461824938452275
0.2693617021276596 0.4615900280783234 0.3042569034703797
0.2695744680851064 0.4606741573033708 0.31597592434491706
0.26978723404255317 0.4614371007652842 0.32663285425762995
0.27 0.46165119687347334 0.33317468552357943
0.2702127659574468 0.46165119687347334 0.33174990765623813
0.2704255319148936 0.45746304701032253 0.3333801939950893
0.27063829787234045 0.4591957617861618 0.3255598039793633
0.27085106382978724 0.4611338974690599 0.320296668149529
0.27106382978723403 0.46092008093296993 0.3168100718169851
0.2712765957446808 0.46480959233506275 0.31193686589649566
0.2714893617021277 0.4664980322349462 0.3046163635102369
0.27170212765957447 0.4696648778893909 0.3077296791537753
0.27191489361702126 0.4718626324539332 0.29936766842520884
0.2721276595744681 0.4712358253088211 0.29280911851140357
0.2723404255319149 0.4740986931400384 0.2887151929653151
0.2725531914893617 0.47187194471647365 0.28924188039344334
0.2727659574468085 0.47078312192263483 0.29671540970592586
0.27297872340425533 0.4681814919320453 0.31175497316830336
0.2731914893617021 0.46317774961345937 0.32289949378321814
0.2734042553191489 0.46261721947542545 0.33274807542883417
0.27361702127659576 0.46152705980585673 0.33928903344624695
0.27382978723404255 0.46162396129913247 0.3467809584505668
0.27404255319148935 0.46458231558378116 0.3594492612866233
0.2742553191489362 0.46498290980376517 0.3730142310437023
0.274468085106383 0.46606892203353556 0.38526929703942925
0.2746808510638298 0.4652907158314337 0.40100113964405754
0.27489361702127657 0.4653172528455144 0.4177189375653579
0.2751063829787234 0.4604537422300321 0.4335056713215877
0.2753191489361702 0.4625973768786353 0.4526726833529064
0.275531914893617 0.45589328842072707 0.46939135571573437
0.27574468085106385 0.45610451048176404 0.48642312363832835
0.27595744680851064 0.4528275142324092 0.49264132744362343
0.27617021276595743 0.44954920877004967 0.4985566874916544
0.2763829787234042 0.4479726428920372 0.5034181367396824
0.2765957446808511 0.44866114481869945 0.51152595722461
0.27680851063829787 0.4505656071772111 0.5184511454466919
0.27702127659574466 0.44905651181850875 0.5211437812933623
0.2772340425531915 0.44444478510590163 0.5247521801014512
0.2774468085106383 0.45172516746764896 0.5365287390204644
0.2776595744680851 0.44984127935975404 0.5416737064062144
0.27787234042553194 0.4462463474535121 0.5492760350118769
0.27808510638297873 0.4445542856282677 0.553005677909655
0.2782978723404255 0.4434490324916489 0.5512849726530585
0.2785106382978723 0.443836934240687 0.5490628193544834
0.27872340425531916 0.4396464024995451 0.5494913350350201
0.27893617021276595 0.4439501312652 0.5542793671225079
0.27914893617021275 0.4409647344651606 0.5500906524911817
0.2793617021276596 0.4398538483208362 0.5497935747995917
0.2795744680851064 0.43830508953373987 0.5432854221484039
0.2797872340425532 0.4395169531595801 0.5404537356533168
0.27999999999999997 0.43616761415767025 0.5367091435928713
0.2802127659574468 0.43768491357884476 0.542687853537758
0.2804255319148936 0.43916878560747913 0.5457028527863826
0.2806382978723404 0.4383373672402252 0.5511178775624672
0.28085106382978725 0.44339560243242315 0.5530983545754642
0.28106382978723404 0.4395882935347817 0.5483577378617027
0.28127659574468084 0.4401563263312165 0.54502338238242
0.2814893617021277 0.4381169031301387 0.5376042511588575
0.2817021276595745 0.43722520762090866 0.5381916191732714
0.28191489361702127 0.4362743100395168 0.537886425330186
0.28212765957446806 0.4391760254836968 0.5417640932519965
0.2823404255319149 0.4371220035613477 0.5501007784805112
0.2825531914893617 0.4371130871047095 0.5572809429584051
0.2827659574468085 0.4404862817574436 0.5668415150183259
0.28297872340425534 0.4389142053148096 0.5666382629917522
0.28319148936170213 0.43568979775865113 0.567171470444553
0.2834042553191489 0.43594235039379403 0.5691851361838246
0.2836170212765957 0.43782036178597267 0.5716747828900274
0.28382978723404256 0.4345884333098048 0.5693463078841612
0.28404255319148936 0.43322683397334577 0.5620156264925824
0.28425531914893615 0.4316854435055364 0.5552953786050727
0.284468085106383 0.4319323333503447 0.5465383830043685
0.2846808510638298 0.42882113877592143 0.5349444500522175
0.2848936170212766 0.43193539807878606 0.5245192145768953
0.2851063829787234 0.43491650334794696 0.513427012268821
0.2853191489361702 0.4360076115532274 0.4992153727931653
0.285531914893617 0.4370951135935647 0.48568423531396093
0.2857446808510638 0.4391547360053835 0.4754402292556956
0.28595744680851065 0.43900607181965146 0.46074689416625303
0.28617021276595744 0.4460185637518319 0.4510288546532119
0.28638297872340424 0.44772658592411657 0.4389790314888998
0.2865957446808511 0.45147483651654396 0.4260854296735474
0.2868085106382979 0.4503781826716626 0.41603356113554824
0.28702127659574467 0.44734641181316426 0.4066804048359819
0.28723404255319146 0.4497871452151866 0.3962453760332795
0.2874468085106383 0.45003831590026194 0.38817734662181447
0.2876595744680851 0.4499881488252011 0.37469467513434296
0.2878723404255319 0.45740249249913273 0.37354898687723287
0.28808510638297874 0.4611576606889253 0.36442071044977536
0.28829787234042553 0.4604271722941629 0.35711886333922543
0.2885106382978723 0.4626198469318651 0.347379514730025
0.28872340425531917 0.4636052760136786 0.3364434537800948
0.28893617021276596 0.46503829151315407 0.32408388062307847
0.28914893617021276 0.4638962213205719 0.3101471288621733
0.28936170212765955 0.46645656715824035 0.30160297169672245
0.2895744680851064 0.45995853111249885 0.2982056514408533
0.2897872340425532 0.4630415942350721 0.3082183701975322
0.29 0.463357326697845 0.3232908807392718
0.2902127659574468 0.4622060869044743 0.3368947800229662
0.2904255319148936 0.46408398274832996 0.3494094029164747
0.2906382978723404 0.46665926286429504 0.36126185743352407
0.2908510638297872 0.4713872275093362 0.3714419751348927
0.29106382978723405 0.47071672836987133 0.3779223950010665
0.29127659574468084 0.4685325024493907 0.3786028334147533
0.29148936170212764 0.469282588871257 0.3708389336088499
0.2917021276595745 0.4681372863395952 0.35928980185914866
0.2919148936170213 0.4707689707536576 0.34702072206684903
0.29212765957446807 0.4700929933053966 0.34156663647488905
0.2923404255319149 0.46960837685342 0.3444109506430522
0.2925531914893617 0.4697683259234723 0.35139492965701635
0.2927659574468085 0.47184795755678344 0.36113461833371713
0.2929787234042553 0.47239863214460187 0.3757593058374485
0.29319148936170214 0.47027755026385254 0.38815055879505367
0.29340425531914893 0.467513434294089 0.3837609539110341
0.2936170212765957 0.467513434294089 0.3787984144424844
0.29382978723404257 0.4666928834408373 0.3751049505609687
0.29404255319148936 0.46605701563364715 0.37616937518420895
0.29425531914893616 0.46595312362644065 0.3789818386647305
0.29446808510638295 0.46415463938239704 0.3868781335266489
0.2946808510638298 0.45949843893394104 0.39920667767725165
0.2948936170212766 0.4549427094420736 0.4095738231495697
0.2951063829787234 0.4509037616023448 0.4228232748291015
0.29531914893617023 0.4498594566188297 0.43798632143784266
0.295531914893617 0.4456902070095278 0.44994278334586224
0.2957446808510638 0.4472832309931789 0.45562824576181227
0.29595744680851066 0.4482532809970268 0.4588586659498733
0.29617021276595745 0.4483329536336705 0.45969711773326827
0.29638297872340424 0.4497351792262914 0.4651955950823301
0.29659574468085104 0.45354333237670674 0.46563224213787013
0.2968085106382979 0.45387786864701685 0.4687054155360127
0.2970212765957447 0.45497174127779566 0.47241674334446143
0.29723404255319147 0.4557889594528579 0.4664059329669072
0.2974468085106383 0.45618800264018583 0.4636052760136786
0.2976595744680851 0.45572537162104554 0.4703693541261251
0.2978723404255319 0.45289668380177484 0.4846061467759273
0.29808510638297875 0.4497090094642647 0.5020390550854431
0.29829787234042554 0.4481197503434087 0.5198739309978903
0.29851063829787233 0.44702849089598184 0.5345016261685512
0.2987234042553191 0.4459339751968042 0.5498765469380189
0.298936170212766 0.4454486197690316 0.5659094334816072
0.29914893617021276 0.44603914820527796 0.5788341919254458
0.29936170212765956 0.44492933974637777 0.5877851756780281
0.2995744680851064 0.44382620867554745 0.5910493709280465
0.2997872340425532 0.4401154396438258 0.5886254542994194
0.3 0.4384012192566683 0.5837989638944799
0.3002127659574468 0.4426674714064115 0.5801249690369541
0.30042553191489363 0.44396748187248913 0.5748261157734775
0.3006382978723404 0.44083203392833853 0.5710065850738023
0.3008510638297872 0.43836907371388517 0.5729940454023047
0.30106382978723406 0.4358634456777343 0.563293779438989
0.30127659574468085 0.4357712518659622 0.559832070068576
0.30148936170212765 0.43439550435326285 0.5575024901861889
0.3017021276595745 0.430387777452507 0.5527624453134353
0.3019148936170213 0.42940889106008795 0.5455901725883052
0.3021276595744681 0.4284895665950238 0.5437802358671292
0.30234042553191487 0.4312463499779167 0.5387790128003898
0.3025531914893617 0.429759314111819 0.5373346487638788
0.3027659574468085 0.43165257831067744 0.5352187727415519
0.3029787234042553 0.43356324216887726 0.5346829718027886
0.30319148936170215 0.43579443734660867 0.5287886145637207
0.30340425531914894 0.43752930503172893 0.5238776319492188
0.30361702127659573 0.43592894071499333 0.524720227440615
0.3038297872340425 0.4326426013612695 0.5277872960495756
0.3040425531914894 0.43431466369551935 0.5222893745745895
0.30425531914893617 0.4352711284807034 0.5243320750273704
0.30446808510638296 0.4352711284807034 0.5180089243242332
0.3046808510638298 0.4345234901335538 0.5121684186175643
0.3048936170212766 0.4362537151855298 0.5026757645483345
0.3051063829787234 0.4422037148745027 0.49259042203842207
0.30531914893617024 0.44119192490142717 0.4792132454931998
0.30553191489361703 0.4476590475524833 0.4719952080899022
0.3057446808510638 0.44990064444856925 0.46191197271020357
0.3059574468085106 0.44822885225853304 0.451709994928117
0.30617021276595746 0.45060937151189717 0.44933794185134696
0.30638297872340425 0.4499937743837457 0.4468016326930364
0.30659574468085105 0.4517229900423221 0.4474365481951691
0.3068085106382979 0.4504204636441529 0.4465227490174614
0.3070212765957447 0.4515129520243279 0.4467542620480711
0.3072340425531915 0.45333404367790203 0.4416588362354683
0.30744680851063827 0.45299320959339706 0.43594797273493835
0.3076595744680851 0.455742226541442 0.42373358528513616
0.3078723404255319 0.4559870581946266 0.4085804578365396
0.3080851063829787 0.45970206059318447 0.3947722250243318
0.30829787234042555 0.46552976384024414 0.3847414318360038
0.30851063829787234 0.4640585891627277 0.38153395212506114
0.30872340425531913 0.4634379069698495 0.3809617478180953
0.308936170212766 0.4647012033789683 0.3764109786841737
0.3091489361702128 0.46474934226142545 0.37226463645696806
0.30936170212765957 0.46458231558378116 0.36059840789416964
0.30957446808510636 0.46736397681413405 0.3492972122620713
0.3097872340425532 0.46459534935333036 0.33563915986933784
0.31 0.46185252921350733 0.3257346249266797
0.3102127659574468 0.46458231558378116 0.3186746158233151
0.31042553191489364 0.46508261178742105 0.31059259552532553
0.31063829787234043 0.4630858824142725 0.30135495974793924
0.3108510638297872 0.46091191010528976 0.2947891548254228
0.311063829787234 0.46411468260978744 0.3022017040818697
0.31127659574468086 0.46262758372052126 0.31607948088178855
0.31148936170212765 0.46200896510500356 0.3280122969710835
0.31170212765957445 0.46505795774181796 0.3387305216115077
0.3119148936170213 0.4676054409864833 0.34859062681875647
0.3121276595744681 0.47040980629656265 0.3570037227489943
0.3123404255319149 0.4708339182811378 0.36297745304961127
0.3125531914893617 0.4683317421639941 0.35717730635184075
0.3127659574468085 0.4740887507606528 0.3418481257873814
0.3129787234042553 0.4734503787746397 0.3235465879283557
0.3131914893617021 0.47225105044058 0.3045869571369498
0.31340425531914895 0.4696752357587751 0.2944004940876011
0.31361702127659574 0.4659191785093793 0.28969223253541765
0.31382978723404253 0.46840900859201523 0.29309373743162576
0.3140425531914894 0.4708000916244127 0.30729575343934695
0.3142553191489362 0.4690977555034196 0.3336834684658034
0.31446808510638297 0.46946751343429405 0.36036881853899444
0.31468085106382976 0.46525458203785147 0.3937066662199409
0.3148936170212766 0.46650579078431653 0.43084270322590823
0.3151063829787234 0.46057065459842866 0.4644457699069114
0.3153191489361702 0.4601416248180573 0.49380985736850114
0.31553191489361704 0.46029117945378695 0.5219344029619504
0.31574468085106383 0.46002484708820895 0.5469875173220594
0.3159574468085106 0.4609075485505538 0.5671516394706525
0.31617021276595747 0.45969711773326827 0.5802373455336913
0.31638297872340426 0.46213140695637217 0.5892955414944718
0.31659574468085105 0.46169721789952656 0.5887583830389165
0.31680851063829785 0.45969711773326827 0.5703773711763513
0.3170212765957447 0.4600786160299825 0.5582572466502234
0.3172340425531915 0.46165119687347334 0.5428640934374367
0.3174468085106383 0.4599244668014128 0.534724831181297
0.3176595744680851 0.4560938345305311 0.5347467193584128
0.3178723404255319 0.4528128018740155 0.5408814797888523
0.3180851063829787 0.44891213011155656 0.549424991078993
0.3182978723404255 0.44628118347463547 0.549001648196809
0.31851063829787235 0.44505435227135387 0.5370371808468665
0.31872340425531914 0.4449328426902913 0.5209223784697375
0.31893617021276593 0.4429253044482716 0.49881364626237457
0.3191489361702128 0.44022183629890305 0.481211954949688
0.3193617021276596 0.4411745592763733 0.4663156318767877
0.31957446808510637 0.4395683704561291 0.4514657354820467
0.3197872340425532 0.43705167786043475 0.4382173311160084
0.32 0.43789421561538316 0.42374879552866335
0.3202127659574468 0.4344476189192596 0.4168992891595778
0.3204255319148936 0.43738908781968683 0.42363483536142804
0.32063829787234044 0.437580026946811 0.4390693705396725
0.32085106382978723 0.431362970200293 0.4604722291861957
0.321063829787234 0.4300609180923732 0.4821650239323264
0.32127659574468087 0.43008875733641966 0.5029854625228827
0.32148936170212766 0.4280163296503906 0.5228587928183738
0.32170212765957445 0.4280512444748794 0.5367439843284951
0.32191489361702125 0.43024478734200217 0.5442761304676283
0.3221276595744681 0.42843812725530517 0.5505429704568499
0.3223404255319149 0.4271179000765836 0.5565363391211908
0.3225531914893617 0.42520952405629653 0.5571724644612867
0.3227659574468085 0.4277999441367751 0.5546983740889625
0.3229787234042553 0.42889279821340504 0.5483122102589741
0.3231914893617021 0.43170745139011724 0.5412517198371495
0.32340425531914896 0.4333170493404983 0.537455704093744
0.32361702127659575 0.4341256409177263 0.52960591957632
0.32382978723404254 0.43243965850324 0.5299443180478105
0.32404255319148934 0.4354116379444508 0.5333263591503308
0.3242553191489362 0.4375984558379568 0.5387934038840958
0.324468085106383 0.43948216220528546 0.5424426057478166
0.32468085106382977 0.4405777000658847 0.540504320417881
0.3248936170212766 0.44167187093660604 0.541529848088013
0.3251063829787234 0.44538303687125397 0.5397953630822919
0.3253191489361702 0.44699560332193444 0.5370878688335787
0.325531914893617 0.4478860885000871 0.5306498475243053
0.32574468085106384 0.44904258864779395 0.5248181129160762
0.32595744680851063 0.4517348805493135 0.5132439686739408
0.3261702127659574 0.4509037616023448 0.5039935624611758
0.32638297872340427 0.4515630418691578 0.4905852205226771
0.32659574468085106 0.4515067367028781 0.47631424367371583
0.32680851063829786 0.44764530829244464 0.46034185847510356
0.3270212765957447 0.4474025550337616 0.4476069195439696
0.3272340425531915 0.4455682971732992 0.4426371784629914
0.3274468085106383 0.4459542118480415 0.4366342794735485
0.3276595744680851 0.4511324222161683 0.4286605121038089
0.3278723404255319 0.45605302270342324 0.4307443061438225
0.3280851063829787 0.4592503387943071 0.42174601008009766
0.3282978723404255 0.4559181220049758 0.41518452618806906
0.32851063829787236 0.4576639815247619 0.40442950232941577
0.32872340425531915 0.4587016569986384 0.3910462122393194
0.32893617021276594 0.4551053824099816 0.376682140458008
0.32914893617021274 0.4511863197320728 0.35959197913448165
0.3293617021276596 0.4528578407425501 0.34492001476989526
0.3295744680851064 0.4531497484612168 0.3246750657545465
0.32978723404255317 0.4540051184182737 0.3153370418534543
0.33 0.45188080117244755 0.3082559843673669
0.3302127659574468 0.45463221258665537 0.30917312150543613
0.3304255319148936 0.46062665386800405 0.3159772940574542
0.33063829787234045 0.4612319074834926 0.32137678816868126
0.33085106382978724 0.45985537015566613 0.3186593897579842
0.33106382978723403 0.46439144399105087 0.309576592804384
0.3312765957446808 0.4665363947239862 0.29433288249180595
0.33148936170212767 0.46634006233356684 0.2763832314248482
0.33170212765957446 0.4655593551538837 0.2527290030676382
0.33191489361702126 0.4690417346721001 0.23648727963251778
0.3321276595744681 0.4706228317608726 0.22996872234772964
0.3323404255319149 0.4698226878701382 0.23244631420392417
0.3325531914893617 0.4696610083025596 0.24732123697079966
0.3327659574468085 0.46856627156810043 0.2704379707875754
0.33297872340425533 0.47137555892158434 0.30479782975721886
0.3331914893617021 0.4696321264502904 0.3378836312713863
0.3334042553191489 0.4661225347761299 0.3638490688017941
0.33361702127659576 0.46791332200410773 0.3812701426447084
0.33382978723404255 0.46953040897061604 0.39143013889873096
0.33404255319148934 0.4704445530043966 0.39754139075099487
0.3342553191489362 0.4704445530043966 0.4015286269712184
0.334468085106383 0.46960706486862425 0.4062392237760774
0.3346808510638298 0.46468150812251446 0.4136373883842199
0.33489361702127657 0.46537034374940217 0.4266348012065669
0.3351063829787234 0.4648955578131524 0.4404509121195932
0.3353191489361702 0.4668022678179912 0.45621182529893967
0.335531914893617 0.4602955227195127 0.47090879496893073
0.33574468085106385 0.4547262403570629 0.4822547073713201
0.33595744680851064 0.45464014342662584 0.49061883106429205
0.33617021276595743 0.4557889594528579 0.5010526184728791
0.3363829787234042 0.45485310961062014 0.5092378077134452
0.33659574468085107 0.4578923788750496 0.5159110642160689
0.33680851063829786 0.4602675756232222 0.5224178028498186
0.33702127659574466 0.46201237979865417 0.524128474757319
0.3372340425531915 0.45982547448306693 0.5257114670900923
0.3374468085106383 0.45926332054065316 0.5273317384400917
0.3376595744680851 0.45837217772729383 0.5350291572374367
0.33787234042553194 0.4553934638192415 0.5456921992542135
0.33808510638297873 0.45391399125828946 0.5584058225360902
0.3382978723404255 0.4566062744207782 0.5698443102945783
0.3385106382978723 0.45269793414565607 0.587671701427969
0.33872340425531916 0.45133114207664343 0.5933989879109265
0.33893617021276595 0.44719616214074803 0.5951155379930289
0.33914893617021274 0.4430874450415241 0.5909696083103378
0.3393617021276596 0.442462118084529 0.5808107048897609
0.3395744680851064 0.4406230293504979 0.570992361661884
0.3397872340425532 0.43929352504564956 0.5613603380146571
0.34 0.43624816805080613 0.5466399250776327
0.3402127659574468 0.43624816805080613 0.5369555115900053
0.3404255319148936 0.43694040160714537 0.5305054558182142
0.3406382978723404 0.43952879682308366 0.5323475559828296
0.34085106382978725 0.43968856054488714 0.5320395539183038
0.34106382978723404 0.43917928676111373 0.5310210063507572
0.34127659574468083 0.4427078713226455 0.5317267232630635
0.3414893617021277 0.44406448461162684 0.5336459271750783
0.3417021276595745 0.443121024218415 0.5330086646678531
0.34191489361702126 0.44406448461162684 0.5306862670503221
0.34212765957446806 0.4436791037808342 0.5267274672395542
0.3423404255319149 0.442725913937164 0.522696735067172
0.3425531914893617 0.44320218687395524 0.515186708025142
0.3427659574468085 0.4410063664431809 0.5058330203493638
0.34297872340425534 0.44351063459046547 0.4893281315961303
0.34319148936170213 0.4410902594678278 0.47543032461524937
0.3434042553191489 0.43924768385801527 0.46065467708988944
0.34361702127659577 0.43429408891060084 0.45045292197380055
0.34382978723404256 0.4332588888604127 0.44211040547142155
0.34404255319148935 0.42756300226975424 0.44240002187816524
0.34425531914893615 0.4242777047369856 0.44349512105575484
0.344468085106383 0.4230950138683165 0.45036928219898764
0.3446808510638298 0.4261181473950307 0.46028907352508497
0.3448936170212766 0.42592731630990743 0.4786669403483167
0.3451063829787234 0.4272601845559443 0.4910636004089309
0.3453191489361702 0.42759997664579225 0.49794682569317866
0.345531914893617 0.4347168492353772 0.506050139040575
0.3457446808510638 0.4380091863825609 0.5154566386745496
0.34595744680851065 0.44092062592092757 0.517937342144568
0.34617021276595744 0.445105135858448 0.517841574100492
0.34638297872340423 0.4498289137123844 0.5201757627597708
0.3465957446808511 0.4516386072635688 0.522720301972179
0.3468085106382979 0.4527337714257252 0.5232046897899365
0.34702127659574467 0.4518852566912975 0.5212595216874311
0.3472340425531915 0.4556766936091462 0.5159163494243716
0.3474468085106383 0.455040639058157 0.508797747712379
0.3476595744680851 0.45613595964455966 0.4919666187133421
0.3478723404255319 0.45816423567044917 0.4705619375883318
0.34808510638297874 0.46203107742231964 0.44042828119960087
0.34829787234042553 0.4657050020627175 0.4077117218866855
0.3485106382978723 0.4640844736357204 0.369697611327716
0.34872340425531917 0.4682842464012757 0.33587341753763195
0.34893617021276596 0.46157547326148235 0.30471170937535097
0.34914893617021275 0.4612609894842196 0.2842191884394105
0.34936170212765955 0.4626575373208156 0.2776518447965656
0.3495744680851064 0.46154984531397575 0.279617782155899
0.3497872340425532 0.46095198226684164 0.2901167236438816
0.35 0.4590220212719249 0.30703110979886916
0.3502127659574468 0.4571425905628894 0.3090091674472249
0.3504255319148936 0.45857588927608245 0.3136856551267331
0.3506382978723404 0.4597894430521187 0.304440151405807
0.35085106382978726 0.461001102253062 0.3064644288822645
0.35106382978723405 0.45830383628087107 0.30615734942164824
0.35127659574468084 0.4608962962285827 0.30057270336112013
0.35148936170212763 0.46314690749752013 0.3001622069037452
0.3517021276595745 0.46552053937983945 0.3008171020286394
0.3519148936170213 0.4665363947239862 0.30628136215102936
0.35212765957446807 0.4691694778574395 0.3161552337677265
0.3523404255319149 0.46850728775755196 0.3271223862798041
0.3525531914893617 0.46919723320844553 0.34589298970332955
0.3527659574468085 0.46726023033146663 0.35895194317162543
0.3529787234042553 0.4669070237593949 0.37388639667332507
0.35319148936170214 0.467513434294089 0.3858953765010756
0.35340425531914893 0.466909820542905 0.39432241658200634
0.3536170212765957 0.46509455696141344 0.3954686267953134
0.35382978723404257 0.46290744986820576 0.39604993896428486
0.35404255319148936 0.46537555617396076 0.3961895456765998
0.35425531914893615 0.46469079328459895 0.3991749032373165
0.354468085106383 0.4663669148749103 0.4021314621459218
0.3546808510638298 0.46411077692894215 0.4126913257332062
0.3548936170212766 0.4606741573033708 0.41598219880967113
0.3551063829787234 0.46120287464259035 0.42402902428949213
0.3553191489361702 0.4603644715360977 0.4364858804156544
0.355531914893617 0.45893667645264985 0.45156294554049026
0.3557446808510638 0.4543298093808921 0.46095829617793804
0.35595744680851066 0.4540114883340828 0.4696882734610818
0.35617021276595745 0.4612238202405416 0.4805200390341152
0.35638297872340424 0.4587200781631655 0.48961755112884137
0.35659574468085103 0.45833398581088747 0.49852661091419553
0.3568085106382979 0.45672922620485323 0.509166320886824
0.3570212765957447 0.45829885414353216 0.5118297808461394
0.35723404255319147 0.461190781557774 0.5174548702467286
0.3574468085106383 0.45991841319701704 0.5244948825388952
0.3576595744680851 0.45382521005758913 0.5379376453819832
0.3578723404255319 0.4526107085183129 0.5470358271356004
0.35808510638297875 0.450294252164825 0.558252563485984
0.35829787234042554 0.44986690108876903 0.5658488107032584
0.35851063829787233 0.4512361304038259 0.566305220474944
0.3587234042553191 0.447421910867091 0.565768123329294
0.35893617021276597 0.4449947673825359 0.5635266496219189
0.35914893617021276 0.4448490686674152 0.5567941842035213
0.35936170212765955 0.44685212139111824 0.5472993081610718
0.3595744680851064 0.4467118396141632 0.5428712296387772
0.3597872340425532 0.44211758181521005 0.5236752687155167
0.36 0.44642711350890946 0.5083535209770678
0.3602127659574468 0.4454448413436555 0.4983128767060202
0.3604255319148936 0.44653454986262353 0.4917746255922115
0.3606382978723404 0.4451236426133811 0.485264383419239
0.3608510638297872 0.4433255860127262 0.4853627632124319
0.36106382978723406 0.44052509644931687 0.4886395347182454
0.36127659574468085 0.4401563263312165 0.5036426398435185
0.36148936170212764 0.44165374401805696 0.5184203893393589
0.3617021276595745 0.4384377006873251 0.5365421135205183
0.3619148936170213 0.43849932621529186 0.5477593827883921
0.3621276595744681 0.436796493767837 0.5586374826999768
0.36234042553191487 0.43515925893648943 0.569028573204456
0.3625531914893617 0.4356213595507452 0.5767021155355709
0.3627659574468085 0.43703018390744114 0.5867161038521345
0.3629787234042553 0.43542261953594236 0.5985805754541239
0.36319148936170215 0.43229731017142836 0.6044270729053536
0.36340425531914894 0.43104583745027575 0.6073886591937677
0.36361702127659573 0.4299580125872999 0.6068343285708319
0.3638297872340425 0.4309706430713174 0.5997909903775677
0.36404255319148937 0.4308944673243487 0.5853749179125766
0.36425531914893616 0.43073832057052314 0.5625749246608704
0.36446808510638296 0.4303859306301905 0.5395957943563361
0.3646808510638298 0.43469744276943817 0.5211323257855749
0.3648936170212766 0.43625760703545885 0.5065729928006696
0.3651063829787234 0.4394191085707202 0.49759734382101606
0.36531914893617023 0.4418439456963412 0.480037288460561
0.365531914893617 0.44512729425078995 0.470187242797215
0.3657446808510638 0.4484114170364333 0.4612787502499505
0.3659574468085106 0.4493621559748155 0.44814541561680715
0.36617021276595746 0.4522435982758298 0.4338867511112008
0.36638297872340425 0.4553809165579748 0.416471604422292
0.36659574468085104 0.4504379422573962 0.3994216753796899
0.3668085106382979 0.44696167263480985 0.38770156572979814
0.3670212765957447 0.4457069466356116 0.39572212000226936
0.3672340425531915 0.44517276893849816 0.39658327994690623
0.36744680851063827 0.44757355072579746 0.4089738234699199
0.3676595744680851 0.4475166143358553 0.4152743085224698
0.3678723404255319 0.4511846633963965 0.4195847616838829
0.3680851063829787 0.45362255183232364 0.42694555212768254
0.36829787234042555 0.45206339478223684 0.42666036595956947
0.36851063829787234 0.45481191988275516 0.4226636617950882
0.36872340425531913 0.45481191988275516 0.42520067317762583
0.368936170212766 0.4556265352939268 0.4208312689355668
0.36914893617021277 0.4593096849282818 0.41338459635464186
0.36936170212765956 0.4621621118919572 0.40717915316502107
0.36957446808510636 0.4619971043061835 0.3957404617232912
0.3697872340425532 0.46465627629120443 0.38101233957969793
0.37 0.46120890028298145 0.3576137014385001
0.3702127659574468 0.4616156974668654 0.3306738394814301
0.37042553191489364 0.4606741573033708 0.29042315616554043
0.3706382978723404 0.46211166620684935 0.24928534263453694
0.3708510638297872 0.46718597978984716 0.21114304905411885
0.371063829787234 0.4638523697139748 0.17608436926646223
0.37127659574468086 0.4640638810814569 0.15224869983666037
0.37148936170212765 0.4672163273817992 0.14674734838814996
0.37170212765957444 0.46671610274069303 0.15900442860137684
0.3719148936170213 0.46928043519538254 0.18639641309454463
0.3721276595744681 0.4715930187510383 0.21358618104567823
0.3723404255319149 0.4738269473301626 0.25301165890663607
0.3725531914893617 0.47142159257449934 0.291902824279154
0.3727659574468085 0.470600086673037 0.32906086168294374
0.3729787234042553 0.46946751343429405 0.362470944537391
0.3731914893617021 0.4707465599377973 0.38812466342112606
0.37340425531914895 0.47142159257449934 0.4088868040424332
0.37361702127659574 0.4687832135362533 0.42687057323898936
0.37382978723404253 0.4733978563886563 0.4335167114060654
0.3740425531914894 0.4748873519363212 0.44170942498278587
0.37425531914893617 0.47676156496273797 0.44046440499181033
0.37446808510638296 0.4717526141265163 0.4463656103897974
0.37468085106382976 0.46971115880747916 0.44984550690784725
0.3748936170212766 0.46483687283995534 0.4548693126650838
0.3751063829787234 0.46223276924643864 0.4618605588947828
0.3753191489361702 0.45761425903213143 0.4676422138550205
0.37553191489361704 0.45491063611471694 0.47962265131365184
0.37574468085106383 0.46453435164720125 0.48434275059440773
0.3759574468085106 0.45188080117244755 0.4868607177558288
0.37617021276595747 0.45282147964644115 0.4867043051087005
0.37638297872340426 0.4535101395180668 0.4867294849015548
0.37659574468085105 0.45133030580829453 0.48454965119178256
0.37680851063829784 0.44890392337332635 0.47812359229877727
0.3770212765957447 0.44718966618039285 0.46984891387340005
0.3772340425531915 0.44789780498565795 0.45585965057206423
0.3774468085106383 0.4489115692642029 0.4467669241343133
0.3776595744680851 0.4476694868317375 0.4417396780219183
0.3778723404255319 0.44520884285420054 0.44585124507936075
0.3780851063829787 0.4423086055418233 0.4510880008908406
0.37829787234042556 0.4421480792070505 0.46136988263438145
0.37851063829787235 0.44371409943599904 0.4746829018521595
0.37872340425531914 0.4418278341064301 0.4911667118297024
0.37893617021276593 0.43940501429285606 0.5069690035162013
0.3791489361702128 0.4382022471910112 0.5232480230948002
0.3793617021276596 0.43882549433944695 0.5314151105072134
0.37957446808510636 0.4423612437090461 0.541517603384261
0.3797872340425532 0.4394372538427025 0.5451606657391187
0.38 0.43963507869536433 0.5471530685410502
0.3802127659574468 0.4435179299268133 0.5520189085297608
0.3804255319148936 0.44718896507541966 0.5626051319156229
0.38063829787234044 0.43962618920560076 0.5810756533085768
0.38085106382978723 0.4343931318430298 0.5799720277883156
0.381063829787234 0.4322449827903781 0.5793710801858724
0.38127659574468087 0.4320024659695846 0.5837811431362969
0.38148936170212766 0.43163859597890214 0.5817895234375229
0.38170212765957445 0.427838490181866 0.5774653331049863
0.3819148936170213 0.43055471341244606 0.5723585767361462
0.3821276595744681 0.431362970200293 0.5663737509987348
0.3823404255319149 0.43297511676489314 0.5611870248928477
0.3825531914893617 0.432393225974783 0.5547892532595431
0.3827659574468085 0.4375399836139114 0.546464773876597
0.3829787234042553 0.4419327000020718 0.5426562879459923
0.3831914893617021 0.4405426163546188 0.5375649085681252
0.38340425531914896 0.43834952904610547 0.5343939706263479
0.38361702127659575 0.4366905263684062 0.5331597313607672
0.38382978723404254 0.4342881635299275 0.5362358343117533
0.38404255319148933 0.4333170493404983 0.5322466678313893
0.3842553191489362 0.43510154749572966 0.524775262807447
0.384468085106383 0.43520151432454646 0.5201343427673149
0.38468085106382977 0.4336245517516611 0.5145203983322414
0.3848936170212766 0.4355433345628555 0.5013744649721622
0.3851063829787234 0.4374130884178643 0.4886450884375425
0.3853191489361702 0.4407037274142338 0.4816608809612543
0.38553191489361704 0.4396078307486629 0.47305862042655955
0.38574468085106384 0.4382022471910112 0.4670045940800678
0.38595744680851063 0.4399242613169661 0.46395337353505417
0.3861702127659574 0.4391871343364334 0.46262823644357587
0.38638297872340427 0.44125648839522513 0.4620126239740453
0.38659574468085106 0.4418665139017818 0.45823082173234264
0.38680851063829785 0.44186021807062265 0.45787998731000906
0.3870212765957447 0.4426032923379072 0.4538436144755213
0.3872340425531915 0.4433168990426026 0.44742861967223585
0.3874468085106383 0.4455076067845091 0.43829199592009743
0.3876595744680851 0.44686108497564553 0.4252953921412281
0.3878723404255319 0.451804629811541 0.4081577688727317
0.3880851063829787 0.45969711773326827 0.3967479841052894
0.3882978723404255 0.4585632945960192 0.39144430994669377
0.38851063829787236 0.4562065571501879 0.3854421104054715
0.38872340425531915 0.45824981986810903 0.3821503023400759
0.38893617021276594 0.4589246703458299 0.3732854905273024
0.3891489361702128 0.4618304661077935 0.3641205482850958
0.3893617021276596 0.46262823644357587 0.3595014442963663
0.3895744680851064 0.4588227390541307 0.3524024215811724
0.38978723404255317 0.46096194075321956 0.338849755894336
0.39 0.4631784365367386 0.33076119597370174
0.3902127659574468 0.4609892919549996 0.3215719502743501
0.3904255319148936 0.46149400920239597 0.31255711182547097
0.39063829787234045 0.46417334593269466 0.3061428049592322
0.39085106382978724 0.4659572469470972 0.30326246861208483
0.39106382978723403 0.4689585392333213 0.29593469492185787
0.3912765957446808 0.46853961451367093 0.28808213794156834
0.39148936170212767 0.47134825788486007 0.2820959200435147
0.39170212765957446 0.47121984694607394 0.2875205634807755
0.39191489361702125 0.47403603427006774 0.3035524209021685
0.3921276595744681 0.4733756717147044 0.3211320689142533
0.3923404255319149 0.4750594408128958 0.3415372385969635
0.3925531914893617 0.4728911869353575 0.3598323756528117
0.39276595744680853 0.47222614128173557 0.3784291165934678
0.3929787234042553 0.47057453946936495 0.3943026008517187
0.3931914893617021 0.47151511459804085 0.40540375091346
0.3934042553191489 0.47354312257318937 0.41511586480632634
0.39361702127659576 0.4734941379372234 0.42273733896271204
0.39382978723404255 0.4718257768954696 0.42671328574258854
0.39404255319148934 0.47090326330672566 0.4314225891657377
0.3942553191489362 0.47065324634854244 0.43547982182484923
0.394468085106383 0.47142159257449934 0.43767381331849037
0.3946808510638298 0.46891583077688503 0.4365317393259351
0.39489361702127657 0.4704056076287366 0.43624816805080613
0.3951063829787234 0.469831419275416 0.43516893952587327
0.3953191489361702 0.4650205188710354 0.4336367839797194
0.395531914893617 0.4641902153945415 0.43102780172465804
0.39574468085106385 0.45969711773326827 0.4303859306301905
0.39595744680851064 0.4608443371933207 0.43612202793045296
0.39617021276595743 0.46165119687347334 0.44224371016320535
0.3963829787234043 0.4583863390235971 0.4463523028914003
0.39659574468085107 0.4596156858851497 0.4507408979061078
0.39680851063829786 0.4593614644626505 0.46522370188326595
0.39702127659574465 0.45558160508509027 0.4622732599767762
0.3972340425531915 0.4538327208734993 0.4678463122813009
0.3974468085106383 0.4492109540789332 0.4792474309562499
0.3976595744680851 0.44207430644839213 0.49355212649187785
0.39787234042553193 0.43577327438429825 0.5099737772379209
0.3980851063829787 0.4350571506233033 0.527383382774956
0.3982978723404255 0.43614115252932956 0.5388512227883914
0.3985106382978723 0.4372352124430511 0.5496848064041309
0.39872340425531916 0.43857623245566335 0.5602277861679206
0.39893617021276595 0.4413744941313211 0.5686057131744717
0.39914893617021274 0.44175230546938976 0.5777553265856352
0.3993617021276596 0.44303283851860875 0.5822746288889565
0.3995744680851064 0.4473965613129746 0.5826036245706744
0.3997872340425532 0.45035942679171703 0.5832368083256692
0.4 0.4517282062571356 0.5804833645171342
0.4002127659574468 0.45188080117244755 0.5770441194345354
0.4004255319148936 0.44886619485991364 0.5792298956946884
0.4006382978723404 0.44757305705294353 0.5836032752443817
0.40085106382978725 0.4447441101786291 0.5892611689930104
0.40106382978723404 0.4412377447744991 0.5997645425889603
0.40127659574468083 0.43959959192591214 0.6162742725441336
0.4014893617021277 0.43646687631863823 0.6319769968379297
0.40170212765957447 0.43447579357251226 0.6403362498008811
0.40191489361702126 0.43338291123683687 0.6468935438149341
0.40212765957446805 0.43528301503610395 0.640384062147544
0.4023404255319149 0.43760498559141786 0.6274233351080637
0.4025531914893617 0.43942097125999935 0.605987331742463
0.4027659574468085 0.4368601856395732 0.5803888617899975
0.40297872340425533 0.43818816183387205 0.5589335395450924
0.4031914893617021 0.4407609978628235 0.5399100136769938
0.4034042553191489 0.43968599823656784 0.5245442352401827
0.40361702127659577 0.43917928676111373 0.5020507991107848
0.40382978723404256 0.43540190984604304 0.47139271790310905
0.40404255319148935 0.4330213565805287 0.4370902656856184
0.40425531914893614 0.4391293433754219 0.39984798702855057
0.404468085106383 0.43494574342288833 0.3737238263408421
0.4046808510638298 0.43473731348610073 0.35427716210130544
0.4048936170212766 0.43751530517361276 0.3428492137856517
0.4051063829787234 0.43917928676111373 0.3374772124761024
0.4053191489361702 0.43676426018777675 0.3269300256069936
0.405531914893617 0.4390099428148517 0.31658033276697384
0.4057446808510638 0.4433401452573214 0.32146289921029514
0.40595744680851065 0.44629543085490675 0.33420015195898584
0.40617021276595744 0.4430874450415241 0.36716116463120857
0.40638297872340423 0.4419742904961674 0.4040562143153846
0.4065957446808511 0.4416332575320261 0.4456778779603064
0.40680851063829787 0.4455351784119087 0.48538804923205037
0.40702127659574466 0.4404097223946896 0.5146322455591171
0.4072340425531915 0.4399051305315435 0.5321937544633545
0.4074468085106383 0.4430743027402432 0.5417333954851368
0.4076595744680851 0.44379898002142476 0.5403453716620844
0.4078723404255319 0.4499214516680376 0.5273716014644356
0.40808510638297874 0.4528578407425501 0.5112721989054054
0.4082978723404255 0.4514067974749724 0.48184018502391496
0.4085106382978723 0.4565535553175306 0.4378471432335871
0.40872340425531917 0.45778907292217424 0.39104342002190007
0.40893617021276596 0.4559292858679517 0.3429048205795617
0.40914893617021275 0.45483957445596956 0.3052604270030312
0.40936170212765954 0.45765188331573153 0.2743728835620152
0.4095744680851064 0.45697604715518053 0.25653653310215413
0.4097872340425532 0.45708856969122 0.24734296900476102
0.41 0.45801419985475733 0.24279433317049337
0.4102127659574468 0.46011276798235307 0.24111016520743997
0.4104255319148936 0.458327863648734 0.2426017226292539
0.4106382978723404 0.457743038593063 0.2470103244710943
0.41085106382978726 0.4605424590824615 0.2560777924892018
0.41106382978723405 0.4607468810549242 0.26704324412004254
0.41127659574468084 0.46165119687347334 0.2786922097905862
0.41148936170212763 0.46227159772711685 0.289506479376868
0.4117021276595745 0.46489391653213097 0.3030926580095322
0.41191489361702127 0.46818157207231176 0.31679077290087393
0.41212765957446806 0.4681359791585881 0.32925797686518604
0.4123404255319149 0.4706596274168445 0.342120552988198
0.4125531914893617 0.46777464116791545 0.3498768755710386
0.4127659574468085 0.46567644769020883 0.3528667739717716
0.4129787234042553 0.46678473114923796 0.3649741339414522
0.41319148936170214 0.4636052760136786 0.3758542887104624
0.41340425531914893 0.4644553681883965 0.3818320508170353
0.4136170212765957 0.46664789097826015 0.38675363873839547
0.41382978723404257 0.46618320688896164 0.38668981387562734
0.41404255319148936 0.46869118853954594 0.3846591520590558
0.41425531914893615 0.46946751343429405 0.3880808424654606
0.414468085106383 0.46565992617886615 0.3863185789505916
0.4146808510638298 0.467513434294089 0.3860209344574516
0.4148936170212766 0.4666283837478205 0.3991587639414151
0.4151063829787234 0.46499870698525625 0.4190450893904708
0.4153191489361702 0.4644874434306726 0.4365660615671776
0.415531914893617 0.46098252753249636 0.4571782270175382
0.4157446808510638 0.4620266217569756 0.4768057988146876
0.41595744680851066 0.46082365729668 0.4901401340133503
0.41617021276595745 0.46150045938442563 0.49877870053737183
0.41638297872340424 0.4587200781631655 0.5001670754328661
0.4165957446808511 0.4587200781631655 0.5092581031814367
0.4168085106382979 0.4583026302645695 0.5195628522150759
0.41702127659574467 0.4566690704873997 0.5289176572999634
0.41723404255319146 0.4564459980943247 0.5431677028257955
0.4174468085106383 0.4536589190610832 0.5602592684696435
0.4176595744680851 0.4501660112606405 0.5749279065857508
0.4178723404255319 0.4449583226285326 0.6049645865340257
0.41808510638297874 0.44276740727082364 0.621371777198245
0.41829787234042554 0.4431216575503818 0.6292930466893197
0.41851063829787233 0.4479726428920372 0.6302735306298265
0.4187234042553191 0.4442895397547978 0.6228619542476741
0.41893617021276597 0.44438168185235266 0.6040072247156503
0.41914893617021276 0.4452512064043219 0.5890187662951226
0.41936170212765955 0.4459280647404504 0.5725276129070676
0.4195744680851064 0.44415155774659215 0.5580007973954466
0.4197872340425532 0.4475948893421042 0.5452271353871688
0.42 0.4487213337704834 0.5427454811919883
0.42021276595744683 0.4430874450415241 0.5435358126468297
0.4204255319148936 0.4425695505859047 0.5452174547878129
0.4206382978723404 0.44019782180465616 0.5405763767909219
0.4208510638297872 0.436911642962096 0.5250103018137073
0.42106382978723406 0.4380034705958477 0.5107187953794811
0.42127659574468085 0.43611425218495403 0.4976231064794663
0.42148936170212764 0.4305309545847156 0.4907104641790739
0.4217021276595745 0.4324189664335271 0.4959265384901956
0.4219148936170213 0.43675011013539095 0.5024761546740907
0.4221276595744681 0.4368574971012929 0.5127283176260751
0.42234042553191486 0.4354542803395847 0.5214031223707642
0.4225531914893617 0.43624816805080613 0.5318860169358154
0.4227659574468085 0.4354286265319828 0.5464027458946923
0.4229787234042553 0.4324555815199841 0.556115843841189
0.42319148936170214 0.440074454448225 0.5617185924388948
0.42340425531914894 0.43837495798619774 0.5669987596493664
0.42361702127659573 0.4352711284807034 0.5694552235437277
0.4238297872340426 0.433933574542046 0.5677026587017697
0.42404255319148937 0.43120178369208373 0.564895018287929
0.42425531914893616 0.43453466277868397 0.5535829371509914
0.42446808510638295 0.4354394820861929 0.5439239564304148
0.4246808510638298 0.4352711284807034 0.5288159757046414
0.4248936170212766 0.4358907361678683 0.5089885788099776
0.4251063829787234 0.4446271160221255 0.4848823411593552
0.42531914893617023 0.44820235019302035 0.459367892914259
0.425531914893617 0.4517485112230383 0.4267726223495304
0.4257446808510638 0.45339929322345496 0.39004608864796847
0.4259574468085106 0.4571348514602417 0.3585118647369823
0.42617021276595746 0.45498656207511334 0.3323478086591276
0.42638297872340425 0.4521141487171459 0.31219351763750774
0.42659574468085104 0.451890421199107 0.3023841269200918
0.4268085106382979 0.4529945334739779 0.3014167073766487
0.4270212765957447 0.4533175851412994 0.301934002548002
0.4272340425531915 0.45226005979609113 0.3041293037641411
0.4274468085106383 0.45335424960532195 0.3048284567942872
0.4276595744680851 0.4538348803126526 0.30434782608695654
0.4278723404255319 0.45752236887090575 0.30508532379860714
0.4280851063829787 0.46129749948254734 0.3130571296152043
0.42829787234042555 0.45872144565371514 0.33169672910653125
0.42851063829787234 0.4610447768210586 0.34406966637466935
0.42872340425531913 0.4643367745591128 0.36686981769257093
0.428936170212766 0.46434520077286634 0.3862815390191543
0.42914893617021277 0.4616486724339845 0.40203158758130475
0.42936170212765956 0.46018761599877916 0.4239016672156174
0.42957446808510635 0.4587200781631655 0.4426114413988321
0.4297872340425532 0.4595757644738077 0.4674107215178834
0.43 0.4596969841206599 0.4890103090254717
0.4302127659574468 0.4591885676358735 0.5044837549651237
0.43042553191489363 0.46262823644357587 0.5119459202505571
0.4306382978723404 0.46372151899076663 0.5123567101261857
0.4308510638297872 0.46459591834539293 0.5008007934856359
0.43106382978723407 0.46420400929744865 0.48986024898936337
0.43127659574468086 0.4660186123692246 0.4774594054133769
0.43148936170212765 0.46905518370012567 0.4609191700787302
0.43170212765957444 0.4713941012107783 0.45005043316898696
0.4319148936170213 0.4739262559991101 0.43713610897676913
0.4321276595744681 0.47090103566372205 0.4238670248967311
0.4323404255319149 0.4731001915883614 0.4008231264846982
0.4325531914893617 0.47387966165644946 0.3698624129830618
0.4327659574468085 0.4769412808826796 0.33677179196075785
0.4329787234042553 0.4706435441768149 0.29888805008417435
0.4331914893617021 0.467513434294089 0.269423912337764
0.43340425531914895 0.467513434294089 0.25375596644539733
0.43361702127659574 0.46023959951576193 0.2525647288715194
0.43382978723404253 0.46411851704072843 0.25511562085830924
0.4340425531914894 0.46087841174674365 0.26611188365757926
0.43425531914893617 0.4572754683281099 0.27627175361795264
0.43446808510638296 0.45676599902296044 0.294845004255588
0.4346808510638298 0.450334959021891 0.3148037465187553
0.4348936170212766 0.4513293114198873 0.3341084280138209
0.4351063829787234 0.4480312725303649 0.35391301078971404
0.4353191489361702 0.4526493673311149 0.36536764452461673
0.43553191489361703 0.45158938755763417 0.388184614226629
0.4357446808510638 0.4538348803126526 0.40275176780604294
0.4359574468085106 0.4547750256105804 0.42220067134762157
0.43617021276595747 0.4563795061904847 0.44474149126055795
0.43638297872340426 0.45747620781086823 0.4670620165007063
0.43659574468085105 0.45608276867508574 0.48651092644740923
0.43680851063829784 0.4557889594528579 0.5118022492012037
0.4370212765957447 0.45834585921520105 0.5361038840118606
0.4372340425531915 0.4545987769186411 0.5594080366710218
0.4374468085106383 0.45350362864221583 0.57639637089316
0.4376595744680851 0.451505612116938 0.591821541113238
0.4378723404255319 0.44650866767677794 0.595505617977528
0.4380851063829787 0.4414200737739652 0.587572385464543
0.43829787234042555 0.4401563263312165 0.5684767020465462
0.43851063829787235 0.4419202551293994 0.5501289213487808
0.43872340425531914 0.4371772721302099 0.5348812291404688
0.43893617021276593 0.43541217455952597 0.5318467168603815
0.4391489361702128 0.43650805171082824 0.5269779545502965
0.43936170212765957 0.43722520762090866 0.5297072206094812
0.43957446808510636 0.4357159515084076 0.5226142109044085
0.4397872340425532 0.4374228613401398 0.5192965315095261
0.44 0.43618055809887285 0.5117997098539239
