0.0 0.457743038593063 0.4352711284807034
0.0002127659574468085 0.4584033758120862 0.43593146569972674
0.000425531914893617 0.456598866136737 0.43253604700455617
0.0006382978723404255 0.4559969771543676 0.4288163624242818
0.000851063829787234 0.45738205632199275 0.42658367959288834
0.0010638297872340426 0.457743038593063 0.4242029106972412
0.001276595744680851 0.45476903338264274 0.42205965103426224
0.0014893617021276596 0.45534092789679653 0.4200865269151233
0.001702127659574468 0.45340824543183184 0.41884492401872
0.0019148936170212765 0.4520085433225839 0.4178121583689932
0.002127659574468085 0.44834568631211896 0.42033575236410337
0.002340425531914894 0.4536944963471132 0.4206155349291647
0.002553191489361702 0.4520184008966474 0.42754654506934925
0.0027659574468085106 0.45481191988275516 0.430348479448196
0.0029787234042553193 0.4544160129966763 0.43965390577330044
0.0031914893617021275 0.4529213017406745 0.4537359850759839
0.003404255319148936 0.45591459144968494 0.476246235489727
0.003617021276595745 0.45530879409088587 0.49282148504550133
0.003829787234042553 0.45920182070655924 0.5055953867225644
0.004042553191489362 0.46005513221582733 0.5142173259038638
0.00425531914893617 0.4619712679920079 0.513333212454232
0.004468085106382979 0.46442336779192284 0.506174294799594
0.004680851063829788 0.46355219401064546 0.4997026581044412
0.004893617021276595 0.4626003493140205 0.49877870053737183
0.005106382978723404 0.4619593506202472 0.5000113155244671
0.005319148936170213 0.46331228715380035 0.5083529502574617
0.005531914893617021 0.46262823644357587 0.5180976668614756
0.00574468085106383 0.46033056351308066 0.5320517877216272
0.005957446808510639 0.4608607655435521 0.5375968062315016
0.006170212765957446 0.46165119687347334 0.5327677542914373
0.006382978723404255 0.4567875903694732 0.5162034777003729
0.006595744680851064 0.4587200781631655 0.49900505219761376
0.006808510638297872 0.4581666993473106 0.4771886185029331
0.007021276595744681 0.45676599902296044 0.4587201079309044
0.00723404255319149 0.4534095888606807 0.44195333450293234
0.007446808510638298 0.4572135309393265 0.4317657010712692
0.007659574468085106 0.455125565012538 0.4288620797232805
0.007872340425531916 0.4538348803126526 0.42136992859420913
0.008085106382978723 0.45189986223330325 0.4157779897307908
0.008297872340425531 0.4517583440887576 0.40986809965803617
0.00851063829787234 0.4559128633375515 0.40986809965803617
0.008723404255319148 0.45130819928366417 0.40986809965803617
0.008936170212765958 0.4507823299117353 0.41206504217946066
0.009148936170212766 0.451994336051367 0.41170864391932177
0.009361702127659575 0.4505358487276476 0.41007114188983795
0.009574468085106383 0.4535051178552792 0.41255189652531393
0.00978723404255319 0.4517667819812471 0.4169354150311552
0.01 0.44992672203224227 0.4221789793431971
0.010212765957446808 0.4496092905830781 0.434463049024105
0.010425531914893617 0.44894968246213973 0.4488112862254201
0.010638297872340425 0.4465631376624096 0.455676851201805
0.010851063829787235 0.44651830475671933 0.46462720046312556
0.011063829787234043 0.44699560332193444 0.47890654248692355
0.01127659574468085 0.4479726428920372 0.47795766115367105
0.01148936170212766 0.4481639470080162 0.4725899362605809
0.011702127659574468 0.44862535976350665 0.47207838092017207
0.011914893617021277 0.4488909181071903 0.46349872453579866
0.012127659574468085 0.4469211055683212 0.4537603825590394
0.012340425531914893 0.4435879439428734 0.4467932703364518
0.012553191489361702 0.44648262952451745 0.44758791254397445
0.01276595744680851 0.4499577667464957 0.4460728920017754
0.01297872340425532 0.4535362634024682 0.4534550745629189
0.013191489361702127 0.45188080117244755 0.45910057063545456
0.013404255319148937 0.45188080117244755 0.4654514197779393
0.013617021276595745 0.45245641437685097 0.46768762113279316
0.013829787234042552 0.45715210084615326 0.46634334381238984
0.014042553191489362 0.45099619249261513 0.4604100980401835
0.01425531914893617 0.45188080117244755 0.4596057990541434
0.01446808510638298 0.45123121514443243 0.4551393734248428
0.014680851063829787 0.4479726428920372 0.4515872186772836
0.014893617021276596 0.449247157249913 0.4500540853637609
0.015106382978723404 0.449776558976014 0.44894968246213973
0.015319148936170212 0.44894968246213973 0.44894968246213973
0.015531914893617021 0.4498002022217987 0.4523517615007756
0.01574468085106383 0.4489537306623723 0.45188484937268014
0.015957446808510637 0.4488097827283873 0.45132120223743766
0.016170212765957447 0.4496653237372943 0.4491010967888753
0.016382978723404256 0.4521358538611099 0.44933226149513344
0.016595744680851062 0.45049070450984613 0.44883847613985145
0.01680851063829787 0.450199877378048 0.45231153005093855
0.01702127659574468 0.44908058744788365 0.4537039753269087
0.01723404255319149 0.4557712461376078 0.4587023648479154
0.017446808510638297 0.45423290476844247 0.4571640234787503
0.017659574468085106 0.4575605632610172 0.4578431345111359
0.017872340425531916 0.4576984768370382 0.450059743487828
0.018085106382978722 0.4585988761182959 0.4460185637518319
0.01829787234042553 0.45960663213854364 0.4460185637518319
0.01851063829787234 0.4587200781631655 0.44766822595800426
0.01872340425531915 0.45581919558149103 0.45570832977650294
0.018936170212765956 0.4559206983048571 0.4490265537080307
0.019148936170212766 0.45676599902296044 0.45687380393968846
0.019361702127659575 0.45759142907768424 0.46093526281535396
0.01957446808510638 0.45596258386861416 0.46483423187921696
0.01978723404255319 0.4572523384636407 0.4699538528749745
0.02 0.4570818438656278 0.4722407097232682
0.02021276595744681 0.4558085320286283 0.47239863214460187
0.020425531914893616 0.45992296424774076 0.47460310897001695
0.020638297872340425 0.4553446187986179 0.4763067904250122
0.020851063829787235 0.4563621898015908 0.47711440886775147
0.02106382978723404 0.45733940874220497 0.47774405313543494
0.02127659574468085 0.4587200781631655 0.47222590859382974
0.02148936170212766 0.457207230486935 0.4702239372724093
0.02170212765957447 0.4531990294708865 0.4642023562882674
0.021914893617021276 0.45768827970208825 0.466372118051062
0.022127659574468085 0.45637126650895665 0.4636052760136786
0.022340425531914895 0.4558303400306147 0.4619079091005794
0.0225531914893617 0.4582242627022811 0.4582388540539474
0.02276595744680851 0.45934437338755074 0.4589916290418333
0.02297872340425532 0.45969711773326827 0.45893029975941424
0.023191489361702126 0.4606050105343801 0.4578121853620537
0.023404255319148935 0.4594785625668663 0.46223401065054515
0.023617021276595745 0.45656189891705273 0.4688552131165708
0.023829787234042554 0.4554851840426756 0.4665363947239862
0.02404255319148936 0.455697185164073 0.4656511294426685
0.02425531914893617 0.45562011224726545 0.465728202359476
0.02446808510638298 0.4562185797624009 0.4658330647841634
0.024680851063829785 0.45676599902296044 0.4621988236691603
0.024893617021276595 0.45579649835119823 0.45572864826613524
0.025106382978723404 0.456626319555645 0.4476932839574062
0.025319148936170214 0.4555363879919781 0.4460185637518319
0.02553191489361702 0.45481191988275516 0.4444523850522119
0.02574468085106383 0.45694788316483587 0.4394404513688207
0.02595744680851064 0.45400030183145834 0.43587670009756363
0.026170212765957445 0.45678308308374327 0.4352711284807034
0.026382978723404255 0.4558217806657873 0.4343104995170656
0.026595744680851064 0.45311132888659544 0.4356513606967714
0.026808510638297874 0.4561615314779655 0.43928193646717945
0.02702127659574468 0.45846143289116126 0.44375798526089755
0.02723404255319149 0.45509877731391396 0.4471300448911963
0.0274468085106383 0.45453390561861723 0.4451765416681787
0.027659574468085105 0.4572067565135745 0.4424679268577472
0.027872340425531914 0.45495331227366015 0.4365309528326161
0.028085106382978724 0.4597936465080351 0.42902277596102056
0.028297872340425533 0.4606741573033708 0.42455623271152076
0.02851063829787234 0.4595450130672311 0.42460362579563965
0.02872340425531915 0.4567061904721236 0.42577992263679987
0.02893617021276596 0.45644998130238024 0.42455267961793686
0.029148936170212764 0.4615794201858249 0.42951191708206465
0.029361702127659574 0.45790548661752767 0.43794233035186775
0.029574468085106383 0.4545990619774916 0.4451479531343611
0.029787234042553193 0.45335766803954997 0.4470182183458318
0.03 0.45441935990271737 0.4507118419923179
0.03021276595744681 0.4543690816674193 0.4566886133653477
0.030425531914893618 0.45278599467555525 0.4654013161201709
0.030638297872340424 0.45433283959414067 0.477321587980862
0.030851063829787233 0.45481191988275516 0.48979095117245497
0.031063829787234043 0.45785220616895994 0.4920634052601116
0.03127659574468085 0.4516129595246108 0.49184509652540925
0.03148936170212766 0.4509037616023448 0.4866543283398829
0.03170212765957447 0.4485853756585617 0.4840734217932436
0.031914893617021274 0.4476883678109771 0.47786432896630643
0.03212765957446809 0.4482519582850521 0.4703054596133388
0.03234042553191489 0.4479726428920372 0.4627406712814423
0.0325531914893617 0.44992332531464324 0.4547881428595621
0.03276595744680851 0.4490908060942157 0.4471259010995813
0.03297872340425532 0.4504587479289548 0.4407803407296403
0.033191489361702124 0.4515156380432353 0.437955533879333
0.03340425531914894 0.4493893468107357 0.43766487196950465
0.03361702127659574 0.45314341556492554 0.43430912829847296
0.033829787234042556 0.45263884120336667 0.4356796380276168
0.03404255319148936 0.45094860311861285 0.43624816805080613
0.03425531914893617 0.4503113282247122 0.4369212288876285
0.03446808510638298 0.453362702569513 0.44214308955524484
0.03468085106382979 0.4541454535249075 0.44068905499608707
0.03489361702127659 0.4572254208532107 0.44464029826108104
0.035106382978723406 0.4561166092798068 0.4486161227244467
0.03531914893617021 0.4542290261161061 0.44992672203224227
0.03553191489361702 0.4529160947490833 0.44992672203224227
0.03574468085106383 0.45676599902296044 0.4441962661829012
0.03595744680851064 0.45660052263133705 0.44782298528005143
0.036170212765957444 0.4563656436594933 0.453322511689036
0.036382978723404256 0.4581533891523045 0.45840740125992663
0.03659574468085106 0.45712871944831035 0.4638568747330812
0.03680851063829787 0.4557889594528579 0.47044720592117545
0.03702127659574468 0.4619855052360072 0.4747223368132829
0.03723404255319149 0.45106204609789663 0.4807054208188161
0.0374468085106383 0.4528578407425501 0.4862581927361903
0.03765957446808511 0.45270092965263464 0.49127620615638207
0.03787234042553191 0.45271123016720427 0.49236284378691836
0.038085106382978726 0.45481191988275516 0.4909623839765511
0.03829787234042553 0.4553271762396611 0.48993187126273935
0.03851063829787234 0.4557889594528579 0.4864554036719229
0.03872340425531915 0.45731101725322726 0.47977294425464245
0.03893617021276596 0.45597683040832054 0.48267639002707385
0.03914893617021276 0.454058326096529 0.4808408591865765
0.039361702127659576 0.4598860494443184 0.46965644514534416
0.03957446808510638 0.45634860754103596 0.4638804108893495
0.03978723404255319 0.4561458551575267 0.4573013425799638
0.04 0.4538348803126526 0.4491416651895357
0.04021276595744681 0.45512543349069895 0.44052458805856737
0.04042553191489362 0.45501958209162907 0.43666349246855385
0.040638297872340426 0.4566003120790304 0.4434017368359067
0.04085106382978723 0.4578626985127253 0.4371653776610775
0.041063829787234045 0.4615407158943257 0.4354184364529002
0.04127659574468085 0.4588544899285816 0.4390000710738923
0.04148936170212766 0.45685833381499574 0.4466262641537932
0.04170212765957447 0.4548170372858066 0.45576593113912645
0.041914893617021276 0.4557315268224214 0.4661336814582484
0.04212765957446808 0.45481191988275516 0.47545131712318345
0.042340425531914895 0.4549784962215753 0.4773062484579331
0.0425531914893617 0.4557889594528579 0.4809648049700072
0.04276595744680851 0.454846546175739 0.47414245240471853
0.04297872340425532 0.4536004382041421 0.46565694064010876
0.043191489361702126 0.45437194550854193 0.46218826206936264
0.04340425531914894 0.4542870504468592 0.45848600593402705
0.043617021276595745 0.4560230899797547 0.45279330305442267
0.04382978723404255 0.4570223526410279 0.4481250071521545
0.044042553191489364 0.45689779152439064 0.44282386003866375
0.04425531914893617 0.4573358308528145 0.43917928676111373
0.044468085106382976 0.4552285211094717 0.43581665670079706
0.04468085106382979 0.45481191988275516 0.43128623435086344
0.044893617021276595 0.4508934135997882 0.43352073565656407
0.0451063829787234 0.4577695679523162 0.4264512429905269
0.045319148936170214 0.454931373615645 0.43023661346407815
0.04553191489361702 0.4547933352883215 0.43031159225245585
0.045744680851063826 0.45302063730361775 0.42267814511008156
0.04595744680851064 0.4613468914451118 0.42861443474700234
0.046170212765957445 0.45676599902296044 0.43165904553794304
0.04638297872340425 0.45676599902296044 0.4391095678823374
0.046595744680851064 0.4574476459192288 0.4492223412206471
0.04680851063829787 0.4602525338963578 0.4532348665642041
0.047021276595744683 0.45612889971592446 0.4633936794079034
0.04723404255319149 0.46036467617685484 0.4675908045757179
0.047446808510638296 0.4612587365745112 0.4687521140634995
0.04765957446808511 0.4605824859474135 0.4685821452201487
0.047872340425531915 0.4595896930101818 0.46888777020294986
0.04808510638297872 0.4602371679686832 0.46946751343429405
0.048297872340425534 0.45820625769602885 0.47275804624408324
0.04851063829787234 0.45545135863578207 0.4756673516719853
0.048723404255319146 0.4541625513716886 0.4789042644692787
0.04893617021276596 0.45335987386206417 0.4830649874089535
0.049148936170212765 0.45318041146346183 0.48575461540512627
0.04936170212765957 0.4535635720569607 0.4851001465559355
0.049574468085106384 0.4538921382383966 0.48530700605510474
0.04978723404255319 0.45736393052714724 0.4862288293524043
0.05 0.45315384078103915 0.48791286525084765
0.05021276595744681 0.4521202266278888 0.4799175100049688
0.050425531914893615 0.45188080117244755 0.47667362370993
0.05063829787234043 0.45037797018124953 0.4702954664602202
0.050851063829787234 0.4506091013674953 0.46250804195208667
0.05106382978723404 0.4524500471787853 0.45806594347820884
0.05127659574468085 0.4509595626205189 0.4525646245211078
0.05148936170212766 0.45043166560943804 0.4479397953077481
0.051702127659574465 0.4518602264073717 0.44603913851690763
0.05191489361702128 0.4510647736199825 0.44055885637531034
0.052127659574468084 0.44989000264219187 0.4305695275804425
0.05234042553191489 0.451389132493309 0.42016165297907276
0.0525531914893617 0.4500267273124867 0.4087275574636763
0.05276595744680851 0.44873470281833233 0.40014663328147754
0.05297872340425532 0.45210889240089763 0.39560789212623443
0.05319148936170213 0.4558578248468376 0.38955686486782104
0.053404255319148934 0.452450106851429 0.3817570644387367
0.05361702127659575 0.4503100737706911 0.3782194816763045
0.05382978723404255 0.4521554408868689 0.3797119259855242
0.05404255319148936 0.4538348803126526 0.3797830956831355
0.05425531914893617 0.45279573619009983 0.3777500029495511
0.05446808510638298 0.45015025339207604 0.38538804782385305
0.054680851063829784 0.45188080117244755 0.4001299068589886
0.0548936170212766 0.45188080117244755 0.41186094838970416
0.0551063829787234 0.4582381259644826 0.4280802387205253
0.05531914893617021 0.4533488439827415 0.4416789150448991
0.05553191489361702 0.4534987211086171 0.45538992416481444
0.05574468085106383 0.45454844503549213 0.46487868582145875
0.055957446808510634 0.4563255989846675 0.4803797066603431
0.05617021276595745 0.4576379464763049 0.48848284425255534
0.05638297872340425 0.4577166557505643 0.5027132416602809
0.056595744680851066 0.4559221485011709 0.5053068831995522
0.05680851063829787 0.456516143274526 0.510025847305369
0.05702127659574468 0.45653164764062765 0.5118515590425903
0.05723404255319149 0.457743038593063 0.5143212482051499
0.0574468085106383 0.4572037093772422 0.51744407123086
0.057659574468085104 0.458024511716077 0.5195780046325402
0.05787234042553192 0.45943565225133737 0.5188424229032853
0.05808510638297872 0.4605000150501364 0.5070789295032693
0.05829787234042553 0.46516040389645447 0.5037436886393706
0.05851063829787234 0.4597943270343143 0.4930946801686739
0.05872340425531915 0.46259398028812965 0.4784321503424485
0.058936170212765954 0.45975616180050155 0.47605093280033456
0.05914893617021277 0.4621466582658942 0.46569211478363265
0.05936170212765957 0.4585543058647043 0.4554574148559353
0.059574468085106386 0.4547875262488549 0.4508793679684445
0.05978723404255319 0.4582200658371909 0.4440798079995247
0.06 0.4564977290638943 0.4373113224673607
0.06021276595744681 0.4540230747971584 0.43448228339510664
0.06042553191489362 0.4566369234704337 0.442700218383944
0.06063829787234042 0.45676599902296044 0.4443040001581815
0.060851063829787236 0.45676599902296044 0.4455738589969941
0.06106382978723404 0.45676599902296044 0.4468437178358066
0.06127659574468085 0.45676599902296044 0.44811357667461915
0.06148936170212766 0.4564793543825825 0.4503829056640295
0.06170212765957447 0.4561487133680422 0.45563364988857413
0.06191489361702127 0.45796505951896443 0.46538144342089055
0.062127659574468086 0.4587200781631655 0.47457844732157917
0.06234042553191489 0.4612953948496436 0.4862159540672361
0.0625531914893617 0.4647048197106373 0.4933437308383794
0.0627659574468085 0.4614494651679385 0.4943246648560068
0.06297872340425532 0.45913406527154754 0.49362858093181555
0.06319148936170213 0.46273530779877203 0.4889012334811498
0.06340425531914894 0.46360574659940873 0.4777735262444916
0.06361702127659574 0.4598424855450485 0.4662861942127851
0.06382978723404255 0.4613495959263019 0.45862897682093134
0.06404255319148935 0.46411333183724796 0.45349487006696854
0.06425531914893617 0.45693794857441045 0.4516502057145712
0.06446808510638298 0.45803272014175656 0.44723420920556395
0.06468085106382979 0.4574879205941318 0.4451265635147064
0.06489361702127659 0.4567047298947229 0.445387627081176
0.0651063829787234 0.457005374923513 0.44651685152082926
0.06531914893617022 0.4559405557178879 0.4379157269661359
0.06553191489361702 0.45669420379437253 0.43624816805080613
0.06574468085106383 0.4547813260688977 0.4313476732933643
0.06595744680851064 0.4534771870841875 0.42983540054873504
0.06617021276595744 0.46125739600190757 0.4226258713367363
0.06638297872340425 0.4553654897970974 0.4234675722231377
0.06659574468085107 0.45855884446634265 0.4301037716607505
0.06680851063829787 0.4557889594528579 0.4285616959581146
0.06702127659574468 0.4562980924815254 0.4318721032289606
0.06723404255319149 0.4616200442933483 0.4371940550407836
0.06744680851063829 0.45486387043824167 0.43722520762090866
0.06765957446808511 0.4538348803126526 0.4421093335854846
0.06787234042553192 0.4528191691542908 0.4496122243943578
0.06808510638297872 0.4541273536238852 0.451588327861215
0.06829787234042553 0.4557889594528579 0.44928479099296487
0.06851063829787234 0.45725713732461815 0.45335421607742066
0.06872340425531914 0.4549120202428119 0.4597662019956945
0.06893617021276596 0.45695557611196214 0.4639917187229555
0.06914893617021277 0.4623121446189372 0.4700652428148302
0.06936170212765957 0.4634527932329861 0.47720758860476853
0.06957446808510638 0.45953444151488454 0.47673014149673
0.06978723404255319 0.45258713508539894 0.4793203704346445
0.06999999999999999 0.45190375945504285 0.48022642784672026
0.07021276595744681 0.4571558357681912 0.4804427614246448
0.07042553191489362 0.45504143740918196 0.4775198996842521
0.07063829787234042 0.45460444361766045 0.46844707748701536
0.07085106382978723 0.46424699641205336 0.4664357989724679
0.07106382978723404 0.45446724148311013 0.46257124081474343
0.07127659574468086 0.4528578407425501 0.4564929663869433
0.07148936170212766 0.4521239220655322 0.45530271766668834
0.07170212765957447 0.4509037616023448 0.46062670555374563
0.07191489361702127 0.45288021170867565 0.46407701757413555
0.07212765957446808 0.45354932304530904 0.4632595348622991
0.07234042553191489 0.4536284827940606 0.46283463396216795
0.0725531914893617 0.4529245267826808 0.4608075293836323
0.07276595744680851 0.4508201506346283 0.4617348078411898
0.07297872340425532 0.44830448103557413 0.46441639651201266
0.07319148936170213 0.4508471789119888 0.46483255185334066
0.07340425531914893 0.45198721902662997 0.46707812343612887
0.07361702127659574 0.4492801117887453 0.4643715283058534
0.07382978723404256 0.44981449368749804 0.4638561369738832
0.07404255319148936 0.45447332495378806 0.45672927621060627
0.07425531914893617 0.4600397652918047 0.4461834298025484
0.07446808510638298 0.4558128166313153 0.44206269111450686
0.07468085106382978 0.45789309082463736 0.4367017248752671
0.0748936170212766 0.45815420347304775 0.42730010210974984
0.07510638297872341 0.4555972443783438 0.4217965990388029
0.07531914893617021 0.4552142112320896 0.41722463924571124
0.07553191489361702 0.45676599902296044 0.41531652108226425
0.07574468085106383 0.45498674233034325 0.4168899571505266
0.07595744680851063 0.453858955350387 0.4181127484095722
0.07617021276595745 0.45481191988275516 0.4139911204902408
0.07638297872340426 0.45848774927522706 0.41708768599289436
0.07659574468085106 0.45739844301476323 0.4261899239362772
0.07680851063829787 0.4557889594528579 0.4389030654342312
0.07702127659574468 0.4557889594528579 0.4486077903469871
0.0772340425531915 0.45888129850264026 0.46172694827658306
0.0774468085106383 0.4555239334944942 0.46708622612704553
0.07765957446808511 0.453882242001144 0.4768102131102005
0.07787234042553191 0.45608327326757125 0.471127278759786
0.07808510638297872 0.45879870607176626 0.46823216362329056
0.07829787234042553 0.4552913272162014 0.47214070357466864
0.07851063829787235 0.4570878634829856 0.47692762696500834
0.07872340425531915 0.457743038593063 0.4842502201700898
0.07893617021276596 0.4572349950903547 0.4921346607232237
0.07914893617021276 0.45676599902296044 0.5003206813215055
0.07936170212765957 0.45676599902296044 0.5033405895682259
0.07957446808510638 0.45676599902296044 0.501064322336638
0.0797872340425532 0.45676599902296044 0.499067278441189
0.08 0.45676599902296044 0.4910082147309836
0.08021276595744681 0.45676599902296044 0.487156218730997
0.08042553191489361 0.45676599902296044 0.4848776589095577
0.08063829787234042 0.45676599902296044 0.48259909908811843
0.08085106382978724 0.45676599902296044 0.48032053926667906
0.08106382978723405 0.45676599902296044 0.47804197944523974
0.08127659574468085 0.45676599902296044 0.4757634196238005
0.08148936170212766 0.45676599902296044 0.4734848598023612
0.08170212765957446 0.45676599902296044 0.47120629998092195
0.08191489361702127 0.45676599902296044 0.4689277401594827
0.08212765957446809 0.45676599902296044 0.46664918033804326
0.0823404255319149 0.45676599902296044 0.464370620516604
0.0825531914893617 0.45676599902296044 0.46209206069516473
0.08276595744680851 0.45676599902296044 0.4598135008737254
0.08297872340425531 0.45676599902296044 0.45753494105228615
0.08319148936170212 0.45676599902296044 0.4552563812308469
0.08340425531914894 0.45676599902296044 0.45297782140940746
0.08361702127659575 0.45676599902296044 0.4506992615879682
0.08382978723404255 0.45676599902296044 0.44842070176652893
0.08404255319148936 0.45676599902296044 0.44614214194508967
0.08425531914893616 0.456791536561952 0.44501598664273784
0.08446808510638298 0.45684093526529684 0.444966587939393
0.08468085106382979 0.45689033396864176 0.44491718923604806
0.0848936170212766 0.4569397326719866 0.4448677905327032
0.0851063829787234 0.45698913137533154 0.4448183918293583
0.08531914893617021 0.4570385300786764 0.4447689931260134
0.08553191489361701 0.4570879287820213 0.4447195944226685
0.08574468085106383 0.45713732748536623 0.4446701957193236
0.08595744680851064 0.4571867261887111 0.44462079701597873
0.08617021276595745 0.457236124892056 0.4445713983126338
0.08638297872340425 0.45728552359540087 0.44452199960928895
0.08659574468085106 0.4573349222987458 0.44447260090594404
0.08680851063829788 0.45738432100209064 0.4444232022025992
0.08702127659574468 0.45743371970543556 0.44437380349925426
0.08723404255319149 0.4574831184087804 0.4443244047959094
0.0874468085106383 0.45753251711212534 0.4442750060925645
0.0876595744680851 0.4575819158154702 0.4442256073892196
0.08787234042553191 0.4576313145188151 0.4441762086858747
0.08808510638297873 0.45768071322216003 0.4441268099825298
0.08829787234042553 0.4577301119255049 0.44407741127918493
0.08851063829787234 0.4566271812363504 0.4410888649937266
0.08872340425531915 0.45511583410832984 0.4370586059856719
0.08893617021276595 0.455295390292412 0.4314134639542383
0.08914893617021276 0.4556902357276685 0.42618160117421183
0.08936170212765958 0.45515485934613464 0.42457547202961066
0.08957446808510638 0.45461456061855504 0.42361244006087234
0.08978723404255319 0.4540654898386701 0.42379546365416737
0.09 0.45351641905878515 0.4239784872474624
0.0902127659574468 0.45296734827890023 0.4241615108407574
0.09042553191489362 0.45241827749901525 0.42434453443405246
0.09063829787234043 0.4519461614536775 0.424575981434559
0.09085106382978723 0.45504138462690324 0.42705215997313967
0.09106382978723404 0.4556590127268853 0.43009233093409804
0.09127659574468085 0.4531591238504013 0.433842164248824
0.09148936170212765 0.45676685625392344 0.4290820682287696
0.09170212765957447 0.45624192869700175 0.42592707246841044
0.09191489361702128 0.45182099273163956 0.42494464225388556
0.09212765957446808 0.4479109788796156 0.4218360356727395
0.09234042553191489 0.44438400935166883 0.417133409635477
0.0925531914893617 0.44197879209989943 0.41462168413702694
0.0927659574468085 0.4421009693012327 0.4137762579384465
0.09297872340425532 0.44352990067458253 0.41643099173679726
0.09319148936170213 0.444771676095632 0.4238816442630941
0.09340425531914893 0.4460134515166815 0.43133229678939095
0.09361702127659574 0.44725522693773095 0.43878294931568784
0.09382978723404255 0.4484970023587804 0.4462336018419847
0.09404255319148937 0.44973877777983 0.45368425436828197
0.09425531914893617 0.4509805532008795 0.4611349068945788
0.09446808510638298 0.45222232862192896 0.46858555942087565
0.09468085106382979 0.45346410404297843 0.4760362119471725
0.09489361702127659 0.4547058794640279 0.48348686447346934
0.0951063829787234 0.45532058073367804 0.48395355336885865
0.09531914893617022 0.4558767338336835 0.48376816900219016
0.09553191489361702 0.45643288693368894 0.48358278463552173
0.09574468085106383 0.45698904003369434 0.48339740026885325
0.09595744680851064 0.45754519313369973 0.4832120159021848
0.09617021276595744 0.45813015029994725 0.48692040655785185
0.09638297872340426 0.45873101210531153 0.4927788091601535
0.09659574468085107 0.45933187391067576 0.49863721176245474
0.09680851063829787 0.45993273571604 0.504495614364756
0.09702127659574468 0.4605335975214042 0.5103540169670572
0.09723404255319149 0.46113445932676844 0.5162124195693585
0.09744680851063829 0.46165119687347334 0.5205122931627708
0.09765957446808511 0.46165119687347334 0.5152388228794422
0.09787234042553192 0.46165119687347334 0.509965352596114
0.09808510638297872 0.46165119687347334 0.5046918823127858
0.09829787234042553 0.46165119687347334 0.4994184120294576
0.09851063829787234 0.46165119687347334 0.49414494174612933
0.09872340425531914 0.46165119687347334 0.48887147146280113
0.09893617021276596 0.46165119687347334 0.48359800117947255
0.09914893617021277 0.46165119687347334 0.47832453089614435
0.09936170212765957 0.46038656737588646 0.47174663394508015
0.09957446808510638 0.4574598922395514 0.4634543877254638
0.09978723404255319 0.4580317777334919 0.4564772598825315
0.1 0.46196614257466967 0.45099800934723927
0.10021276595744681 0.45657451935466437 0.44444744394821895
0.10042553191489362 0.4529134382910099 0.451769606075528
0.10063829787234042 0.45624227961440333 0.44765025258263086
0.10085106382978723 0.45991250348949386 0.4407025943888676
0.10106382978723404 0.46115447682704674 0.43672848757448207
0.10127659574468086 0.4602201428848408 0.43579415363227614
0.10148936170212766 0.45928580894263493 0.43485981969007026
0.10170212765957447 0.45835147500042905 0.4339254857478644
0.10191489361702127 0.4574171410582232 0.4329911518056585
0.10212765957446808 0.4564828071160173 0.4320568178634526
0.10234042553191489 0.4555484731738114 0.43112248392124675
0.1025531914893617 0.45515681338065017 0.4307691456278516
0.10276595744680851 0.4567861219083362 0.4325794884363916
0.10297872340425532 0.4584154304360222 0.4343898312449316
0.10319148936170212 0.4600447389637082 0.43620017405347156
0.10340425531914893 0.4616740474913942 0.43801051686201153
0.10361702127659575 0.46330335601908024 0.4398208596705516
0.10382978723404256 0.4587946021957066 0.44256166324020246
0.10404255319148936 0.45402362431654836 0.44485278017783364
0.10425531914893617 0.4552028019327002 0.4436736025616818
0.10446808510638297 0.4566117425746917 0.44473301128519177
0.10468085106382978 0.457743038593063 0.44895802529599166
0.1048936170212766 0.45741981661306913 0.4538275066825317
0.1051063829787234 0.45658440053607624 0.45633375491351025
0.10531914893617021 0.45574898445908335 0.45884000314448886
0.10553191489361702 0.45491356838209046 0.4613462513754674
0.10574468085106382 0.45778515649747914 0.46224584419641807
0.10595744680851064 0.4579832762278616 0.4604859345618175
0.10617021276595745 0.4554857833056874 0.4550144532685289
0.10638297872340426 0.4548029527312787 0.44898256201755343
0.10659574468085106 0.4542345697801512 0.4510666328383543
0.10680851063829787 0.45366618682902377 0.45315070365915516
0.10702127659574467 0.4530978038778963 0.455234774479956
0.1072340425531915 0.4525294209267688 0.457318845300757
0.1074468085106383 0.4519610379756413 0.4594029161215578
0.1076595744680851 0.4522602178514953 0.459241817718411
0.10787234042553191 0.4527019994217421 0.45871167983411476
0.10808510638297872 0.453143780991989 0.4581815419498185
0.10829787234042552 0.45358556256223587 0.45765140406552224
0.10851063829787234 0.45402734413248275 0.45712126618122595
0.10872340425531915 0.45446912570272957 0.4565911282969297
0.10893617021276596 0.45491090727297645 0.4560609904126335
0.10914893617021276 0.45535268884322333 0.45553085252833725
0.10936170212765957 0.4557944704134702 0.45500071464404096
0.10957446808510639 0.4562362519837171 0.45447057675974467
0.1097872340425532 0.4566780335539639 0.45394043887544844
0.11 0.45442699545461207 0.45325012942056553
0.1102127659574468 0.4532344592781109 0.4502215109936241
0.11042553191489361 0.4538348803126526 0.4474645460415917
0.11063829787234042 0.4538348803126526 0.4529768151565711
0.11085106382978724 0.4538348803126526 0.46023051229241163
0.11106382978723404 0.45314725653680255 0.4672726028182123
0.11127659574468085 0.45190711519251964 0.4738866899877209
0.11148936170212766 0.4512048717777018 0.4801412396613911
0.11170212765957446 0.452781892426642 0.48487230160821154
0.11191489361702127 0.4514243942039714 0.4910443729020948
0.11212765957446809 0.4468024691801107 0.4983242645861216
0.1123404255319149 0.449183001858722 0.4990557819177275
0.1125531914893617 0.44992672203224227 0.49670266378278477
0.1127659574468085 0.44992672203224227 0.493409920540166
0.11297872340425531 0.4486482155479153 0.48332766448430303
0.11319148936170213 0.4489355686670722 0.47344624069004204
0.11340425531914894 0.44992672203224227 0.46018830998202054
0.11361702127659574 0.44992672203224227 0.4410179798258157
0.11382978723404255 0.44992672203224227 0.42184764966961086
0.11404255319148936 0.45070604772630696 0.4213919781707075
0.11425531914893616 0.4515868788072641 0.4233738481028611
0.11446808510638298 0.4524677098882213 0.4253557180350149
0.11468085106382979 0.4533485409691784 0.42733758796716853
0.1148936170212766 0.453368324621247 0.41863418197046615
0.1151063829787234 0.44899868431402473 0.4046061721505235
0.11531914893617021 0.4460185637518319 0.3961114818558246
0.11553191489361703 0.4468001616887838 0.3901320352184846
0.11574468085106383 0.4461229697483197 0.3867323679650375
0.11595744680851064 0.450989925135334 0.3835249584936901
0.11617021276595745 0.4567930829753792 0.3865548579209574
0.11638297872340425 0.45247851172539194 0.3881835646072001
0.11659574468085106 0.45481831605949025 0.39500174736831295
0.11680851063829788 0.4529136278723088 0.40618308989666074
0.11702127659574468 0.4570422577489932 0.4156413790434492
0.11723404255319149 0.45719745445930576 0.42779719801211846
0.1174468085106383 0.455881071332219 0.43304071370241504
0.1176595744680851 0.4570426843389268 0.43836035308584914
0.11787234042553191 0.4634366048347626 0.44447180197624486
0.11808510638297873 0.46056933758428803 0.45990675717143364
0.11829787234042553 0.4566437393505312 0.47758792246219073
0.11851063829787234 0.457743038593063 0.49963541892642505
0.11872340425531915 0.4595474051511234 0.5133607403932253
0.11893617021276595 0.46271332331773907 0.5184045788135866
0.11914893617021277 0.46279543791170097 0.5176768553055711
0.11936170212765958 0.47108162377599266 0.5117068608143766
0.11957446808510638 0.46500710573246445 0.5009734866857871
0.11978723404255319 0.45969711773326827 0.4930952116247846
0.12 0.459050001303851 0.48933822797703114
0.1202127659574468 0.45729210906303547 0.4893840538563259
0.12042553191489362 0.45676599902296044 0.49675512790541126
0.12063829787234043 0.45605745338589865 0.4971900514922677
0.12085106382978723 0.45830454425329975 0.49920169489432
0.12106382978723404 0.4596887385509675 0.5055677024342852
0.12127659574468085 0.4579880679152282 0.5168585491621073
0.12148936170212765 0.45944811947179587 0.525120861978568
0.12170212765957447 0.45760926511922506 0.5167046344069982
0.12191489361702128 0.45628228411402694 0.5080173325682865
0.12212765957446808 0.45863996067765234 0.49929132119360364
0.12234042553191489 0.46044426413851003 0.48188169329233005
0.1225531914893617 0.4554720528092511 0.4625445339284427
0.12276595744680852 0.45481191988275516 0.44571871396384055
0.12297872340425532 0.455559373897796 0.43210522037097554
0.12319148936170213 0.4558633431734892 0.4306633631089241
0.12340425531914893 0.4559661666843199 0.43374806843384495
0.12361702127659574 0.45606899019515057 0.43683277375876584
0.12382978723404255 0.45617181370598126 0.43991747908368667
0.12404255319148937 0.45627463721681194 0.4430021844086077
0.12425531914893617 0.4563774607276426 0.44608688973352856
0.12446808510638298 0.45648028423847337 0.4491715950584494
0.12468085106382978 0.45658310774930405 0.4522563003833703
0.12489361702127659 0.45668593126013474 0.4553410057082911
0.1251063829787234 0.45662397561348633 0.45794187136632675
0.12531914893617022 0.45598223245570985 0.45884031178721385
0.125531914893617 0.4553404892979334 0.45973875220810084
0.12574468085106383 0.45469874614015693 0.460637192628988
0.12595744680851065 0.4540570029823804 0.4615356330498751
0.12617021276595744 0.45341525982460396 0.4624340734707621
0.12638297872340426 0.45277351666682747 0.46333251389164926
0.12659574468085105 0.45213177350905104 0.46423095431253625
0.12680851063829787 0.4523650474270568 0.46797203936604614
0.1270212765957447 0.45208987507605397 0.47103760974125125
0.12723404255319148 0.45254644920262815 0.47208724060467994
0.1274468085106383 0.4529794190623693 0.47481083648990347
0.1276595744680851 0.4509037616023448 0.4758352942548884
0.12787234042553192 0.4531831672041297 0.4774464932259046
0.1280851063829787 0.458215584604879 0.4748572048430936
0.12829787234042553 0.45650573821837487 0.4741735165934277
0.12851063829787235 0.4530784120322926 0.4761597428985172
0.12872340425531914 0.4537909088719956 0.47990714862082345
0.12893617021276596 0.45351076393676265 0.4722330561248324
0.12914893617021275 0.4561886709772512 0.4636497544954401
0.12936170212765957 0.4536148058815719 0.4543717710205938
0.1295744680851064 0.4508710145801011 0.44736950852913243
0.12978723404255318 0.44992672203224227 0.44154699209046083
0.13 0.4491727458913003 0.4356324694855644
0.1302127659574468 0.44742094244005065 0.4381159389658233
0.13042553191489362 0.4495593126671689 0.4400338565428587
0.13063829787234044 0.4538204011497848 0.4431164033672598
0.13085106382978723 0.45077431598254075 0.4499852474205721
0.13106382978723405 0.45096321286818325 0.45495214006006374
0.13127659574468084 0.45233183661773113 0.4495509611085119
0.13148936170212766 0.4479741314976931 0.4474852395612278
0.13170212765957448 0.44712405457812926 0.4476767999912779
0.13191489361702127 0.4511298450264551 0.4432667186201875
0.1321276595744681 0.4528578407425501 0.43939429267103214
0.13234042553191488 0.4519645169793213 0.44096593428757164
0.1325531914893617 0.45667463566246 0.4422931321924224
0.1327659574468085 0.45463756539883904 0.4458442092679158
0.13297872340425532 0.4562379783633273 0.4450415241817294
0.13319148936170214 0.4586462953818142 0.44547079582339494
0.13340425531914893 0.45481191988275516 0.44657736568450923
0.13361702127659575 0.4541290080741624 0.44836142693912007
0.13382978723404254 0.4514276603701941 0.44092561598727803
0.13404255319148936 0.4527562567969587 0.4354742963718861
0.13425531914893618 0.4539120051269502 0.4344483385391959
0.13446808510638297 0.45419615532625474 0.43645342290297295
0.1346808510638298 0.45188080117244755 0.43789207829078064
0.13489361702127659 0.45188080117244755 0.43871905432646885
0.1351063829787234 0.4530557048074965 0.43702734355596223
0.13531914893617022 0.4545503210650917 0.44054081256544053
0.13553191489361702 0.45481191988275516 0.4429553028677174
0.13574468085106384 0.45672254655961164 0.44404275837995244
0.13595744680851063 0.45316801374226906 0.4514672371728223
0.13617021276595745 0.45532930223028606 0.4486621287258949
0.13638297872340424 0.45455193114791337 0.4548475411962786
0.13659574468085106 0.45627508407161277 0.4606789476359636
0.13680851063829788 0.45553960015900274 0.46031031716524706
0.13702127659574467 0.45481191988275516 0.4658507061062395
0.1372340425531915 0.45221389686425306 0.45971936523858203
0.13744680851063829 0.4528578407425501 0.4626638047551539
0.1376595744680851 0.4528578407425501 0.4647313046105257
0.13787234042553193 0.4547805313475538 0.46610869532674193
0.13808510638297872 0.4577673827259683 0.466741540291169
0.13829787234042554 0.45436746751422746 0.46422599804830045
0.13851063829787233 0.4538348803126526 0.46213855912436375
0.13872340425531915 0.4550552440566978 0.4592104693853832
0.13893617021276597 0.46167502923231646 0.46142183220522454
0.13914893617021276 0.4567122249502562 0.4600433422947926
0.13936170212765958 0.46023445327745205 0.45258432761391754
0.13957446808510637 0.4574424573697543 0.45511250110606405
0.1397872340425532 0.4629588140187774 0.4449515332101781
0.13999999999999999 0.4603220569384757 0.4427190138493223
0.1402127659574468 0.45712208629340545 0.4455712542401544
0.14042553191489363 0.45593492888356585 0.450319883879513
0.14063829787234042 0.45469883320693133 0.4547192034630877
0.14085106382978724 0.45351509648890115 0.45710347094556003
0.14106382978723403 0.4544587852732895 0.4565894317182276
0.14127659574468085 0.45825769228148655 0.4592347318515891
0.14148936170212767 0.4572896547034311 0.4606741573033708
0.14170212765957446 0.4593473012722865 0.4606741573033708
0.14191489361702128 0.45411698624161506 0.4598545109206514
0.14212765957446807 0.4547080723585466 0.4615473493492648
0.1423404255319149 0.4586721406473754 0.46575110521704427
0.1425531914893617 0.457743038593063 0.47025838261382585
0.1427659574468085 0.45801054290708915 0.4754227285409116
0.14297872340425533 0.4583393754627551 0.4794029776664486
0.14319148936170212 0.457743038593063 0.4811919882755251
0.14340425531914894 0.457743038593063 0.48179327139954525
0.14361702127659573 0.457743038593063 0.4827925709047799
0.14382978723404255 0.4597662764210613 0.4831460674157304
0.14404255319148937 0.4583304532338085 0.4831460674157304
0.14425531914893616 0.45595944140269934 0.4840378660109122
0.14446808510638298 0.4577596081238501 0.48213588878405345
0.14468085106382977 0.4587200781631655 0.47963125822825015
0.1448936170212766 0.4580359517018574 0.4753297508549097
0.1451063829787234 0.4564648661943385 0.47465384411342904
0.1453191489361702 0.45684298499284304 0.47157556451426436
0.14553191489361703 0.4547044250652221 0.4672984446590225
0.14574468085106382 0.4538348803126526 0.46428609124804177
0.14595744680851064 0.4553250829052005 0.46062487082858294
0.14617021276595746 0.4540704535239562 0.4571193588399158
0.14638297872340425 0.4557781566427112 0.45482272269290186
0.14659574468085107 0.45122724861441693 0.45166514316439943
0.14680851063829786 0.4531866729001318 0.44992672203224227
0.14702127659574468 0.45144073283588126 0.45046369326577873
0.14723404255319147 0.4530789256446315 0.45143863136828466
0.1474468085106383 0.4531844351391292 0.44797538651167196
0.14765957446808511 0.4530533962991143 0.44367361956940454
0.1478723404255319 0.4543730479936192 0.4408930855958444
0.14808510638297873 0.4538348803126526 0.4387556280745398
0.14829787234042552 0.455837152730847 0.4351747419247251
0.14851063829787234 0.45754959653981253 0.4262646716888293
0.14872340425531916 0.4532687909917305 0.42094429512850906
0.14893617021276595 0.451940565775709 0.41451423909550317
0.14914893617021277 0.45355261834097743 0.40693698094772834
0.14936170212765956 0.4534318128318838 0.40305945179913777
0.14957446808510638 0.45475277297329864 0.3892911217764251
0.1497872340425532 0.4504134870837026 0.3834915407324481
0.15 0.4515052629225839 0.37890198377372947
0.15021276595744681 0.4511744893834176 0.38088662500872716
0.1504255319148936 0.4569916458399135 0.39392577464060496
0.15063829787234043 0.45851799965316364 0.41131208094683597
0.15085106382978725 0.4582613991900186 0.42927411336698795
0.15106382978723404 0.4580047987268736 0.4472361457871376
0.15127659574468086 0.4577481982637286 0.46519817820728965
0.15148936170212765 0.4550582723126639 0.4816679528362784
0.15170212765957447 0.45316221570337795 0.496011948360066
0.15191489361702126 0.45470819698452863 0.501809378164381
0.15212765957446808 0.4562541782656795 0.5076068079686966
0.1523404255319149 0.4548931972384487 0.5076533340239885
0.1525531914893617 0.4531602676364486 0.5032219537171723
0.15276595744680851 0.45049230823594955 0.49697875423447857
0.1529787234042553 0.45721810541430224 0.4940247359815489
0.15319148936170213 0.4547076644294155 0.4926036967567373
0.15340425531914895 0.4526834786230353 0.48687986357662594
0.15361702127659574 0.4506821222176406 0.4863768558647398
0.15382978723404256 0.4509664848272656 0.48192192523574906
0.15404255319148935 0.4520385083189423 0.4703376100400464
0.15425531914893617 0.44992672203224227 0.45980475817557404
0.154468085106383 0.44912789290005467 0.4495765368332716
0.15468085106382978 0.44987235912048934 0.43782319965019073
0.1548936170212766 0.4490026503960245 0.41783007803704
0.1551063829787234 0.44978838253632253 0.41999084142285953
0.15531914893617021 0.4505741146766206 0.42215160480867936
0.155531914893617 0.45135984681691865 0.4243123681944989
0.15574468085106383 0.45214557895721674 0.42647313158031874
0.15595744680851065 0.453177935843588 0.429872279444656
0.15617021276595744 0.45660120784163355 0.4452770034358608
0.15638297872340426 0.455337985169811 0.4698187946376553
0.15659574468085105 0.45383775235848833 0.49482267482636655
0.15680851063829787 0.4538348803126526 0.4938362381013141
0.1570212765957447 0.4538348803126526 0.4927999500757728
0.15723404255319148 0.4538348803126526 0.49176366205023164
0.1574468085106383 0.4538348803126526 0.4907273740246903
0.1576595744680851 0.4538348803126526 0.4896910859991491
0.15787234042553192 0.4536783603581226 0.48705180540472026
0.15808510638297874 0.453219529790078 0.4813164233041626
0.15829787234042553 0.45276069922203344 0.4755810412036056
0.15851063829787235 0.45230186865398886 0.46984565910304793
0.15872340425531914 0.45188080117244755 0.46372943607223227
0.15893617021276596 0.45188080117244755 0.4533667452279793
0.15914893617021275 0.45459235599608383 0.451581650308254
0.15936170212765957 0.4559034176966299 0.45142296819735966
0.1595744680851064 0.45607590135903237 0.45073303354774974
0.15978723404255318 0.45624838502143483 0.45004309889813987
0.16 0.4564208686838373 0.4493531642485299
0.1602127659574468 0.45659335234623977 0.44866322959892
0.16042553191489362 0.45676583600864223 0.44797329494931004
0.16063829787234044 0.45749906277523367 0.44943877039658364
0.16085106382978723 0.457743038593063 0.45205930354667395
0.16106382978723405 0.457743038593063 0.4552913557282472
0.16127659574468084 0.4558717965797287 0.4576602014661922
0.16148936170212766 0.4557889594528579 0.4608590262982302
0.16170212765957448 0.4557889594528579 0.4630694498833747
0.16191489361702127 0.4557889594528579 0.4652798734685188
0.1621276595744681 0.4557889594528579 0.46749029705366324
0.16234042553191488 0.4557048732238011 0.4686266511437262
0.1625531914893617 0.45490787304415026 0.46065664934721906
0.1627659574468085 0.45573561313199107 0.4569260379855609
0.16297872340425532 0.46276743693041983 0.44964832105855435
0.16319148936170214 0.4631759824421635 0.44561675428279834
0.16340425531914893 0.4585830700812781 0.4437844741155551
0.16361702127659575 0.4612175752488019 0.4422723181233774
0.16382978723404254 0.46184780998536423 0.44171717924763987
0.16404255319148936 0.460149535038873 0.4482614627276093
0.16425531914893618 0.4636858200209835 0.4458977477408745
0.16446808510638297 0.46171360058520333 0.44231829412778806
0.1646808510638298 0.4606741573033708 0.4437897351305504
0.16489361702127658 0.45805753643613795 0.4466811054788595
0.1651063829787234 0.457743038593063 0.450142228423844
0.16531914893617022 0.45490125588454244 0.4530350986337352
0.16553191489361702 0.4538348803126526 0.4525058402746472
0.16574468085106384 0.4538348803126526 0.4525179522707255
0.16595744680851063 0.45511505830239285 0.4509375737579398
0.16617021276595745 0.4551070499548353 0.44788099353817473
0.16638297872340424 0.4562971538403274 0.4492234542582927
0.16659574468085106 0.45847329396984254 0.44651213213847785
0.16680851063829788 0.4528904309524277 0.4430874450415241
0.16702127659574467 0.4545094458550437 0.44293620802766837
0.1672340425531915 0.4523122041012205 0.44129195050942727
0.16744680851063828 0.45130537972777146 0.43676957800855437
0.1676595744680851 0.45341052144769256 0.4322972358236682
0.16787234042553192 0.45233255457428734 0.4288836048918252
0.16808510638297872 0.4493906745783467 0.4335071600158755
0.16829787234042554 0.4534120904700197 0.43705609168385545
0.16851063829787233 0.45389264042118016 0.44263024644816934
0.16872340425531915 0.45481191988275516 0.4528888202987333
0.16893617021276597 0.45515051760848424 0.46507592773784795
0.16914893617021276 0.4546589727054507 0.4790256054517404
0.16936170212765958 0.4537240946616154 0.49149628094250436
0.16957446808510637 0.457170266774745 0.5019658318224938
0.1697872340425532 0.46026044397535654 0.5112954766204236
0.17 0.4591488762064418 0.5191066204333501
0.1702127659574468 0.46008957140104734 0.5144031444603224
0.17042553191489362 0.4590344325917698 0.5057411784581022
0.17063829787234042 0.4539361937089782 0.49890027661296255
0.17085106382978724 0.4538348803126526 0.4850144384288866
0.17106382978723403 0.4538348803126526 0.4744522366732677
0.17127659574468085 0.4538348803126526 0.4665363947239862
0.17148936170212767 0.45436189715541175 0.45757710839708066
0.17170212765957446 0.4572437981625098 0.4465220924405858
0.17191489361702128 0.46014457491468536 0.43816541604593606
0.17212765957446807 0.46008800195741 0.4276507670027092
0.1723404255319149 0.45534261445373775 0.41654043719710254
0.1725531914893617 0.4538348803126526 0.41018794182763535
0.1727659574468085 0.4546240464059885 0.4049452296212537
0.17297872340425532 0.4538913205787213 0.4058470608454885
0.17319148936170212 0.4530117422904331 0.40446756688106955
0.17340425531914894 0.4544572504274742 0.41004543438567664
0.17361702127659576 0.45404980529430855 0.41227549669024893
0.17382978723404255 0.45661429220690347 0.41557863026259484
0.17404255319148937 0.4528131399596141 0.41484269907442095
0.17425531914893616 0.4493438634004865 0.4213912776422115
0.17446808510638298 0.44654273973828756 0.42957650503249956
0.17468085106382977 0.44554722384241574 0.434765428820017
0.1748936170212766 0.4436992314913953 0.4384031447581496
0.1751063829787234 0.441299116967505 0.445355559487088
0.1753191489361702 0.44051777183443347 0.45462551357406356
0.17553191489361702 0.44091239984939795 0.4632911345993391
0.17574468085106382 0.4402368415931332 0.46531780936813344
0.17595744680851064 0.44329085132483265 0.4632084614086715
0.17617021276595746 0.4458260262182641 0.4649182405322044
0.17638297872340425 0.4480768947027668 0.46784436956205794
0.17659574468085107 0.4503277631872698 0.47077049859191195
0.17680851063829786 0.45257863167177254 0.4736966276217655
0.17702127659574468 0.4533624421896609 0.4758696801383288
0.1772340425531915 0.45229329392287543 0.4770915638717979
0.1774468085106383 0.4512241456560901 0.47831344760526684
0.1776595744680851 0.45015499738930465 0.4795353313387359
0.1778723404255319 0.44908584912251936 0.4807572150722048
0.17808510638297873 0.4480167008557339 0.4819790988056739
0.17829787234042552 0.44708160335349284 0.4829310673368344
0.17851063829787234 0.44913357752219357 0.47830684333023077
0.17872340425531916 0.45673503291379036 0.4801901758180865
0.17893617021276595 0.45453243490605577 0.47842809741189884
0.17914893617021277 0.4523298368983209 0.47666601900571093
0.17936170212765956 0.4563591026945804 0.4725748724899015
0.17957446808510638 0.45572124996165225 0.456595142610821
0.1797872340425532 0.4552220132152438 0.44992672203224227
0.18 0.4558425293340275 0.44992672203224227
0.1802127659574468 0.45646304545281136 0.44992672203224227
0.1804255319148936 0.45708356157159513 0.44992672203224227
0.18063829787234043 0.45770407769037896 0.44992672203224227
0.18085106382978725 0.45867856200327545 0.4443135815709672
0.18106382978723404 0.45678853325208824 0.4440194161533713
0.18127659574468086 0.45855330801066696 0.4404898666362136
0.18148936170212765 0.459682942632103 0.44111919080015377
0.18170212765957447 0.4604890974474492 0.4412258958292798
0.18191489361702126 0.45937819152673515 0.4427685188349912
0.18212765957446808 0.46165119687347334 0.4450415241817294
0.1823404255319149 0.4607150375249967 0.44878616157563617
0.1825531914893617 0.460898025561215 0.4528578407425501
0.1827659574468085 0.4594506246437517 0.4601930815082887
0.1829787234042553 0.4630478396150652 0.46695599789547554
0.18319148936170213 0.4568869005937548 0.47145613588044055
0.18340425531914895 0.4640432451221738 0.47425160993169485
0.18361702127659574 0.46416851990805236 0.4784486175300087
0.18382978723404256 0.45996075271761794 0.4763067904250122
0.18404255319148935 0.4610918717250972 0.4717826627055658
0.18425531914893617 0.4580949855765579 0.4662632491208737
0.184468085106383 0.45700652059239355 0.46114024714986696
0.18468085106382978 0.45590009237273577 0.4579653044328187
0.1848936170212766 0.4566949790447223 0.453976920269129
0.1851063829787234 0.4541126363632296 0.4595582397079797
0.1853191489361702 0.45547084793639026 0.45776574361376265
0.185531914893617 0.45440403168703697 0.45200411368097365
0.18574468085106383 0.4549697211425577 0.45033634118739235
0.18595744680851065 0.45221596916517054 0.4476659393073808
0.18617021276595744 0.4522456962840881 0.4430286221591145
0.18638297872340426 0.4528578407425501 0.4389067879928698
0.18659574468085105 0.4528578407425501 0.4344741925153901
0.18680851063829787 0.4557039157184156 0.4349744387861389
0.1870212765957447 0.45459976711878597 0.44295901652729847
0.18723404255319148 0.4562391153917248 0.45151395821828255
0.1874468085106383 0.45881976648952627 0.4593332083561677
0.1876595744680851 0.456186900341925 0.4613987884712442
0.18787234042553191 0.45791030840216734 0.46670366453309076
0.18808510638297873 0.45948235195309606 0.4690379818739497
0.18829787234042553 0.4588381879932767 0.471185372914277
0.18851063829787235 0.4606384705768124 0.4704623963676758
0.18872340425531914 0.4598344155274292 0.4671015409116061
0.18893617021276596 0.46102295346185307 0.460865892608948
0.18914893617021278 0.457743038593063 0.4559581845076411
0.18936170212765957 0.4574198799021163 0.45107290444508075
0.1895744680851064 0.4559658759060273 0.446553312189011
0.18978723404255318 0.457743038593063 0.4418223066648014
0.19 0.457743038593063 0.43927947459445077
0.1902127659574468 0.4567937058818161 0.4413943964206898
0.19042553191489361 0.45580543520898853 0.4437003613239541
0.19063829787234043 0.45481716453616094 0.4460063262272184
0.19085106382978723 0.45624105449732427 0.44351757817633597
0.19106382978723405 0.4576778138497698 0.4410032493095562
0.19127659574468084 0.4585410861586805 0.43926878276335624
0.19148936170212766 0.45788919345788415 0.4395947291137544
0.19170212765957448 0.4572373007570878 0.43992067546415264
0.19191489361702127 0.45658540805629155 0.44024662181455076
0.1921276595744681 0.4559335153554952 0.44057256816494894
0.19234042553191488 0.45528162265469896 0.4408985145153471
0.1925531914893617 0.45455446437544433 0.4424206434378732
0.19276595744680852 0.455317745230468 0.44707775297884284
0.19297872340425531 0.45925192563682227 0.45191964136416524
0.19319148936170213 0.4538348803126526 0.4557889594528579
0.19340425531914893 0.45375546186888616 0.4556698317872082
0.19361702127659575 0.4531769635722067 0.454802084342189
0.19382978723404254 0.4525984652755274 0.4539343368971699
0.19404255319148936 0.45201996697884794 0.45306658945215067
0.19425531914893618 0.45592000171551544 0.44528433972429776
0.19446808510638297 0.45770258701982913 0.4384017002623551
0.1946808510638298 0.45082110057192254 0.4390898489071457
0.19489361702127658 0.4508110715742136 0.4455466034633072
0.1951063829787234 0.45182752884900684 0.4528650958418187
0.19531914893617022 0.45284398612380006 0.4601835882203302
0.19553191489361701 0.4538604433985932 0.46750208059884074
0.19574468085106383 0.4550547293777196 0.4745955207797714
0.19595744680851063 0.4588528591811242 0.47839365058317596
0.19617021276595745 0.45563379083289923 0.48492656679583634
0.19638297872340427 0.4539033617946535 0.48335151186173303
0.19659574468085106 0.4538348803126526 0.47712890545919
0.19680851063829788 0.4542438252485689 0.4726940968215107
0.19702127659574467 0.45596187330363175 0.46788737957469495
0.1972340425531915 0.4528578407425501 0.4631792487733713
0.19744680851063828 0.45245767476390353 0.45574220869983006
0.1976595744680851 0.4513743549452018 0.4548836256515329
0.19787234042553192 0.4527261002405032 0.4519064293212049
0.19808510638297872 0.4559276242593631 0.4482521011465696
0.19829787234042554 0.4520043469002397 0.4463854255177969
0.19851063829787233 0.4509037616023448 0.4523189624630666
0.19872340425531915 0.45093982869512045 0.4531463774847552
0.19893617021276597 0.45160446540401034 0.46108866095602663
0.19914893617021276 0.4519013649234978 0.46508625818212024
0.19936170212765958 0.45562425799768697 0.47476446492273416
0.19957446808510637 0.45392518427014233 0.483714230366294
0.1997872340425532 0.455093343470831 0.4839823951917951
0.2 0.4537506227867334 0.48376097348966046
0.2002127659574468 0.4543364478458756 0.47693883543995286
0.20042553191489362 0.45167614107132065 0.4660247444711694
0.20063829787234042 0.4505559543783546 0.45913426748902386
0.20085106382978724 0.4523453235593369 0.45485991467907894
0.20106382978723403 0.4528578407425501 0.45222394221190465
0.20127659574468085 0.46072938336015534 0.4466331060940439
0.20148936170212767 0.45933700703448116 0.4413901840738478
0.20170212765957446 0.4594720757096951 0.437900333691628
0.20191489361702128 0.4572925716392193 0.4380267229855916
0.20212765957446807 0.4603478457195369 0.4364113238427231
0.2023404255319149 0.46163295884762623 0.44225630967819857
0.2025531914893617 0.4609177598606489 0.45126653609727213
0.2027659574468085 0.46217135347224053 0.4629585721600475
0.20297872340425532 0.4613514041091692 0.4724762934217919
0.20319148936170212 0.46218480158011743 0.47985426933267983
0.20340425531914894 0.4599978318300358 0.4857764720292705
0.20361702127659576 0.461135965389087 0.4912820283415033
0.20382978723404255 0.46127042424646075 0.495251314883974
0.20404255319148937 0.4606741573033708 0.4950555508923851
0.20425531914893616 0.4579545116138274 0.4948705422569615
0.20446808510638298 0.457743038593063 0.49483359557057016
0.20468085106382977 0.45789212366956306 0.4925517369983582
0.2048936170212766 0.45938437041278507 0.48399299280656954
0.2051063829787234 0.4610359975014754 0.47959974933342464
0.2053191489361702 0.45966468773369734 0.47696896013827084
0.20553191489361702 0.45993668922390285 0.4767354173374048
0.20574468085106382 0.45719961842245466 0.48000093084815654
0.20595744680851064 0.4593880321487642 0.4808580112827258
0.20617021276595746 0.456876283322376 0.47945537390922366
0.20638297872340425 0.4601205845882485 0.4671093587562262
0.20659574468085107 0.4606741573033708 0.4531354183397932
0.20680851063829786 0.4606741573033708 0.4392997092948112
0.20702127659574468 0.460383976408882 0.4263233981073469
0.2072340425531915 0.459066693894005 0.4149737110907803
0.2074468085106383 0.45528012951074215 0.40494228149339423
0.2076595744680851 0.45380863358845897 0.3985130492138287
0.2078723404255319 0.4582252503991595 0.3905747221379874
0.20808510638297872 0.45641509904713795 0.38709354811621655
0.20829787234042554 0.4562465921392188 0.3814104037302995
0.20851063829787234 0.45676599902296044 0.3812235789255287
0.20872340425531916 0.45676599902296044 0.38229313426375255
0.20893617021276595 0.459138538369413 0.3874422635093536
0.20914893617021277 0.4579065780051765 0.3928495784360085
0.20936170212765956 0.45967049746564753 0.4033216456111461
0.20957446808510638 0.458607466221803 0.4151276012347972
0.2097872340425532 0.45841594908127387 0.4277437677403806
0.21 0.46012775254890703 0.4396423665164135
0.2102127659574468 0.4576010436278765 0.45314183067292285
0.2104255319148936 0.45581352862834335 0.4669398769697247
0.21063829787234042 0.4575441672614134 0.4813908596071748
0.21085106382978724 0.4532312580676422 0.488865092431172
0.21106382978723404 0.45060838544901705 0.49800612601047795
0.21127659574468086 0.45064836263095537 0.5007327796775769
0.21148936170212765 0.4500796113850763 0.5007327796775769
0.21170212765957447 0.4508179233264324 0.4936031693240554
0.2119148936170213 0.44992672203224227 0.48490342067625025
0.21212765957446808 0.44992672203224227 0.4739963650433918
0.2123404255319149 0.44942982755507765 0.4633233300066429
0.2125531914893617 0.4494144258501014 0.4549637703253802
0.2127659574468085 0.45093631372887216 0.4481028513981462
0.2129787234042553 0.44992672203224227 0.43996644077437985
0.21319148936170212 0.45062361463482387 0.43861899282607186
0.21340425531914894 0.4533246643311805 0.43272354615088526
0.21361702127659574 0.4529187371278135 0.42769839746093624
0.21382978723404256 0.4530115647254486 0.41840524915079513
0.21404255319148935 0.4557889594528579 0.4130034232030131
0.21425531914893617 0.45557183878920027 0.40823969809696076
0.214468085106383 0.45415973274020816 0.4046555670925317
0.21468085106382978 0.4528578407425501 0.40336597027378
0.2148936170212766 0.4523078790216923 0.40718274869095455
0.2151063829787234 0.45188080117244755 0.41685211814427453
0.2153191489361702 0.458849316806378 0.4283583300779763
0.21553191489361703 0.46155862435746303 0.44188400233338987
0.21574468085106382 0.4577535591650744 0.4578096688824684
0.21595744680851064 0.4607782767548224 0.47818094055114113
0.21617021276595744 0.46122500550163986 0.4960244595460262
0.21638297872340426 0.45936860440757904 0.5066205183190874
0.21659574468085105 0.4573874907194478 0.5160108210353888
0.21680851063829787 0.45467589964602306 0.5202735710796287
0.2170212765957447 0.45650811947039305 0.5229468102373691
0.21723404255319148 0.45305749720260347 0.5179343408394262
0.2174468085106383 0.4527748941813136 0.5163654127992183
0.2176595744680851 0.45276661385565997 0.5143201067721231
0.2178723404255319 0.4504360150381241 0.511352891697235
0.21808510638297873 0.45280230649071324 0.5096771163210514
0.21829787234042553 0.44911618068600884 0.5065950170981925
0.21851063829787234 0.44971246998176995 0.5065950170981925
0.21872340425531914 0.45429587388296916 0.5003533715971541
0.21893617021276596 0.45608348459246867 0.494777078105691
0.21914893617021278 0.4565736246308972 0.4923241723307802
0.21936170212765957 0.45676599902296044 0.49193942354665365
0.2195744680851064 0.4568222803286529 0.48702608504329453
0.21978723404255318 0.4583382152008262 0.4864590490883774
0.22 0.4557889594528579 0.48969603428689407
0.2202127659574468 0.45678337645813355 0.4896191172010103
0.2204255319148936 0.4574276427917382 0.48553095834641125
0.22063829787234043 0.4563256263008035 0.4839305187342555
0.22085106382978723 0.45546936546298983 0.4795757607256866
0.22106382978723405 0.459370687958534 0.47750107488592086
0.22127659574468084 0.45376072996984 0.47209875949496677
0.22148936170212766 0.4567285909179103 0.465615467311459
0.22170212765957448 0.4548965807422584 0.4599968704273448
0.22191489361702127 0.4557889594528579 0.45186770037961754
0.2221276595744681 0.4557889594528579 0.44391354106684705
0.22234042553191488 0.4560498287148368 0.4368314634033038
0.2225531914893617 0.45676599902296044 0.4310028508329288
0.22276595744680852 0.45577238625113936 0.4296903757122063
0.2229787234042553 0.4540168006089918 0.42270449024618334
0.22319148936170213 0.4545002419873616 0.4178700764624854
0.22340425531914893 0.45498368336573136 0.4130356626787881
0.22361702127659575 0.4554671247441012 0.40820124889509013
0.22382978723404254 0.45559207303863547 0.4057048186596721
0.22404255319148936 0.45500309339007344 0.40786441070439955
0.22425531914893618 0.4544141137415114 0.410024002749127
0.22446808510638297 0.45382513409294944 0.41218359479385414
0.2246808510638298 0.45323615444438736 0.4143431868385815
0.22489361702127658 0.4531856230559874 0.4160581193920889
0.2251063829787234 0.4541020365284767 0.4169745328645782
0.22531914893617022 0.45501845000096597 0.41789094633706747
0.225531914893617 0.4559328624393135 0.41477607515465825
0.22574468085106383 0.45676599902296044 0.39225334109091475
0.22595744680851063 0.45676599902296044 0.39189483388896745
0.22617021276595745 0.45676599902296044 0.39153632668702015
0.22638297872340427 0.45676599902296044 0.3911778194850728
0.22659574468085106 0.45676599902296044 0.3908193122831255
0.22680851063829788 0.45676599902296044 0.3904608050811782
0.22702127659574467 0.45618801450042407 0.39495118443627547
0.2272340425531915 0.4552350348369645 0.4086681925187784
0.22744680851063828 0.4564382968860127 0.4259235130005466
0.2276595744680851 0.4567213048559184 0.443534386711945
0.22787234042553192 0.45605232490823605 0.45694000530091133
0.22808510638297871 0.4565762562424027 0.46506094098049566
0.22829787234042553 0.4571001875765695 0.4731818766600811
0.22851063829787233 0.45762411891073623 0.48130281233966543
0.22872340425531915 0.45996833796107445 0.4835911272893327
0.22893617021276597 0.46200857605223566 0.4798474502855854
0.22914893617021276 0.45385565403063455 0.4235922883365373
0.22936170212765958 0.45302750171197276 0.4173860205264451
0.22957446808510637 0.4532208226949695 0.41815930445843214
0.2297872340425532 0.4534141436779663 0.4189325883904193
0.23 0.4536074646609631 0.4197058723224064
0.2302127659574468 0.4538007856439598 0.42047915625439347
0.23042553191489362 0.45298663095081027 0.4180707868436374
0.23063829787234041 0.4547784399309948 0.42056531500152416
0.23085106382978723 0.45242136372993197 0.43624816805080613
0.23106382978723405 0.4555884261402654 0.4378967700865791
0.23127659574468085 0.45260123616987 0.44632940252992537
0.23148936170212767 0.45489220581578804 0.4532905685099614
0.23170212765957446 0.45653852011045304 0.4571538329279023
0.23191489361702128 0.45696085343338305 0.46487390531991757
0.23212765957446807 0.45635749053792235 0.4774080729376207
0.2323404255319149 0.4524240317809674 0.4911851048965915
0.2325531914893617 0.45485903161946484 0.5101658939099313
0.2327659574468085 0.4589604342127663 0.5250869683889664
0.23297872340425532 0.4550910457260382 0.5372462064862527
0.23319148936170211 0.4568350634039437 0.543791585143074
0.23340425531914893 0.4587209813449707 0.5441127946810488
0.23361702127659575 0.46133102635382617 0.5398226264872612
0.23382978723404255 0.45826811306086324 0.5318385182805493
0.23404255319148937 0.4571616846603237 0.521880662675693
0.23425531914893616 0.45676599902296044 0.5105317058085743
0.23446808510638298 0.45425916934682825 0.5017227874239867
0.2346808510638298 0.45573554858749243 0.4921797724407983
0.2348936170212766 0.45471209026245374 0.48685456645553793
0.2351063829787234 0.4545265993514601 0.48417785450419215
0.2353191489361702 0.4556981481571382 0.48083603798691776
0.23553191489361702 0.45478416608372974 0.4806895915909611
0.23574468085106381 0.4557889594528579 0.48059443828414644
0.23595744680851063 0.4543407321424322 0.47949083505020984
0.23617021276595745 0.45298014710866374 0.4775284427273421
0.23638297872340425 0.45188080117244755 0.4733863222979172
0.23659574468085107 0.45291573008738484 0.4751424953957078
0.23680851063829786 0.45767894541916376 0.46650434813703673
0.23702127659574468 0.45188080117244755 0.46248001308980885
0.2372340425531915 0.4508763134068719 0.4586651817722196
0.2374468085106383 0.45245190970493676 0.45234692059574505
0.2376595744680851 0.4523078431046484 0.44534561040822934
0.2378723404255319 0.4501351614875015 0.43620910602936985
0.23808510638297872 0.44799285823319973 0.4314034008826181
0.23829787234042554 0.44708785019272546 0.4273810144232499
0.23851063829787233 0.45188080117244755 0.42339623887624606
0.23872340425531915 0.45188080117244755 0.4211771322716049
0.23893617021276595 0.452290379051164 0.4193227277337227
0.23914893617021277 0.4523172368933317 0.423754989896141
0.23936170212765956 0.45321797945451275 0.42750650020277553
0.23957446808510638 0.4538348803126526 0.4328035388382517
0.2397872340425532 0.45153946940839174 0.43965004768720956
0.24 0.4509037616023448 0.4541044084964096
0.2402127659574468 0.45139891466916393 0.4587598778537721
0.2404255319148936 0.45188080117244755 0.46244502535942855
0.24063829787234042 0.45188080117244755 0.4687053318658152
0.24085106382978724 0.452702049883418 0.47476333564029216
0.24106382978723404 0.4588064703985421 0.4784835313988989
0.24127659574468086 0.45544268611415106 0.48200809584497445
0.24148936170212765 0.45575835355563654 0.4851613583503781
0.24170212765957447 0.45616410362907067 0.48194227662795075
0.2419148936170213 0.4557889594528579 0.48265453184956386
0.24212765957446808 0.4540671701782095 0.4822851727784061
0.2423404255319149 0.45482660804401875 0.4811479237917344
0.2425531914893617 0.45538471912393996 0.4775871356836874
0.2427659574468085 0.45412581176497 0.47362926591918836
0.2429787234042553 0.4573568123882446 0.46855931821253133
0.24319148936170212 0.4598725980409399 0.4576260517212819
0.24340425531914894 0.46002529663010217 0.4492816099191736
0.24361702127659574 0.45717830635633 0.4398514765244894
0.24382978723404256 0.4576576622474922 0.4283939517211609
0.24404255319148935 0.45344681262750614 0.41800311479565766
0.24425531914893617 0.45856803666917106 0.4081420827588226
0.244468085106383 0.4529202096428966 0.404317706739153
0.24468085106382978 0.453560402180432 0.4075186694268304
0.2448936170212766 0.45195521779540443 0.4120238309500139
0.2451063829787234 0.4509037616023448 0.4137762579384465
0.2453191489361702 0.4535387412868923 0.41816789074602556
0.24553191489361703 0.4519141846976103 0.41889514046509885
0.24574468085106382 0.4528578407425501 0.4259670136067466
0.24595744680851064 0.4525913396158379 0.43136336388381935
0.24617021276595744 0.45188080117244755 0.4372094009159795
0.24638297872340426 0.4539770392161874 0.432197850866861
0.24659574468085105 0.4557889594528579 0.4303859306301905
0.24680851063829787 0.45657116298964684 0.4335147447773464
0.2470212765957447 0.45676599902296044 0.43429408891060084
0.24723404255319148 0.455852533494446 0.4407519216517905
0.2474468085106383 0.45676599902296044 0.4338249383046253
0.2476595744680851 0.45676599902296044 0.4276094489653902
0.2478723404255319 0.45704155443280753 0.43579704802912234
0.24808510638297873 0.4584796140161229 0.4428469808944815
0.24829787234042552 0.45794209548857495 0.44932955134570673
0.24851063829787234 0.45748913308562406 0.4569224085413687
0.24872340425531914 0.45942117585708603 0.4591452339809039
0.24893617021276596 0.4563594636343278 0.45886270420853303
0.24914893617021278 0.4557889594528579 0.4567803918548573
0.24936170212765957 0.45371043067032085 0.45541561052586255
0.2495744680851064 0.45234608130734544 0.45464899876576625
0.24978723404255318 0.4509037616023448 0.4585329518874073
0.25 0.4509037616023448 0.45676599902296044
0.2502127659574468 0.4509037616023448 0.45741486990358593
0.25042553191489364 0.4524687480741714 0.4640029844803691
0.25063829787234043 0.4519461427969538 0.46738275104507654
0.2508510638297872 0.45377606792604663 0.46952632582090004
0.251063829787234 0.45247568554611955 0.4708267082008271
0.25127659574468086 0.45155351127312915 0.47337325665077834
0.25148936170212766 0.4528578407425501 0.47575865120299166
0.25170212765957445 0.45235951635113625 0.47830008799066764
0.2519148936170213 0.45133190111408017 0.4774704484135861
0.2521276595744681 0.4514863738156672 0.475912363068232
0.2523404255319149 0.45304430922803846 0.4751432823694212
0.2525531914893617 0.4538348803126526 0.4712083450773538
0.2527659574468085 0.4567841278702489 0.47020482532369307
0.2529787234042553 0.45435118002124814 0.46705269443258174
0.2531914893617021 0.45096014553979463 0.45791219040541253
0.25340425531914895 0.45188080117244755 0.4596096779006645
0.25361702127659574 0.45207438869053473 0.45852649064507833
0.25382978723404254 0.4519479905486303 0.457743038593063
0.2540425531914894 0.44909582154458494 0.45940483956837774
0.2542553191489362 0.4483934988381874 0.45744263741197105
0.25446808510638297 0.4500976956793006 0.45035011688289983
0.25468085106382976 0.4514007275429134 0.4455722747443667
0.2548936170212766 0.4509037616023448 0.44481629613271695
0.2551063829787234 0.45343947765467263 0.4460185637518319
0.2553191489361702 0.4527754364436144 0.4494127028170667
0.25553191489361704 0.45188080117244755 0.44636665628664174
0.25574468085106383 0.45100428557164823 0.4413344138399256
0.2559574468085106 0.44992672203224227 0.43546664161254534
0.2561702127659574 0.4508856374352402 0.42846809982419476
0.25638297872340426 0.45188080117244755 0.4264777723497801
0.25659574468085106 0.45188080117244755 0.4264777723497801
0.25680851063829785 0.45188080117244755 0.4264777723497801
0.2570212765957447 0.45188080117244755 0.43094958457440274
0.2572340425531915 0.451815088555319 0.4366995066838801
0.2574468085106383 0.45123256759677516 0.43203933901553043
0.25765957446808513 0.45032136854255145 0.42926329279513964
0.2578723404255319 0.4489842138160837 0.4289290041135227
0.2580851063829787 0.447647059089616 0.4285947154319058
0.2582978723404255 0.4476754924031608 0.4325111859773434
0.25851063829787235 0.44900131751458455 0.4404661366458861
0.25872340425531914 0.45032714262600804 0.44842108731442676
0.25893617021276594 0.4516529677374315 0.45637603798296744
0.2591489361702128 0.4529787928488553 0.4643309886515102
0.2593617021276596 0.45430461796027877 0.4722859393200508
0.25957446808510637 0.4556304430717022 0.4802408899885915
0.2597872340425532 0.4569789403084039 0.4876930495524713
0.26 0.4584627483162497 0.49214447357600877
0.2602127659574468 0.45801068011501506 0.49859164750196006
0.2604255319148936 0.457743038593063 0.5007327796775769
0.26063829787234044 0.4584894893809904 0.5029721320413593
0.26085106382978723 0.4595758706768285 0.5010965208468962
0.261063829787234 0.4626287388639184 0.4968211044547686
0.2612765957446809 0.4633545323204906 0.48835551040072656
0.26148936170212767 0.4614155372155725 0.47398459478450283
0.26170212765957446 0.4603105254669489 0.45887806214019355
0.26191489361702125 0.4582294068953408 0.4435652074127077
0.2621276595744681 0.4555353387772128 0.430710196944942
0.2623404255319149 0.45335078588186584 0.42087970891588045
0.2625531914893617 0.45371385166936246 0.4152374120817097
0.26276595744680853 0.45287646921965014 0.41280542786071067
0.2629787234042553 0.4555247538305161 0.4141725663719592
0.2631914893617021 0.4539925506006041 0.4198607824077839
0.26340425531914896 0.454658845764895 0.4331866856936034
0.26361702127659575 0.4585454065876477 0.45864908828016104
0.26382978723404255 0.45964148650178765 0.47741108322368153
0.26404255319148934 0.4578001097117448 0.48809106860593043
0.2642553191489362 0.4559587329217014 0.49877105398818217
0.264468085106383 0.4588607732320122 0.4971958952915125
0.26468085106382977 0.46224457040717576 0.49437606431220943
0.2648936170212766 0.46562836758234016 0.4915562333329057
0.2651063829787234 0.46698713598820385 0.48872222847232405
0.2653191489361702 0.46579887247837304 0.4858703960487302
0.265531914893617 0.4646106089685422 0.4830185636251364
0.26574468085106384 0.46342234545871114 0.48016673120154185
0.26595744680851063 0.46233755294632584 0.4744819841009664
0.2661702127659574 0.46118509103054 0.4636949317821502
0.2663829787234043 0.46003498436329804 0.4526750391426163
0.26659574468085107 0.4597547528945093 0.4371113163839245
0.26680851063829786 0.4598951903967712 0.4268605939293737
0.2670212765957447 0.46139011885269876 0.4187960008149511
0.2672340425531915 0.4591704096095546 0.41174580212091677
0.2674468085106383 0.45776644533924676 0.40989150640421995
0.2676595744680851 0.4576676849031493 0.4169334377184954
0.26787234042553193 0.45656176350301936 0.42086390847870864
0.2680851063829787 0.45878352785396426 0.4261661924243679
0.2682978723404255 0.4622701815532042 0.4283796655321135
0.26851063829787236 0.45674855980496915 0.4305883142314075
0.26872340425531915 0.4555263463302692 0.43279182309532094
0.26893617021276595 0.4549496724097002 0.4425492068152318
0.26914893617021274 0.46068026869159134 0.44993283342046286
0.2693617021276596 0.45601595914688464 0.4612350307677576
0.2695744680851064 0.46118904776242425 0.47606918943258825
0.26978723404255317 0.45676599902296044 0.4829284910674298
0.27 0.45573351364552434 0.4842339986004998
0.2702127659574468 0.4538348803126526 0.4908556018985616
0.2704255319148936 0.45264027388188005 0.49508810911763146
0.27063829787234045 0.45260546599666335 0.4965722466512798
0.27085106382978724 0.4579778216334166 0.5053579228819444
0.27106382978723403 0.45004684417148666 0.5094860950954186
0.2712765957446808 0.45226306692841933 0.5003362638014898
0.2714893617021277 0.44729004141684153 0.49638296425480594
0.27170212765957447 0.44921413514802394 0.4907200704562479
0.27191489361702126 0.44992672203224227 0.47942451240391293
0.2721276595744681 0.45357086635706223 0.4670002781124642
0.2723404255319149 0.45089851682611753 0.45317769307010936
0.2725531914893617 0.4510953251385765 0.4460233692240682
0.2727659574468085 0.4500665041149454 0.4368771874229704
0.27297872340425533 0.4508918117671557 0.4323878091111522
0.2731914893617021 0.4488333883017906 0.4308977935588964
0.2734042553191489 0.44747935232214986 0.42794810248977
0.27361702127659576 0.4493896899136407 0.4290343214865537
0.27382978723404255 0.45179125681470045 0.42943873917933695
0.27404255319148935 0.4527310606556035 0.43668822761929693
0.2742553191489362 0.4482830848147406 0.4401563263312165
0.274468085106383 0.4460185637518319 0.44531949441390023
0.2746808510638298 0.4499202277676828 0.45167760014095565
0.27489361702127657 0.4551348580634917 0.45370406003477937
0.2751063829787234 0.4509937588070319 0.4576710408293133
0.2753191489361702 0.450794782132559 0.45958813826348244
0.275531914893617 0.45051383553425234 0.4583286691618255
0.27574468085106385 0.4528578407425501 0.45676599902296044
0.27595744680851064 0.4531547294189015 0.45676599902296044
0.27617021276595743 0.45298252069554285 0.45548745959729564
0.2763829787234042 0.45077043103981806 0.4549452504452821
0.2765957446808511 0.4485656419179153 0.4605527398530023
0.27680851063829787 0.4479726428920372 0.45859844451904974
0.27702127659574466 0.4451764838620207 0.4558789325730521
0.2772340425531915 0.4488670669628988 0.4557889594528579
0.2774468085106383 0.44741035159157083 0.45805409979529027
0.2776595744680851 0.45020399108006315 0.46207369834793416
0.27787234042553194 0.4493856665363736 0.46936244201265903
0.27808510638297873 0.45188080117244755 0.4757649924987752
0.2782978723404255 0.4506768905684334 0.47668187469310774
0.2785106382978723 0.44992672203224227 0.47923322847108907
0.27872340425531916 0.4507850695924965 0.48278999138618534
0.27893617021276595 0.4528546763925778 0.4753297508549097
0.27914893617021275 0.4506504059821628 0.47507639523472767
0.2793617021276596 0.44894968246213973 0.47461398019054296
0.2795744680851064 0.4482587360106417 0.47722444988797036
0.2797872340425532 0.44991360068455627 0.47157803996011016
0.27999999999999997 0.4543804672279207 0.4605349386560371
0.2802127659574468 0.4514529907097639 0.45108645861067004
0.2804255319148936 0.45072576591612834 0.4433563752749369
0.2806382978723404 0.4518285213557232 0.42916376892412583
0.28085106382978725 0.45278105050928175 0.42323949270639893
0.28106382978723404 0.45167444638885157 0.4184003666574864
0.28127659574468084 0.451567217747062 0.41244934564901226
0.2814893617021277 0.4546876540403588 0.40803828636022743
0.2817021276595745 0.4561823307814948 0.4065436096190915
0.28191489361702127 0.45999148521512756 0.41043908574961974
0.28212765957446806 0.4600045888682728 0.4258183468424467
0.2823404255319149 0.4578141524283752 0.4340807474046642
0.2825531914893617 0.459974067338268 0.44819571827693355
0.2827659574468085 0.4624070801594138 0.46168752429072724
0.28297872340425534 0.4609513263377068 0.471639891275141
0.28319148936170213 0.4616179124641019 0.481125419456782
0.2834042553191489 0.4642135428820243 0.4911828152393929
0.2836170212765957 0.46458231558378116 0.5058169214486399
0.28382978723404256 0.4629052101945219 0.5086875831138706
0.28404255319148936 0.46262823644357587 0.5114332910560841
0.28425531914893615 0.4614260333446141 0.5138484248368651
0.284468085106383 0.45969711773326827 0.5071113488296054
0.2846808510638298 0.45933240819107923 0.49574393514339543
0.2848936170212766 0.4582834382280956 0.48289534574536686
0.2851063829787234 0.45694989452740803 0.4729503186579447
0.2853191489361702 0.45649147307589494 0.46771122937670145
0.285531914893617 0.457743038593063 0.4591159864116178
0.2857446808510638 0.45657285392863034 0.4464218250881701
0.28595744680851065 0.45959420844333626 0.4376709483158634
0.28617021276595744 0.4595590172360488 0.42620501671853067
0.28638297872340424 0.45463834717184576 0.4135898058884662
0.2865957446808511 0.458551792819784 0.40616188378968365
0.2868085106382979 0.4592317362739381 0.39628262196846586
0.28702127659574467 0.4551900217587034 0.3979227889985989
0.28723404255319146 0.45676599902296044 0.40298491225680855
0.2874468085106383 0.45676599902296044 0.4091646419455603
0.2876595744680851 0.4561968494493628 0.415806225813425
0.2878723404255319 0.4557889594528579 0.4235216116371876
0.28808510638297874 0.45498010323173077 0.4255007327796776
0.28829787234042553 0.45387665575097735 0.4245654686478998
0.2885106382978723 0.4528578407425501 0.42214042807217816
0.28872340425531917 0.4524417396821237 0.4174763656886437
0.28893617021276596 0.4509037616023448 0.41573269674232155
0.28914893617021276 0.45049608694913673 0.41561079387788286
0.28936170212765955 0.44945853777049094 0.42027976518178933
0.2895744680851064 0.44854554299918287 0.42459031138415415
0.2897872340425532 0.44706603758258473 0.4277570136897002
0.29 0.4446233818220913 0.43010442092853773
0.2902127659574468 0.44406448461162684 0.43606448569560197
0.2904255319148936 0.44471139846630275 0.4411200283251416
0.2906382978723404 0.44199080310322186 0.4512625687069441
0.2908510638297872 0.4463296020162601 0.46336131319004487
0.29106382978723405 0.44889215193208015 0.472513693204721
0.29127659574468084 0.4450415241817294 0.4813503540873829
0.29148936170212764 0.44528422056877653 0.4880312652662433
0.2917021276595745 0.4483206411665326 0.4877435055894057
0.2919148936170213 0.4529496036829539 0.4885296867456386
0.29212765957446807 0.4509037616023448 0.49211859375000944
0.2923404255319149 0.45125128462751407 0.4929164631167562
0.2925531914893617 0.4534149745390521 0.49375216381150927
0.2927659574468085 0.4555888833543772 0.496624545298686
0.2929787234042553 0.45626849592248203 0.49630915166583384
0.29319148936170214 0.45638156504611777 0.49427793666370146
0.29340425531914893 0.45676599902296044 0.4883096382183694
0.2936170212765957 0.454355403062742 0.47884539824538286
0.29382978723404257 0.4513852063309126 0.47483415601337475
0.29404255319148936 0.4499964716616168 0.47072355152189477
0.29425531914893616 0.4498464205134321 0.4674331327752788
0.29446808510638295 0.4476705436226336 0.46495515661507647
0.2946808510638298 0.44628016267455906 0.4613895979507462
0.2948936170212766 0.4473695857049911 0.4603001749203142
0.2951063829787234 0.44892712208438024 0.4582653989447536
0.29531914893617023 0.4522382101930365 0.4556102549425633
0.295531914893617 0.4532188797588767 0.45789192265163503
0.2957446808510638 0.45486785054559764 0.4583571111979032
0.29595744680851066 0.45194239884452103 0.4608202870797324
0.29617021276595745 0.45266147839059756 0.46428777205585237
0.29638297872340424 0.45477606266440534 0.46458231558378116
0.29659574468085104 0.4565834702625762 0.4620806501624231
0.2968085106382979 0.4544074582295402 0.45656376819635297
0.2970212765957447 0.455067512287645 0.45452628999851796
0.29723404255319147 0.4562646410689579 0.4510226820063699
0.2974468085106383 0.4507946984041103 0.44992672203224227
0.2976595744680851 0.44992672203224227 0.4459802316668744
0.2978723404255319 0.448467213545861 0.44333473036843607
0.29808510638297875 0.44879297330445744 0.4439077754539445
0.29829787234042554 0.4517541985552616 0.44873867810016316
0.29851063829787233 0.45188080117244755 0.45828128969959486
0.2987234042553191 0.4522327228926728 0.4674949246151228
0.298936170212766 0.45355465122528826 0.479949768560749
0.29914893617021276 0.4536435389524897 0.4941153432009535
0.29936170212765956 0.4543026966478981 0.5047651586568221
0.2995744680851064 0.45259702272871866 0.5174749173397674
0.2997872340425532 0.4562644237155728 0.5158986522180609
0.3 0.4552087513355893 0.5134342940889105
0.3002127659574468 0.45481191988275516 0.5076883156175086
0.30042553191489363 0.4558806457296622 0.49529746416623843
0.3006382978723404 0.45676599902296044 0.48957608309546496
0.3008510638297872 0.45772740740274476 0.4880312652662433
0.30106382978723406 0.45969711773326827 0.4893288053592141
0.30127659574468085 0.46024130851425743 0.49259495631951855
0.30148936170212765 0.4613305503354598 0.49717546784730376
0.3017021276595745 0.4601216955376174 0.49877870053737183
0.3019148936170213 0.4614477406743743 0.5005293234784779
0.3021276595744681 0.4635143649547108 0.4951432754338648
0.30234042553191487 0.46153032815284895 0.487608224744058
0.3025531914893617 0.4595236758456705 0.48032477883753627
0.3027659574468085 0.4592985966043554 0.47370345743965786
0.3029787234042553 0.45946196962642943 0.4610484333504018
0.30319148936170215 0.458262294346924 0.44513047637225345
0.30340425531914894 0.4593537106868451 0.42397210619280595
0.30361702127659573 0.458951744763094 0.40231362361551765
0.3038297872340425 0.46655620932319036 0.38856613117677485
0.3040425531914894 0.4625849543195541 0.3756284325804237
0.30425531914893617 0.46098468584003427 0.37278604995424997
0.30446808510638296 0.46234124672667914 0.3672814187098314
0.3046808510638298 0.460817875544781 0.36631797966776586
0.3048936170212766 0.46023897317186296 0.36633650313492755
0.3051063829787234 0.4600265668276627 0.36525372852771143
0.30531914893617024 0.4604298499016155 0.3612606185915806
0.30553191489361703 0.45872746543677195 0.3587412870050716
0.3057446808510638 0.45836700316773227 0.35746103786792954
0.3059574468085106 0.4593905800462822 0.35710796287249624
0.30617021276595746 0.4582301959106014 0.35344065831582927
0.30638297872340425 0.4565189554265467 0.35283480660524147
0.30659574468085105 0.4570802941597133 0.35492158420122655
0.3068085106382979 0.45844095162343473 0.3606435657090863
0.3070212765957447 0.457543918882014 0.3720059804337497
0.3072340425531915 0.45664688614059323 0.3833683951584131
0.30744680851063827 0.45579371779135264 0.39530609269770806
0.3076595744680851 0.4559028667599208 0.4198646106255456
0.3078723404255319 0.45601201572848893 0.4444231285533767
0.3080851063829787 0.45612116469705705 0.4689816464812078
0.30829787234042555 0.4562303136656252 0.49354016440904536
0.30851063829787234 0.45633946263419334 0.5180986823368765
0.30872340425531913 0.4564486116027615 0.5426572002647075
0.308936170212766 0.45655776057132963 0.5672157181925451
0.3091489361702128 0.4566669095398978 0.5917742361203762
0.30936170212765957 0.4568983177644873 0.6145324854048213
0.30957446808510636 0.45833402281640506 0.6195574530865339
0.3097872340425532 0.45943667570055824 0.6173256591132326
0.31 0.4575551785336266 0.6088836516175438
0.3102127659574468 0.4531158481464893 0.5916524497427719
0.31042553191489364 0.4540377041407704 0.5378224612312844
0.31063829787234043 0.45400860836349655 0.5117049148742032
0.3108510638297872 0.45290764803867256 0.49996133807608006
0.311063829787234 0.45199257794495634 0.4878160192629185
0.31127659574468086 0.45365302928666223 0.4701045382847214
0.31148936170212765 0.45440409193710357 0.45427650105502426
0.31170212765957445 0.4530539494758646 0.44280029013449246
0.3119148936170213 0.4508081695461324 0.4363507997763445
0.3121276595744681 0.45268376783309044 0.43098563394958306
0.3123404255319149 0.4538625780905381 0.4273099020991834
0.3125531914893617 0.45200780514620437 0.42511789771042535
0.3127659574468085 0.4501530322018712 0.42292589332166786
0.3129787234042553 0.44829825925753797 0.42073388893291036
0.3131914893617021 0.44644348631320474 0.41854188454415286
0.31340425531914895 0.44458871336887107 0.41634988015539476
0.31361702127659574 0.445855715823688 0.41976060730578924
0.31382978723404253 0.44895476953943325 0.4250147565332731
0.3140425531914894 0.4538348803126526 0.43122042751987144
0.3142553191489362 0.45225463336564165 0.4458741067423519
0.31446808510638297 0.45095623680956737 0.459549686795163
0.31468085106382976 0.45082349158340707 0.46978859351004537
0.3148936170212766 0.45495014585596666 0.4778409373357928
0.3151063829787234 0.4533046493607905 0.47713041667374395
0.3153191489361702 0.4501117859689488 0.4737457995881175
0.31553191489361704 0.44992672203224227 0.4724643441214114
0.31574468085106383 0.4489784080534024 0.46576043429272246
0.3159574468085106 0.4486720612172867 0.4610959543837673
0.31617021276595747 0.4475797782992527 0.45445077555506863
0.31638297872340426 0.4514669484368457 0.4492312758793901
0.31659574468085105 0.44942067766321675 0.4484436380931142
0.31680851063829785 0.451730285901977 0.4477473065489832
0.3170212765957447 0.44992539539530424 0.446262491985123
0.3172340425531915 0.4532694714351089 0.4460185637518319
0.3174468085106383 0.45288839581258866 0.44891912739210116
0.3176595744680851 0.4552528974882352 0.4475835734625745
0.3178723404255319 0.45663894526089344 0.4509037616023448
0.3180851063829787 0.4534336205995639 0.45010124217616737
0.3182978723404255 0.4539205505593155 0.4494810373705224
0.31851063829787235 0.4534888764108303 0.4486036785603174
0.31872340425531914 0.45443300695276856 0.44482231047160015
0.31893617021276593 0.45297463460932347 0.4403899140647632
0.3191489361702128 0.45676599902296044 0.44023193109680175
0.3193617021276596 0.45717737062779934 0.44216179491341623
0.31957446808510637 0.4587200781631655 0.44665061261214056
0.3197872340425532 0.45751351272406277 0.4483748313717381
0.32 0.45897762859658064 0.4484182376048526
0.3202127659574468 0.4596607186844598 0.44598216470302365
0.3204255319148936 0.4587200781631655 0.44265918391711895
0.32063829787234044 0.4605563607750542 0.4439466880833102
0.32085106382978723 0.4587200781631655 0.44413296114357587
0.321063829787234 0.4587200781631655 0.44563946962987255
0.32127659574468087 0.45706885971653344 0.44863313027069
0.32148936170212766 0.45519196880035356 0.45264089900764415
0.32170212765957445 0.45676599902296044 0.45807904886925227
0.32191489361702125 0.4609770272882241 0.46320630795432133
0.3221276595744681 0.46179925391455906 0.4670692631708317
0.3223404255319149 0.4530207685340403 0.4646366248476112
0.3225531914893617 0.4539330283956614 0.46702713513903027
0.3227659574468085 0.45507783513879513 0.47049088917835946
0.3229787234042553 0.45676599902296044 0.4658894885259553
0.3231914893617021 0.4552120812168581 0.46713663672514055
0.32340425531914896 0.4570124336072743 0.4615279795813165
0.32361702127659575 0.4571853857512929 0.45969711773326827
0.32382978723404254 0.45669233262507003 0.46220433472302136
0.32404255319148934 0.4557042698762477 0.46496445515822205
0.3242553191489362 0.45481191988275516 0.46696157100603974
0.324468085106383 0.4585273370438854 0.4697426845907669
0.32468085106382977 0.45714215531049296 0.4704445530043966
0.3248936170212766 0.46065163346063503 0.47433018744207117
0.3251063829787234 0.46078298611126217 0.475980908926568
0.3253191489361702 0.4552601919384275 0.4826172999013
0.325531914893617 0.461171109140541 0.4866857278443225
0.32574468085106384 0.4626039892624279 0.4820720391210353
0.32595744680851063 0.45976718560239693 0.4807728845933191
0.3261702127659574 0.46327614488186647 0.4753349277675764
0.32638297872340427 0.46099846916612996 0.4715837485058789
0.32659574468085106 0.4606285320414095 0.46430856401201337
0.32680851063829786 0.45967299261473576 0.458454701859308
0.3270212765957447 0.45901040779992597 0.44724681880013606
0.3272340425531915 0.46041637831700044 0.44050965517782037
0.3274468085106383 0.45817829375925617 0.4295199894054681
0.3276595744680851 0.4557889594528579 0.4201310226939585
0.3278723404255319 0.4545949127348162 0.41312523649462946
0.3280851063829787 0.45310834837408115 0.4093920753509957
0.3282978723404255 0.45542939525900095 0.40803387524911655
0.32851063829787236 0.4548886480092453 0.4109474433967922
0.32872340425531915 0.46009826429237227 0.4186614557889594
0.32893617021276594 0.45622161558128765 0.4202946061139777
0.32914893617021274 0.45561295624040127 0.43013094771309734
0.3293617021276596 0.4562343698240875 0.43660735959439223
0.3295744680851064 0.45971809103145084 0.43920026005929647
0.32978723404255317 0.4554623126084014 0.443454197500721
0.33 0.4565475560272794 0.4449687098498357
0.3302127659574468 0.452968976296038 0.44406448461162684
0.3304255319148936 0.4546479488484221 0.444392426680293
0.33063829787234045 0.4552890779607769 0.4466002428110817
0.33085106382978724 0.4563951078673515 0.4514600983357583
0.33106382978723403 0.4528578407425501 0.4586546300916546
0.3312765957446808 0.4510536252125545 0.4636811831866967
0.33148936170212767 0.45283901359212275 0.4750243027234952
0.33170212765957446 0.4504775407602553 0.4782608695652173
0.33191489361702126 0.4518641088372148 0.4782608695652173
0.3321276595744681 0.4515090120505924 0.4810536604800622
0.3323404255319149 0.4509595456308216 0.4723707401303635
0.3325531914893617 0.4556249480845515 0.46946751343429405
0.3327659574468085 0.45332557411137414 0.4669209824279015
0.33297872340425533 0.4515844201362596 0.463945605280636
0.3331914893617021 0.4524373611229521 0.4613048767327678
0.3334042553191489 0.45195885673650266 0.45528025326708566
0.33361702127659576 0.44975364054213507 0.4532579420122953
0.33382978723404255 0.44737692838822 0.4434924970121985
0.33404255319148934 0.448305487478514 0.4359798060323137
0.3342553191489362 0.45017315898378524 0.4200534945022191
0.334468085106383 0.4491550311328712 0.4050015407263563
0.3346808510638298 0.45129382504326065 0.39120777244976457
0.33489361702127657 0.45094413064046074 0.38378275245543675
0.3351063829787234 0.4507611032276919 0.38251099169516367
0.3353191489361702 0.44801721748011697 0.3930949868099996
0.335531914893617 0.4551803607016992 0.3967981444277585
0.33574468085106385 0.4500721884128222 0.4033609805224349
0.33595744680851064 0.4511791550264219 0.41414986031706374
0.33617021276595743 0.45147564641550275 0.4241902330971487
0.3363829787234042 0.45572428646230634 0.42915584171642535
0.33659574468085107 0.45836446119850444 0.43669359633934807
0.33680851063829786 0.4585397118342441 0.4415693064846572
0.33702127659574466 0.45965021914244886 0.448621392326404
0.3372340425531915 0.4583237541615826 0.4542496771473095
0.3374468085106383 0.46351164592011396 0.4591483460286324
0.3376595744680851 0.4576381573973699 0.46204679752730304
0.33787234042553194 0.4557190553960058 0.46646649066713436
0.33808510638297873 0.45953971998856663 0.47388051805070236
0.3382978723404255 0.4599545571457682 0.4808818307831279
0.3385106382978723 0.4613014031911141 0.48858616967701146
0.33872340425531916 0.4625222931137689 0.4969541143288136
0.33893617021276595 0.4619078663806312 0.5042849915337718
0.33914893617021274 0.4603473581335709 0.5020315815085338
0.3393617021276596 0.4603906947395511 0.5046107791514544
0.3395744680851064 0.46183344410373006 0.5060153736980127
0.3397872340425532 0.46194551526244676 0.5052766169375252
0.34 0.46061782130408707 0.5047536099565547
0.3402127659574468 0.4598086413436225 0.5063719698774841
0.3404255319148936 0.45969711773326827 0.5020882564136039
0.3406382978723404 0.46068921999210233 0.49925968897805734
0.34085106382978725 0.46327215517695663 0.4983734609615009
0.34106382978723404 0.4645563617630828 0.4911150383619298
0.34127659574468083 0.4625137788222508 0.47791749670124206
0.3414893617021277 0.46217071437498664 0.4768883033594495
0.3417021276595745 0.4618276499277225 0.4758591100176571
0.34191489361702126 0.4614845854804584 0.47482991667586477
0.34212765957446806 0.4611415210331943 0.4738007233340724
0.3423404255319149 0.4607984565859301 0.4727715299922798
0.3425531914893617 0.46008289106768846 0.46885103473050754
0.3427659574468085 0.46082693320532087 0.4625820405718021
0.34297872340425534 0.4607484486048996 0.45653749879326017
0.34319148936170213 0.4591756616257567 0.4510327443662599
0.3434042553191489 0.45769458748532055 0.44616391707505926
0.34361702127659577 0.4571509150694614 0.44779493432263673
0.34382978723404256 0.45739517533036633 0.4493691333337436
0.34404255319148935 0.4595498340973303 0.4508055725117195
0.34425531914893615 0.45851444172736117 0.4597738316466476
0.344468085106383 0.4579091420983361 0.46514409639070087
0.3446808510638298 0.4583325158779744 0.4640856619416053
0.3448936170212766 0.45875588965761266 0.4630272274925097
0.3451063829787234 0.459179263437251 0.4619687930434138
0.3453191489361702 0.4596026372168893 0.4609103585943182
0.345531914893617 0.459130329460403 0.46294131039483144
0.3457446808510638 0.45802918325840053 0.4659641053933112
0.34595744680851065 0.45637815187287295 0.4674562147972916
0.34617021276595744 0.45443620614084185 0.4622776928452087
0.34638297872340423 0.4538348803126526 0.4606741573033708
0.3465957446808511 0.4538348803126526 0.4606741573033708
0.3468085106382979 0.4538348803126526 0.4606741573033708
0.34702127659574467 0.4538348803126526 0.4606741573033708
0.3472340425531915 0.4538348803126526 0.4606741573033708
0.3474468085106383 0.45316045245022196 0.46134858516580146
0.3476595744680851 0.4521953730272088 0.4563514551507429
0.3478723404255319 0.45188080117244755 0.45238196408493153
0.34808510638297874 0.45188080117244755 0.4484789656254978
0.34829787234042553 0.4499283435463954 0.44796291380711845
0.3485106382978723 0.4509037616023448 0.44223947190671214
0.34872340425531917 0.451160381785197 0.4418043441272631
0.34893617021276596 0.45072495308417004 0.43627583371054873
0.34914893617021275 0.44894968246213973 0.42818705080613473
0.34936170212765955 0.45023165365840184 0.42098271124694797
0.3495744680851064 0.4509037616023448 0.4165724211228623
0.3497872340425532 0.44732594017750016 0.42109706921591866
0.35 0.45352100227604325 0.41990753367615574
0.3502127659574468 0.448702076996308 0.42447684857505347
0.3504255319148936 0.45526725933190043 0.41933874742085
0.3506382978723404 0.45231028411368035 0.4156550752003298
0.35085106382978726 0.4534187490786411 0.41070036212605915
0.35106382978723405 0.4552142573697551 0.40572996848672876
0.35127659574468084 0.4574138707135724 0.40319340660706326
0.35148936170212763 0.457743038593063 0.3997266754114527
0.3517021276595745 0.4559261347508867 0.4009375682290841
0.3519148936170213 0.45794497730076444 0.40205178309721545
0.35212765957446807 0.46017119534442397 0.40334678443513367
0.3523404255319149 0.4541492057279952 0.4110913379953319
0.3525531914893617 0.4543695420897303 0.418826981629826
0.3527659574468085 0.4521332975993482 0.42313680830713785
0.3529787234042553 0.4495142265855313 0.42285188613106556
0.35319148936170214 0.4472965815287868 0.42587581593607543
0.35340425531914893 0.44699560332193444 0.4255231924599063
0.3536170212765957 0.44764314890109 0.4235580960422113
0.35382978723404257 0.44479878037679554 0.43281943302989595
0.35404255319148936 0.44443617037066996 0.44317217976559886
0.35425531914893615 0.44454168656130627 0.4543573536038195
0.354468085106383 0.44406448461162684 0.4601878317629646
0.3546808510638298 0.4433070061499657 0.4739904133684907
0.3548936170212766 0.4475011947741493 0.487876829353415
0.3551063829787234 0.44799827624679855 0.4891364716101527
0.3553191489361702 0.44851538200598606 0.49345920223070505
0.355531914893617 0.4462077057827177 0.4911515260074369
0.3557446808510638 0.4481842624534151 0.4909884962414692
0.35595744680851066 0.45079407694949875 0.4898424723044913
0.35617021276595745 0.4527419148905203 0.49481257933094647
0.35638297872340424 0.45290198790579966 0.49792862457349824
0.35659574468085103 0.44933673434221344 0.49700873746728524
0.3568085106382979 0.45150660127213654 0.48881605509957265
0.3570212765957447 0.44617122463010045 0.47774486883224093
0.35723404255319147 0.446562883406153 0.46740183455554934
0.3574468085106383 0.44565215736120123 0.4560738686373828
0.3576595744680851 0.45221915037850563 0.44845166066507053
0.3578723404255319 0.4490489909304418 0.44211040547142155
0.35808510638297875 0.4511746577717156 0.44238130164079237
0.35829787234042554 0.45334959475414327 0.4448021156290166
0.35851063829787233 0.45256444850181055 0.44924307470287916
0.3587234042553191 0.449959593665219 0.45487766314870864
0.35893617021276597 0.45344521882968297 0.45803672763662945
0.35914893617021276 0.45633746028629 0.4640594695755372
0.35936170212765955 0.45765342880803 0.4699965040792318
0.3595744680851064 0.45701512614340023 0.4711724654540595
0.3597872340425532 0.46115264189669963 0.47800155688510826
0.36 0.46262823644357587 0.47512595957829257
0.3602127659574468 0.4596943431905877 0.4763026286109914
0.3604255319148936 0.4578771751586307 0.4735098082802721
0.3606382978723404 0.4597869382415115 0.47248570614770147
0.3608510638297872 0.46143069406676784 0.46591671112501154
0.36106382978723406 0.45969711773326827 0.4636052760136786
0.36127659574468085 0.4577593121115299 0.46554308163541686
0.36148936170212764 0.45979833965092665 0.46805256503796944
0.3617021276595745 0.4580136193061865 0.4755852418566828
0.3619148936170213 0.4549809295406946 0.47902664706289577
0.3621276595744681 0.45837686077486844 0.47400949389650987
0.36234042553191487 0.45646267771492305 0.4720953108365645
0.3625531914893617 0.4557889594528579 0.4679266912370113
0.3627659574468085 0.45633018042351897 0.46252283407235634
0.3629787234042553 0.45737899487180184 0.46103820102463194
0.36319148936170215 0.4604641158297354 0.46203469592170693
0.36340425531914894 0.4562441985401174 0.46185580811023935
0.36361702127659573 0.45132057816168036 0.46950671574589153
0.3638297872340425 0.4615512188448416 0.46655067729950506
0.36404255319148937 0.45495843825808224 0.467659952669416
0.36425531914893616 0.4549588890264163 0.4704273048592219
0.36446808510638296 0.4532616955475834 0.4737143316347764
0.3646808510638298 0.4527738599401915 0.4740741435056523
0.3648936170212766 0.4531987804415734 0.4743298215213233
0.3651063829787234 0.4546258296580558 0.4662571276060753
0.36531914893617023 0.45296451120259645 0.4553452721829871
0.365531914893617 0.45476387695474063 0.4465151740417889
0.3657446808510638 0.45313953728311485 0.4349653427749109
0.3659574468085106 0.45261187413222786 0.4227335918095846
0.36617021276595746 0.45492719265138387 0.4136042751065839
0.36638297872340425 0.44720525717118276 0.39986117230897356
0.36659574468085104 0.45039374724415837 0.38754518770835844
0.3668085106382979 0.45047955696883113 0.38208678706165
0.3670212765957447 0.4480860978225152 0.3750917673910159
0.3672340425531915 0.44572912217135646 0.3744775939489864
0.36744680851063827 0.4428524937133681 0.3725056446659817
0.3676595744680851 0.4454079394645778 0.3734327589845137
0.3678723404255319 0.4444990562659885 0.3655516621997456
0.3680851063829787 0.4523473353228803 0.3730312450676224
0.36829787234042555 0.4541080358323641 0.3875117720544199
0.36851063829787234 0.4558799821901924 0.394955578254879
0.36872340425531913 0.45917788648576713 0.40972477949993735
0.368936170212766 0.4636433010684843 0.4268024654501402
0.36914893617021277 0.4669414081957716 0.4492106593222086
0.36936170212765956 0.46269800890143364 0.46220952664306486
0.36957446808510636 0.4570100063416509 0.47010294275822995
0.3697872340425532 0.4600299023365123 0.4717543771777434
0.37 0.46381424777627256 0.4753297508549097
0.3702127659574468 0.46256123486400036 0.47836137193458084
0.37042553191489364 0.461013996302735 0.4900872941487134
0.3706382978723404 0.46242741140539545 0.5068364705675727
0.3708510638297872 0.4594837728111782 0.5278837878375446
0.371063829787234 0.46042730452174574 0.541511217283863
0.37127659574468086 0.46358751722398617 0.5495403612084753
0.37148936170212765 0.46127216777785196 0.5446995603321934
0.37170212765957444 0.45853341821495935 0.5439529205393687
0.3719148936170213 0.4579732771770073 0.5380285390444509
0.3721276595744681 0.45925645090378386 0.5250441316559145
0.3723404255319149 0.459269755964866 0.5110407704466018
0.3725531914893617 0.4550779329124683 0.4987762128456396
0.3727659574468085 0.4553688295756967 0.48388618991567217
0.3729787234042553 0.4563676787801625 0.4694960888364386
0.3731914893617021 0.4532008148955178 0.46395352963667374
0.37340425531914895 0.4582612444573303 0.4546760754400172
0.37361702127659574 0.4510242223335981 0.4506282737169996
0.37382978723404253 0.45028239898340683 0.4505930802928759
0.3740425531914894 0.45467523259560416 0.45290340317160044
0.37425531914893617 0.45418337088929095 0.4530673570737048
0.37446808510638296 0.4536915091829778 0.4532313109758092
0.37468085106382976 0.45319964747666464 0.4533952648779136
0.3748936170212766 0.4527077857703513 0.45355921878001804
0.3751063829787234 0.45221592406403816 0.4537231726821224
0.3753191489361702 0.45078697670842055 0.4523035260630148
0.37553191489361704 0.44735444872716795 0.44749798688926135
0.37574468085106383 0.44528386274591564 0.44699560332193444
0.3759574468085106 0.453231546270597 0.45518562541080226
0.37617021276595747 0.4531095914503556 0.4550636705905609
0.37638297872340426 0.45106229179657203 0.4530163709367773
0.37659574468085105 0.45021399985873534 0.4527426346519268
0.37680851063829784 0.4508590854279617 0.45467789135960585
0.3770212765957447 0.453919579663019 0.4560182471070248
0.3772340425531915 0.4571598032955298 0.4573143365600291
0.3774468085106383 0.46040002692804055 0.4586104260130334
0.3776595744680851 0.459202126954487 0.46019210851204934
0.3778723404255319 0.4575940495575008 0.4618001859090355
0.3780851063829787 0.4559859721605147 0.46340826330602164
0.37829787234042556 0.45437789476352813 0.4650163407030082
0.37851063829787235 0.4525344805108357 0.4623083556493413
0.37872340425531914 0.45553008243768417 0.4592144447972761
0.37893617021276593 0.4550835885771611 0.4578788729402659
0.3791489361702128 0.4586605244998165 0.4558187362845324
0.3793617021276596 0.45776213882114414 0.4500413234007294
0.37957446808510636 0.45881953050772856 0.44845242073932456
0.3797872340425532 0.4586816408351148 0.4444029769110113
0.38 0.45584920901852594 0.4465940862392243
0.3802127659574468 0.4598654972219375 0.4516116132584868
0.3804255319148936 0.45768258922895316 0.4552097656216418
0.38063829787234044 0.45676599902296044 0.4544819713757606
0.38085106382978723 0.45676599902296044 0.4602558944703848
0.381063829787234 0.4513217997000139 0.46346592998112224
0.38127659574468087 0.4556000857100472 0.4677652659511699
0.38148936170212766 0.45266420419757464 0.4718088656644502
0.38170212765957445 0.4525286731979352 0.4733756717147044
0.3819148936170213 0.45700109728251176 0.4724710382947447
0.3821276595744681 0.4600909742598497 0.4725879586615416
0.3823404255319149 0.45683580960087616 0.47838296094639066
0.3825531914893617 0.45663822678921634 0.47851641403270556
0.3827659574468085 0.45871125148094655 0.470466619709944
0.3829787234042553 0.4580527104706903 0.4745109344790816
0.3831914893617021 0.467221857746456 0.468927838685641
0.38340425531914896 0.46391631396365296 0.4716954327728711
0.38361702127659575 0.45969711773326827 0.47161124785621866
0.38382978723404254 0.45969711773326827 0.4709569281891622
0.38404255319148933 0.45969711773326827 0.4727089496429692
0.3842553191489362 0.45969711773326827 0.47183292644591535
0.384468085106383 0.45789148407406877 0.46600469159690106
0.38468085106382977 0.4593629413577575 0.4618484915673841
0.3848936170212766 0.4541574618360951 0.447820647130091
0.3851063829787234 0.4557889594528579 0.4404651601048909
0.3853191489361702 0.45517923526555776 0.42996356631034766
0.38553191489361704 0.4538348803126526 0.41527507686633147
0.38574468085106384 0.4527221397501431 0.4037344602526066
0.38595744680851063 0.45256573272640216 0.39451753600371414
0.3861702127659574 0.45204280393149493 0.3929344214481974
0.38638297872340427 0.45376803419852896 0.38948396091412923
0.38659574468085106 0.4494318309146877 0.3932584269662922
0.38680851063829785 0.45338763086433737 0.39415292586292283
0.3870212765957447 0.4525861530254019 0.39963531673204283
0.3872340425531915 0.4538348803126526 0.4080928822003789
0.3874468085106383 0.45493903371034095 0.4177679086579411
0.3876595744680851 0.4557889594528579 0.4332090337372573
0.3878723404255319 0.45421597833263855 0.44560421483387497
0.3880851063829787 0.45091952785836587 0.45087853559271107
0.3882978723404255 0.4616270201138782 0.4646306691029714
0.38851063829787236 0.4572529907374375 0.4726436560724146
0.38872340425531915 0.45485492467960387 0.4733326669178557
0.38893617021276594 0.45466691697040834 0.4708290682072285
0.3891489361702128 0.4488948313190423 0.46626213900849894
0.3893617021276596 0.45055821482910485 0.45324808807800343
0.3895744680851064 0.45188080117244755 0.44115234009394616
0.38978723404255317 0.45188080117244755 0.43370592268967284
0.39 0.45108602953876614 0.4206762909079718
0.3902127659574468 0.45286726533575855 0.4194638215501003
0.3904255319148936 0.4502128202374728 0.4108451392281387
0.39063829787234045 0.4537399643945725 0.4105510980107979
0.39085106382978724 0.4553673784114513 0.4113436333029593
0.39106382978723403 0.45188080117244755 0.4238798413677113
0.3912765957446808 0.45188080117244755 0.42767795622578697
0.39148936170212767 0.45188080117244755 0.43147607108386365
0.39170212765957446 0.45188080117244755 0.4352741859419393
0.39191489361702125 0.4513898558485372 0.43870289467035756
0.3921276595744681 0.4516405593982139 0.44358935855421594
0.3923404255319149 0.45339082730364 0.4495716025753069
0.3925531914893617 0.45040668552562857 0.4462208166991845
0.39276595744680853 0.4481543325541091 0.4524258701586636
0.3929787234042553 0.4487906148420357 0.46039395537021166
0.3931914893617021 0.4476742470940945 0.46458231558378116
0.3934042553191489 0.45020528411189364 0.4654193833502837
0.39361702127659576 0.4493854568652381 0.46953080789263746
0.39382978723404255 0.45174123169733804 0.47345321622802483
0.39404255319148934 0.4509440922207581 0.4716611183780849
0.3942553191489362 0.44995816386884496 0.468875001324912
0.394468085106383 0.4525451629468629 0.46782611208977615
0.3946808510638298 0.45012118172757193 0.4681975990478335
0.39489361702127657 0.45035337144805304 0.46708678487827804
0.3951063829787234 0.45167527261629525 0.4804235929750924
0.3953191489361702 0.4512485293384458 0.48475537881983455
0.395531914893617 0.4527379349512223 0.4864757765675936
0.39574468085106385 0.45364096675263205 0.4886167418313048
0.39595744680851064 0.45190171845994226 0.49012790967181946
0.39617021276595743 0.45809853104493553 0.4902513990728061
0.3963829787234043 0.45988270562885997 0.48649746200936567
0.39659574468085107 0.46057840108509374 0.4844103756406642
0.39680851063829786 0.45818492539452754 0.4882718268339049
0.39702127659574465 0.46241859790353024 0.4824625218016916
0.3972340425531915 0.4557159759894446 0.48762033067229354
0.3974468085106383 0.4646975714509346 0.4831460674157304
0.3976595744680851 0.45914927191629507 0.4809434551899543
0.39787234042553193 0.4520351503206268 0.4712162987452928
0.3980851063829787 0.45304097782651154 0.4745972025190638
0.3982978723404255 0.4538348803126526 0.47003719758194723
0.3985106382978723 0.4546465887093013 0.4673481031206349
0.39872340425531916 0.4557889594528579 0.46902384365572125
0.39893617021276595 0.4591054016341436 0.47145737874306554
0.39914893617021274 0.455105377844742 0.4755807918352469
0.3993617021276596 0.46126083083678715 0.47259381516294496
0.3995744680851064 0.45676599902296044 0.47231673750319747
0.3997872340425532 0.4581928513183552 0.4728484448698941
0.4 0.4627660495634475 0.47651351010481957
0.4002127659574468 0.4582857732723063 0.4717474676769744
0.4004255319148936 0.4583037387396757 0.4705721709816405
0.4006382978723404 0.45941058596753814 0.47263352069042636
0.40085106382978725 0.45969711773326827 0.47271002847362614
0.40106382978723404 0.4539607295532092 0.4771789556279843
0.40127659574468083 0.45375141964558574 0.47574705419024416
0.4014893617021277 0.45313373889321046 0.47980110147943195
0.40170212765957447 0.4540291023947268 0.4770881256231077
0.40191489361702126 0.4518761706740372 0.4740378359243967
0.40212765957446805 0.452928333544708 0.46720114651443245
0.4023404255319149 0.4530462679070279 0.46166864874733016
0.4025531914893617 0.45241194102206206 0.4554282998614962
0.4027659574468085 0.44934905669224234 0.4504592210057124
0.40297872340425533 0.45089634359420766 0.4470067303341402
0.4031914893617021 0.45188080117244755 0.4406786943943795
0.4034042553191489 0.45188080117244755 0.43549510350295373
0.40361702127659577 0.4508675947152404 0.4266708402870977
0.40382978723404256 0.44971221608355655 0.41849469492693675
0.40404255319148935 0.44994207874316794 0.4147840109304005
0.40425531914893614 0.45011960918962113 0.4069495847309366
0.404468085106383 0.456459854995502 0.4044178460156074
0.4046808510638298 0.4546918739691455 0.40014905677469914
0.4048936170212766 0.4538348803126526 0.3945778373695464
0.4051063829787234 0.45219260442345777 0.39012977681340744
0.4053191489361702 0.45102817044857946 0.38849763796201375
0.405531914893617 0.45181916612024126 0.38471161104419394
0.4057446808510638 0.4471604318949127 0.38640416555984874
0.40595744680851065 0.45554865508048237 0.38564159981570606
0.40617021276595744 0.4553825997682854 0.39173661393821163
0.40638297872340423 0.4555438033488313 0.3947221938984442
0.4065957446808511 0.45428270686201316 0.3952125061064973
0.40680851063829787 0.45156318181435434 0.3959697389392633
0.40702127659574466 0.45321910225314527 0.40004844676126733
0.4072340425531915 0.4580875896276784 0.40461866795630097
0.4074468085106383 0.4565190679112271 0.41178636605136787
0.4076595744680851 0.45472860545691673 0.42385717780286725
0.4078723404255319 0.4568426399235476 0.44128039287316195
0.40808510638297874 0.4579916031055885 0.4581318528764278
0.4082978723404255 0.4591405662876291 0.4749833128796893
0.4085106382978723 0.4594437998281135 0.4862703215793057
0.40872340425531917 0.45895249803834387 0.4923297103197978
0.40893617021276596 0.45846119624857434 0.4983890990602882
0.40914893617021275 0.45796989445880487 0.5044484878007787
0.40936170212765954 0.45747859266903534 0.5105078765412692
0.4095744680851064 0.4569872908792657 0.5165672652817612
0.4097872340425532 0.45795365369266006 0.5169212221701269
0.41 0.45969711773326827 0.5125076624212457
0.4102127659574468 0.459189639818464 0.5088874148482672
0.4104255319148936 0.4572057347320562 0.5083044968331241
0.4106382978723404 0.4595272809328037 0.49559282662636717
0.41085106382978726 0.4565783771601658 0.4911694709674102
0.41106382978723405 0.4571830545473081 0.4788325836508465
0.41127659574468084 0.4590867724501196 0.4636028404283549
0.41148936170212763 0.4589223609781943 0.4557760024938845
0.4117021276595745 0.45778199486673027 0.45144261127032154
0.41191489361702127 0.4566416287552666 0.4471092200467597
0.41212765957446806 0.4555012626438029 0.44277582882319777
0.4123404255319149 0.4547025391958862 0.4405938490786923
0.4125531914893617 0.4544259813892031 0.4417000803054248
0.4127659574468085 0.45414942358252003 0.4428063115321572
0.4129787234042553 0.4538728657758369 0.4439125427588897
0.41319148936170214 0.45932771237687686 0.43216334847247445
0.41340425531914893 0.4536185477910961 0.436194084920417
0.4136170212765957 0.4501056227785089 0.43580783071950335
0.41382978723404257 0.4515157738437669 0.43942627167385534
0.41404255319148936 0.4528578407425501 0.443852200479773
0.41425531914893615 0.4545462042360953 0.44826971507655883
0.414468085106383 0.45509830006560986 0.4492360626449944
0.4146808510638298 0.45398791902926877 0.4580136918504908
0.4148936170212766 0.4519367429083841 0.4549517742225965
0.4151063829787234 0.45177665223382135 0.4581596343475676
0.4153191489361702 0.45230839702885073 0.46305583229997926
0.415531914893617 0.45497368077044453 0.4703811434981145
0.4157446808510638 0.45376115352864005 0.47815027938919835
0.41595744680851066 0.4528197836435683 0.47941048278995135
0.41617021276595745 0.4494613152575189 0.48114576225486916
0.41638297872340424 0.44810221541565726 0.4864063630780403
0.4165957446808511 0.44889137653971894 0.4879729593438225
0.4168085106382979 0.4510039225849281 0.4871043061874324
0.41702127659574467 0.45280479286583897 0.48800474132788774
0.41723404255319146 0.4520672466574713 0.48705422569614076
0.4174468085106383 0.4531662631544087 0.4861627361518156
0.4176595744680851 0.4509037616023448 0.48418809803749396
0.4178723404255319 0.4504318892384631 0.4837178243066296
0.41808510638297874 0.449328436328245 0.47820055975553866
0.41829787234042554 0.45041494232961427 0.47337627069006305
0.41851063829787233 0.4535032540580536 0.4654666522627119
0.4187234042553191 0.45096638088949187 0.45857396649315574
0.41893617021276597 0.4541424240433581 0.45049685438427295
0.41914893617021276 0.4569390946040341 0.442224843678142
0.41936170212765955 0.46010885653228106 0.4393328487331908
0.4195744680851064 0.4611923601181197 0.4371658415615134
0.4197872340425532 0.46292239020743275 0.4381549580517451
0.42 0.46055858489076246 0.43384757729601053
0.42021276595744683 0.46058663239704817 0.4358980684255156
0.4204255319148936 0.45876489142276816 0.4354951947787166
0.4206382978723404 0.45917364860016385 0.44033081604225127
0.4208510638297872 0.4576908016334955 0.4423664360486991
0.42106382978723406 0.45748832170253173 0.4472503202124658
0.42127659574468085 0.4576768766805302 0.4539376615491272
0.42148936170212764 0.4617550272821996 0.4636256975193985
0.4217021276595745 0.45614531774682987 0.4665363947239862
0.4219148936170213 0.45575603069196463 0.46842461634240495
0.4221276595744681 0.45393298614235467 0.47239863214460187
0.42234042553191486 0.4541229078712941 0.4726283028150889
0.4225531914893617 0.453672773039784 0.4730172773412371
0.4227659574468085 0.45530353690828274 0.470448682658365
0.4229787234042553 0.4538348803126526 0.4662018379907668
0.42319148936170214 0.4538348803126526 0.4621438691833074
0.42340425531914894 0.453202658028091 0.4587774904496858
0.42361702127659573 0.45710781509754644 0.457743038593063
0.4238297872340426 0.458860272579689 0.457743038593063
0.42404255319148937 0.45728844057167567 0.4546083893007714
0.42425531914893616 0.45450473968472077 0.45188080117244755
0.42446808510638295 0.45362283482279325 0.45188080117244755
0.4246808510638298 0.45652032913670304 0.44919535234839714
0.4248936170212766 0.46448167878005825 0.45545350344044816
0.4251063829787234 0.4617048630022839 0.4461974508478671
0.42531914893617023 0.45757446274764124 0.44771977912390454
0.425531914893617 0.4557889594528579 0.4444109704266696
0.4257446808510638 0.4561206796051313 0.44111524501460136
0.4259574468085106 0.4563037254302861 0.43779246598309063
0.42617021276595746 0.4528202028071879 0.438029422038208
0.42638297872340425 0.4566944473912358 0.43917928676111373
0.42659574468085104 0.4561567507822393 0.438324844300805
0.4268085106382979 0.45577501827271216 0.4440853963818454
0.4270212765957447 0.4545142248166597 0.446859734421133
0.4272340425531915 0.45818281417190415 0.4470930917343547
0.4274468085106383 0.4563634878039612 0.44992672203224227
0.4276595744680851 0.4578986165082362 0.451508964823776
0.4278723404255319 0.4577453656976185 0.4509060887069003
0.4280851063829787 0.45754419207627667 0.44914852897892604
0.42829787234042555 0.4568381936276226 0.4480448374966994
0.42851063829787234 0.4557290638335949 0.4351513372421774
0.42872340425531913 0.45406260749617294 0.43294239314720717
0.428936170212766 0.45282897977809916 0.4300794914164568
0.42914893617021277 0.4522551593196412 0.42745481191988266
0.42936170212765956 0.44699560332193444 0.4262845334624598
0.42957446808510635 0.4484364569833415 0.4298232937638984
0.4297872340425532 0.4497998468164748 0.43561379197196864
0.43 0.4450427708333778 0.440166299544404
0.4302127659574468 0.44735398792093095 0.4477055580582174
0.43042553191489363 0.4542114090157042 0.4475961141889856
0.4306382978723404 0.4507166253802578 0.4506959461504243
0.4308510638297872 0.45240654147086623 0.450001163058977
0.43106382978723407 0.45351510465250683 0.4535328172421718
0.43127659574468086 0.45304567981504396 0.46270392485884243
0.43148936170212765 0.45008844165460155 0.46827484770104577
0.43170212765957444 0.4490416978056035 0.4755706676773021
0.4319148936170213 0.4538137113586037 0.4811708193214762
0.4321276595744681 0.4538348803126526 0.4755781124685999
0.4323404255319149 0.4540884877462148 0.47550857796017937
0.4325531914893617 0.4533026314837361 0.46893526460537754
0.4327659574468085 0.455961728772112 0.46451320785607936
0.4329787234042553 0.4552465904618497 0.4596129215316197
0.4331914893617021 0.44973687385569966 0.457743038593063
0.43340425531914895 0.4497961394106862 0.4509713830046909
0.43361702127659574 0.44992672203224227 0.44311403835734275
0.43382978723404253 0.44699560332193444 0.4351440092576533
0.4340425531914894 0.44775070001132683 0.43253219663535203
0.43425531914893617 0.45029507471940455 0.42671810654555814
0.43446808510638296 0.45040772115117067 0.42351657097498097
0.4346808510638298 0.45181046638260086 0.42410423363307864
0.4348936170212766 0.4536152083748882 0.4277728356766922
0.4351063829787234 0.45560977615245574 0.43020674732978836
0.4353191489361702 0.4568072223450526 0.43730765426509305
0.43553191489361703 0.4580621876358031 0.4396580103252239
0.4357446808510638 0.4594652909061287 0.44396502008853783
0.4359574468085106 0.4590836771803989 0.449563123015009
0.43617021276595747 0.4577412370688705 0.4523724736248359
0.43638297872340426 0.4564060416772118 0.45270354833108806
0.43659574468085105 0.45527185746984705 0.45538618626168487
0.43680851063829784 0.4565655355262482 0.46027323030994627
0.4370212765957447 0.4577189115018744 0.46353289474011283
0.4372340425531915 0.45794432946949154 0.4663645186595978
0.4374468085106383 0.45969711773326827 0.47520689000951044
0.4376595744680851 0.459337180737491 0.48263173625863387
0.4378723404255319 0.4601727031978037 0.4875211882803323
0.4380851063829787 0.4598375184661853 0.49058990387554446
0.43829787234042555 0.45943192921401116 0.4930979371290876
0.43851063829787235 0.45969711773326827 0.4914965645801444
