0.0 0.4401563263312165 0.3209574987787005
0.0002127659574468085 0.44143605193280844 0.3233036623816191
0.000425531914893617 0.44271577753440033 0.3256498259845377
0.0006382978723404255 0.4439955031359923 0.3279959895874563
0.000851063829787234 0.4452752287375842 0.3303421531903749
0.0010638297872340426 0.44668706035021993 0.33638441023854493
0.001276595744680851 0.44860102220793474 0.35009633290049674
0.0014893617021276596 0.4518410211185247 0.3743963247299215
0.001702127659574468 0.4499592637669865 0.4003151738738239
0.0019148936170212765 0.4487829809869148 0.4201664811554004
0.002127659574468085 0.4484364427841385 0.433450445595159
0.002340425531914894 0.4480899045813622 0.44673441003491754
0.002553191489361702 0.4477433663785859 0.4600183744746761
0.0027659574468085106 0.44739682817580956 0.47330233891443463
0.0029787234042553193 0.44705028997303325 0.48658630335419323
0.0031914893617021275 0.44670375177025695 0.4998702677939517
0.003404255319148936 0.44635721356748065 0.5131542322337104
0.003617021276595745 0.44602334773052804 0.5261788643085092
0.003829787234042553 0.4462335087371638 0.5280703133682312
0.004042553191489362 0.44644366974379956 0.5299617624279532
0.00425531914893617 0.4466538307504353 0.5318532114876752
0.004468085106382979 0.4468639917570711 0.5337446605473971
0.004680851063829788 0.4473462404045633 0.5315630486379307
0.004893617021276595 0.4482843787361207 0.52255692065498
0.005106382978723404 0.4492225170676781 0.5135507926720294
0.005319148936170213 0.45016065539923544 0.5045446646890788
0.005531914893617021 0.45109879373079287 0.4955385367061282
0.00574468085106383 0.45178387962352934 0.4861897558367978
0.005957446808510639 0.45120151043156004 0.47512474118938264
0.006170212765957446 0.45132110152614646 0.4607033750344601
0.006382978723404255 0.4524397925489698 0.4455957342030061
0.006595744680851064 0.4538348803126526 0.4361110009434082
0.006808510638297872 0.4540030783889501 0.4278951083734105
0.007021276595744681 0.45454726726994704 0.419027619252316
0.00723404255319149 0.4534514607471226 0.41398645837748904
0.007446808510638298 0.4533678509270766 0.4107591776302379
0.007659574468085106 0.45193908062577404 0.40699526040105505
0.007872340425531916 0.45386664704404195 0.40151561321508
0.008085106382978723 0.45225429832509656 0.3958350013609123
0.008297872340425531 0.4509054856503009 0.39228311144414557
0.00851063829787234 0.4525430553061613 0.3914041153918937
0.008723404255319148 0.45650790355560716 0.37699891831132293
0.008936170212765958 0.4568735580041043 0.36619414877967515
0.009148936170212766 0.46017533051427856 0.35664349276354035
0.009361702127659575 0.46013734024520364 0.3537044234681759
0.009574468085106383 0.4602227096606819 0.3586847386547377
0.00978723404255319 0.4634515463143023 0.376772879339467
0.01 0.4641266744417155 0.396833138957113
0.010212765957446808 0.46334275609215375 0.4164310976961565
0.010425531914893617 0.4612518614143824 0.4415200578138665
0.010638297872340425 0.4579216703266853 0.4607999786563573
0.010851063829787235 0.45722481882050686 0.4735968916122118
0.011063829787234043 0.45926607090408067 0.4813069341872527
0.01127659574468085 0.45724529607989495 0.4886949219504674
0.01148936170212766 0.45419670777144955 0.4956306962144874
0.011702127659574468 0.45140061594662795 0.5051044540653431
0.011914893617021277 0.4482004799486391 0.5198835883101189
0.012127659574468085 0.44983565602562187 0.5350649956406713
0.012340425531914893 0.45071651555276304 0.5460306873403632
0.012553191489361702 0.44933510227225343 0.5484015186627286
0.01276595744680851 0.45010123576779115 0.5384182525972893
0.01297872340425532 0.45458916320643644 0.520327607507903
0.013191489361702127 0.45094613580869625 0.49888463605325
0.013404255319148937 0.4503317596298204 0.4766175380908495
0.013617021276595745 0.45164132570226045 0.45471623143598394
0.013829787234042552 0.4605258089962328 0.43523020873180723
0.014042553191489362 0.45382347451471455 0.41663323896215676
0.01425531914893617 0.452028784325018 0.4049677527291283
0.01446808510638298 0.4509302583582391 0.4002036909805873
0.014680851063829787 0.4516771116806171 0.40087105403528245
0.014893617021276596 0.4496932978620314 0.40005436106775133
0.015106382978723404 0.44894968246213973 0.4051989259081234
0.015319148936170212 0.4484628129299025 0.41619410307149285
0.015531914893617021 0.4473531080274814 0.42912246742047355
0.01574468085106383 0.44397280170515796 0.43762991259975453
0.015957446808510637 0.4439739919560614 0.4444985682483368
0.016170212765957447 0.4431900767165117 0.4520860645224228
0.016382978723404256 0.44586019478789857 0.45869325237666325
0.016595744680851062 0.4450415241817294 0.4641998282216025
0.01680851063829787 0.4466824058152448 0.4679721661533123
0.01702127659574468 0.4511740250904103 0.4733756717147044
0.01723404255319149 0.44553960441922263 0.47289671238209513
0.017446808510638297 0.4443232178333083 0.4706453929094549
0.017659574468085106 0.44570953737269114 0.466486434291306
0.017872340425531916 0.4465342021921995 0.4607826319246362
0.018085106382978722 0.4495754093853113 0.45634884774084594
0.01829787234042553 0.44827893155440945 0.4540915459591476
0.01851063829787234 0.44614456085845267 0.4538348803126526
0.01872340425531915 0.44601545425635075 0.45286095023803125
0.018936170212765956 0.444779887235125 0.45318078794614175
0.019148936170212766 0.4428236283437459 0.44894968246213973
0.019361702127659575 0.4425072780495536 0.4481559373058756
0.01957446808510638 0.44255649377450573 0.4475265545889529
0.01978723404255319 0.4427633031762953 0.44470815436766814
0.02 0.44387011726060815 0.43995675616518826
0.02021276595744681 0.4449836028354785 0.43642193208955876
0.020425531914893616 0.4460185637518319 0.4270780864720577
0.020638297872340425 0.44675958488126305 0.4189482373879447
0.020851063829787235 0.4496089714878225 0.40991567553172226
0.02106382978723404 0.44894968246213973 0.4055081643712826
0.02127659574468085 0.44953601357885886 0.4014649151072081
0.02148936170212766 0.45128712337152715 0.39912066438690763
0.02170212765957447 0.4487215789837541 0.4022798865756011
0.021914893617021276 0.4479726428920372 0.409458093887571
0.022127659574468085 0.44927914874180086 0.4240079064309979
0.022340425531914895 0.4534547358903075 0.4313362916860534
0.0225531914893617 0.4512933321313566 0.43585859752179434
0.02276595744680851 0.45074687852136686 0.43722520762090866
0.02297872340425532 0.4508103846088692 0.43668999933911956
0.023191489361702126 0.44992672203224227 0.43624816805080613
0.023404255319148935 0.44753185290239633 0.4418361960204464
0.023617021276595745 0.44699560332193444 0.4421590341131698
0.023829787234042554 0.44609714664143163 0.44699560332193444
0.02404255319148936 0.44720462865050137 0.44741365397906824
0.02425531914893617 0.4486494259228524 0.44894968246213973
0.02446808510638298 0.44945390651455547 0.44658560487370563
0.024680851063829785 0.44955806928955827 0.4428477109567896
0.024893617021276595 0.44918946123328835 0.4406358838735137
0.025106382978723404 0.44981433567981116 0.43150979415450164
0.025319148936170214 0.4489172226261198 0.4214789650731976
0.02553191489361702 0.4472123456912368 0.4155118958011073
0.02574468085106383 0.44605079299785094 0.4109740562122149
0.02595744680851064 0.44699560332193444 0.4063875812659278
0.026170212765957445 0.4473879061056704 0.39852477543282905
0.026382978723404255 0.44871858717902574 0.3853689904352972
0.026595744680851064 0.44761926519022016 0.3714311822826415
0.026808510638297874 0.4474717573113509 0.35870954597963434
0.02702127659574468 0.44737002821955457 0.3538024192645685
0.02723404255319149 0.44626124726261457 0.3549112002215085
0.0274468085106383 0.4468867361495561 0.35602205613001536
0.027659574468085105 0.4450202828816208 0.3601240467832382
0.027872340425531914 0.4439111971180395 0.36440710234397633
0.028085106382978724 0.4436545107663219 0.36631129284872443
0.028297872340425533 0.44545803482535795 0.36284172621517413
0.02851063829787234 0.44546926292861544 0.3594897807595876
0.02872340425531915 0.4457192795877707 0.3631285744489497
0.02893617021276596 0.45411477649422244 0.3730204921757075
0.029148936170212764 0.4520251044983104 0.39257298616844377
0.029361702127659574 0.4527684814832785 0.4080152043408733
0.029574468085106383 0.452034454050389 0.4322731734385214
0.029787234042553193 0.45313379062191783 0.46334393615852487
0.03 0.4534299304331156 0.5073981892265419
0.03021276595744681 0.453368234408149 0.5544553672072138
0.030425531914893618 0.4522430509538712 0.5935591295244902
0.030638297872340424 0.45281321254256657 0.6249371422157938
0.030851063829787233 0.45523776552731005 0.6435557059951237
0.031063829787234043 0.45746123672075806 0.6404587051852121
0.03127659574468085 0.45969711773326827 0.6202728197738852
0.03148936170212766 0.46018052523800573 0.5898069735269539
0.03170212765957447 0.45960293736328645 0.5600848882141755
0.031914893617021274 0.4587200781631655 0.5440513508261094
0.03212765957446809 0.4579521453524148 0.5436540265354343
0.03234042553191489 0.45676599902296044 0.5519327059786547
0.0325531914893617 0.456869958877102 0.5586274349047411
0.03276595744680851 0.457658449265739 0.5531080021842817
0.03297872340425532 0.45850322002109933 0.4422895698277325
0.033191489361702124 0.45970022091177165 0.4093049149089005
0.03340425531914894 0.46101526202252113 0.4072384217348656
0.03361702127659574 0.4623303031332706 0.40517192856083073
0.033829787234042556 0.4636453442440201 0.4031054353867958
0.03404255319148936 0.4649603853547695 0.40103894221276093
0.03425531914893617 0.46514193073220156 0.40399366522604324
0.03446808510638298 0.4643753446866174 0.41114846831816254
0.03468085106382979 0.46360875864103324 0.4183032714102816
0.03489361702127659 0.462842172595449 0.4254580745024007
0.035106382978723406 0.46207558654986486 0.43261287759452005
0.03531914893617021 0.4613090005042807 0.43976768068663913
0.03553191489361702 0.4605424144586965 0.4469224837787582
0.03574468085106383 0.4597758284131123 0.4540772868708775
0.03595744680851064 0.46027934470939713 0.4577230547633998
0.036170212765957444 0.46098865479949447 0.45781013275652593
0.036382978723404256 0.46149221571955773 0.4531989556969902
0.03659574468085106 0.4609867793436983 0.44930147795158726
0.03680851063829787 0.46228018806358195 0.4429286949401154
0.03702127659574468 0.45648194268577075 0.4379181908538215
0.03723404255319149 0.45439301164915213 0.43827216847368805
0.0374468085106383 0.4514836448974392 0.442142107706258
0.03765957446808511 0.4499654300874596 0.452079010543369
0.03787234042553191 0.4501206576661541 0.48253113421155036
0.038085106382978726 0.4509037616023448 0.509355743135953
0.03829787234042553 0.45086563871326246 0.5272794951727153
0.03851063829787234 0.45030694862721027 0.5440401977542818
0.03872340425531915 0.45036089816809893 0.5569666120788201
0.03893617021276596 0.4517201111994584 0.5617238576885779
0.03914893617021276 0.4505052298050347 0.565725201012572
0.039361702127659576 0.45046400179257684 0.5647537115230477
0.03957446808510638 0.45131796352975817 0.5609108837057318
0.03978723404255319 0.45150167492132554 0.5534494730490436
0.04 0.4503895742118867 0.5389921638263395
0.04021276595744681 0.44927747350244795 0.5245348546036359
0.04042553191489362 0.4481653727930091 0.5100775453809319
0.040638297872340426 0.4470532720835704 0.4956202361582283
0.04085106382978723 0.4451577521908689 0.48200558433950164
0.041063829787234045 0.44362276284507657 0.46507655418725324
0.04127659574468085 0.4420790760447741 0.44375119034515226
0.04148936170212766 0.4405849383301735 0.417292834205089
0.04170212765957447 0.43989650455761287 0.3966009416897177
0.041914893617021276 0.4394359606720256 0.3834754409504826
0.04212765957446808 0.4389754167864384 0.37034994021124745
0.042340425531914895 0.43851487290085117 0.35722443947201193
0.0425531914893617 0.4383660888794708 0.3425801476454861
0.04276595744680851 0.4388762106913657 0.32472588422916576
0.04297872340425532 0.43852406323905513 0.3134629982659237
0.043191489361702126 0.43690971557460667 0.31184865060147526
0.04340425531914894 0.43529536791015816 0.31023430293702675
0.043617021276595745 0.43836383252738637 0.31407594356592583
0.04382978723404255 0.4372336866899552 0.31314966128692645
0.044042553191489364 0.43516874226072877 0.31000529106762265
0.04425531914893617 0.43429408891060084 0.30577767445624027
0.044468085106382976 0.4375826838271465 0.30665938143339955
0.04468085106382979 0.4363965368334578 0.31252283974800826
0.044893617021276595 0.4329963957371781 0.3206670026956638
0.0451063829787234 0.43455917539031536 0.33107628730819655
0.045319148936170214 0.43593523532282796 0.3335292080232625
0.04553191489361702 0.43864340453449535 0.32886854022265555
0.045744680851063826 0.44041837259273786 0.3232222340139994
0.04595744680851064 0.44252541841604914 0.3166291219340796
0.046170212765957445 0.4460185637518319 0.321239667240725
0.04638297872340425 0.4473048339976644 0.3393978817533675
0.046595744680851064 0.44961209974055144 0.3741639120138619
0.04680851063829787 0.44992687020478206 0.4203734605816
0.047021276595744683 0.4543829547418107 0.477712580506839
0.04723404255319149 0.4614108589841078 0.550271886975641
0.047446808510638296 0.46593486697492975 0.6215831504073125
0.04765957446808511 0.4725588069448995 0.6681109049973982
0.047872340425531915 0.47427899273851176 0.6821304062583302
0.04808510638297872 0.47281848559793405 0.6704149193224106
0.048297872340425534 0.4757673636889224 0.635828582607298
0.04851063829787234 0.47385660509159305 0.5912834272998084
0.048723404255319146 0.4753297508549097 0.5541925430678983
0.04893617021276596 0.4753297508549097 0.537840962410115
0.049148936170212765 0.4734691355445632 0.5396741667368923
0.04936170212765957 0.4726101665940584 0.5490004239294329
0.049574468085106384 0.47279590379849307 0.5519361089768028
0.04978723404255319 0.4733351367132227 0.5524753418915324
0.05 0.47109410389956613 0.550994831682922
0.05021276595744681 0.4676456476840408 0.5456637134421863
0.050425531914893615 0.4658253991264673 0.5344795779943445
0.05063829787234043 0.46629133858395544 0.5149173708891778
0.050851063829787234 0.46573917911339857 0.48242080504851836
0.05106382978723404 0.4655593551538837 0.4337240372334917
0.05127659574468085 0.46461996534478156 0.3833787904140802
0.05148936170212766 0.4655552711832813 0.34435131485803055
0.051702127659574465 0.46343289172511354 0.3172793814846107
0.05191489361702128 0.4615700477771608 0.3060714410518841
0.052127659574468084 0.4652223469922301 0.3148092305687185
0.05234042553191489 0.4606741573033708 0.337833092233813
0.0525531914893617 0.46002359889446137 0.3688180142328656
0.05276595744680851 0.45910688757211554 0.40620652611838803
0.05297872340425532 0.45886226791060375 0.43997755925984944
0.05319148936170213 0.45591220802232907 0.46912410537541444
0.053404255319148934 0.45340909636804844 0.4916617463078141
0.05361702127659575 0.4531507194314841 0.5044441309513864
0.05382978723404255 0.45324794398896867 0.5091360325620816
0.05404255319148936 0.4509037616023448 0.5106108673711405
0.05425531914893617 0.4509037616023448 0.5048983229831677
0.05446808510638298 0.4509037616023448 0.49307713999789865
0.054680851063829784 0.44942207372697435 0.47718705887381485
0.0548936170212766 0.4466261235349716 0.46220671686455206
0.0551063829787234 0.4454813548620843 0.44733479831672157
0.05531914893617021 0.4452820081761697 0.4345194693127
0.05553191489361702 0.44360363035299244 0.4252058716795448
0.05574468085106383 0.4422256905833467 0.4148685826204742
0.055957446808510634 0.44333781033102393 0.41598070236815143
0.05617021276595745 0.44472203054571036 0.4184608324729772
0.05638297872340425 0.4466192374939456 0.4235200510016047
0.056595744680851066 0.44699560332193444 0.43268901242214436
0.05680851063829787 0.44797964410159713 0.4377172280107399
0.05702127659574468 0.4493643720952842 0.4369581782915777
0.05723404255319149 0.45060915460121054 0.4311765330668939
0.0574468085106383 0.45146796878863527 0.42168890791231706
0.057659574468085104 0.4500033287160894 0.4150980275858612
0.05787234042553192 0.4516330003143576 0.4087813235211456
0.05808510638297872 0.44946766398322996 0.4071096414547584
0.05829787234042553 0.44894968246213973 0.4056374893122143
0.05851063829787234 0.450253681418687 0.4058522344452214
0.05872340425531915 0.45088976969455324 0.4086712860340434
0.058936170212765954 0.44842526386429593 0.4164919837719992
0.05914893617021277 0.44992672203224227 0.4313546979161091
0.05936170212765957 0.4497377600781161 0.4511849961121818
0.059574468085106386 0.4489793119942722 0.4640786135375294
0.05978723404255319 0.44801572843965826 0.4832613960334122
0.06 0.4489260002055286 0.4984234666882049
0.06021276595744681 0.44976586923982104 0.512083412920285
0.06042553191489362 0.446196763837435 0.5254675581792329
0.06063829787234042 0.44523029475541576 0.5285006154894927
0.060851063829787236 0.4456753746057209 0.5335038801784927
0.06106382978723404 0.44520892032732795 0.5310483436542461
0.06127659574468085 0.4437155939182359 0.5222046820974904
0.06148936170212766 0.44175213310460487 0.5110784041535814
0.06170212765957447 0.441133365901319 0.5017276811271775
0.06191489361702127 0.4409732490038904 0.4937497239749612
0.062127659574468086 0.440158250866595 0.4880447370138927
0.06234042553191489 0.437850687916808 0.4880312652662433
0.0625531914893617 0.43722520762090866 0.4895206360249744
0.0627659574468085 0.4375216478600827 0.49185170469407313
0.06297872340425532 0.4392642357986533 0.4914155292690272
0.06319148936170213 0.441133365901319 0.4833519314838085
0.06340425531914894 0.44482542032198036 0.46974405491076227
0.06361702127659574 0.4461543241199578 0.4501351779836373
0.06382978723404255 0.4471972142769614 0.43230899456536426
0.06404255319148935 0.4496488888404528 0.413345637954244
0.06425531914893617 0.45185723907570857 0.4011925540108078
0.06446808510638298 0.45138568863430156 0.39335481237268355
0.06468085106382979 0.45594810694118654 0.3949516302338737
0.06489361702127659 0.4573455708912177 0.4054136288783897
0.0651063829787234 0.4571023814214301 0.42066369636712403
0.06531914893617022 0.4583198473966667 0.4392263614534034
0.06553191489361702 0.45676599902296044 0.4542273113695716
0.06574468085106383 0.45676599902296044 0.4676624707666701
0.06595744680851064 0.45738064361544106 0.4776781838620692
0.06617021276595744 0.457743038593063 0.4780390307877278
0.06638297872340425 0.4568947928849604 0.4730426014546014
0.06659574468085107 0.457743038593063 0.46359930747056866
0.06680851063829787 0.45736279724393575 0.4515903695787927
0.06702127659574468 0.45506840199129883 0.4415485523902624
0.06723404255319149 0.45347076488313154 0.4341342815279402
0.06744680851063829 0.45095690754138995 0.42683342728721896
0.06765957446808511 0.4512388919889685 0.42195605647565926
0.06787234042553192 0.4516708681826253 0.42214974808972533
0.06808510638297872 0.45277926729117113 0.4216711479506462
0.06829787234042553 0.453780691113084 0.42653196154934875
0.06851063829787234 0.4532272388619915 0.4283783072184863
0.06872340425531914 0.45449704282224723 0.4342292721334434
0.06893617021276596 0.453389218066102 0.442658869656518
0.06914893617021277 0.4528578407425501 0.45074148411527903
0.06936170212765957 0.4528578407425501 0.45473526945299
0.06957446808510638 0.4528578407425501 0.4565112230014311
0.06978723404255319 0.45540386797341253 0.4559173232793397
0.06999999999999999 0.45385343287118135 0.45772448603453425
0.07021276595744681 0.45567840418538924 0.4494845009623676
0.07042553191489362 0.45432181314752346 0.44626361711944773
0.07063829787234042 0.4543678334511473 0.448883094207681
0.07085106382978723 0.4572759937240055 0.4498408223682671
0.07106382978723404 0.45388926917185396 0.4505418225061766
0.07127659574468086 0.4503402046443211 0.45188080117244755
0.07148936170212766 0.44721957552337777 0.45729509419017633
0.07170212765957447 0.4506933287578562 0.46212467077357267
0.07191489361702127 0.4473622210346184 0.46897808215366077
0.07212765957446808 0.44894968246213973 0.46231787902926563
0.07234042553191489 0.44894968246213973 0.4625294545046751
0.0725531914893617 0.45136917674385185 0.4611857817319664
0.07276595744680851 0.4522765296946916 0.45560337692724356
0.07297872340425532 0.4560052440001062 0.45158247014310965
0.07319148936170213 0.45183274131750323 0.4509037616023448
0.07340425531914893 0.4490308377414794 0.44732022443929315
0.07361702127659574 0.44986946552612433 0.44515603719396524
0.07382978723404256 0.4469760099285219 0.4264124610384049
0.07404255319148936 0.44627184736497755 0.42406525249325694
0.07425531914893617 0.44556768480143316 0.421718043948109
0.07446808510638298 0.44486352223788883 0.4193708354029611
0.07468085106382978 0.4441593596743445 0.41702362685781313
0.0748936170212766 0.4472933646688408 0.41186405656293334
0.07510638297872341 0.44634774346436307 0.40597044094511675
0.07531914893617021 0.4434503109599742 0.4024146490156656
0.07553191489361702 0.44399843819663004 0.3993188036318981
0.07574468085106383 0.44691060022108475 0.4029154851995184
0.07595744680851063 0.4452088193817921 0.4074957825176741
0.07617021276595745 0.4503318129255078 0.40967745009909046
0.07638297872340426 0.44811107545048423 0.4005591458185004
0.07659574468085106 0.45109175234438087 0.399245991548265
0.07680851063829787 0.4534780573125726 0.401966801027313
0.07702127659574468 0.452456055739482 0.4088362142127983
0.0772340425531915 0.4542316536290099 0.4224754834567263
0.0774468085106383 0.45435581453505314 0.4364449578997144
0.07765957446808511 0.45281390261404225 0.4452172766957608
0.07787234042553191 0.4500163373961194 0.4526786100147959
0.07808510638297872 0.45262449061364 0.4584867280342556
0.07829787234042553 0.4495972239964651 0.46478230531269327
0.07851063829787235 0.4479897999311012 0.4713186503401152
0.07872340425531915 0.4472879310936979 0.4843179921670086
0.07893617021276596 0.44950539557349073 0.48628784935541386
0.07914893617021276 0.44765264747050143 0.4857742440099978
0.07936170212765957 0.44570098449454854 0.47883067132444374
0.07957446808510638 0.44406448461162684 0.46686536104944965
0.0797872340425532 0.44471815745793264 0.4596901783345557
0.08 0.4442765723530995 0.45642522267727587
0.08021276595744681 0.44406448461162684 0.4589013369794382
0.08042553191489361 0.44406448461162684 0.4663048109170025
0.08063829787234042 0.44331068019965847 0.4712824563539301
0.08085106382978724 0.4430874450415241 0.47306781682504556
0.08106382978723405 0.4424049116898231 0.4692804716044984
0.08127659574468085 0.4406017745774334 0.4607245952711416
0.08148936170212766 0.43829108137968054 0.44752860845395015
0.08170212765957446 0.43684974170411633 0.436627774899811
0.08191489361702127 0.4359985731853783 0.4285769081753285
0.08212765957446809 0.43391147982889045 0.421619930320369
0.0823404255319149 0.4333170493404983 0.4213718426019856
0.0825531914893617 0.4333170493404983 0.4237954692577541
0.08276595744680851 0.43368164986941465 0.42233609003607675
0.08297872340425531 0.43420285675349685 0.41920884873158343
0.08319148936170212 0.43472406363757904 0.41608160742709016
0.08340425531914894 0.43524527052166123 0.41295436612259667
0.08361702127659575 0.4397799683115712 0.4010762348080879
0.08382978723404255 0.4393058307182732 0.38989175660169306
0.08404255319148936 0.4435385399480448 0.3805265733793034
0.08425531914893616 0.4464031877963404 0.38519276062816854
0.08446808510638298 0.4489647344827405 0.39194029569646915
0.08468085106382979 0.4495784739223855 0.41787078702146974
0.0848936170212766 0.45019221336203047 0.4438012783464703
0.0851063829787234 0.45080595280167546 0.4697317696714709
0.08531914893617021 0.45141969224132045 0.4956622609964714
0.08553191489361701 0.45203343168096544 0.5215927523214721
0.08574468085106383 0.4526471711206104 0.5475232436464743
0.08595744680851064 0.4528578407425501 0.5426913506391815
0.08617021276595745 0.4528578407425501 0.5217811019908216
0.08638297872340425 0.4528578407425501 0.5008708533424617
0.08659574468085106 0.4528578407425501 0.47996060469410196
0.08680851063829788 0.4528578407425501 0.45905035604574074
0.08702127659574468 0.45344227212875593 0.45841890069078434
0.08723404255319149 0.4541347027505922 0.4615348384890475
0.0874468085106383 0.45482713337242847 0.4646507762873108
0.0876595744680851 0.45551956399426474 0.467766714085574
0.08787234042553191 0.456211994616101 0.47088265188383727
0.08808510638297873 0.45690442523793734 0.4739985896821007
0.08829787234042553 0.4575968558597736 0.47711452748036387
0.08851063829787234 0.4582892864816099 0.4802304652786271
0.08872340425531915 0.45898171710344615 0.48334640307689036
0.08893617021276595 0.45967414772528237 0.4864623408751536
0.08914893617021276 0.46036657834711864 0.4895782786734168
0.08936170212765958 0.46105900896895496 0.49269421647168027
0.08957446808510638 0.46175143959079124 0.49581015426994346
0.08978723404255319 0.4624438702126275 0.4989260920682067
0.09 0.462052549054659 0.5152992996082306
0.0902127659574468 0.4612679564245902 0.5364833006200874
0.09042553191489362 0.46048336379452137 0.5576673016319457
0.09063829787234043 0.4596987711644526 0.5788513026438025
0.09085106382978723 0.4589141785343838 0.6000353036556593
0.09106382978723404 0.45736291341138774 0.6104332397353097
0.09127659574468085 0.4555596358136307 0.6172856946067865
0.09148936170212765 0.4538348803126526 0.62342769844575
0.09170212765957447 0.4538348803126526 0.6139644857053325
0.09191489361702128 0.450749068379111 0.5892802823610637
0.09212765957446808 0.4493320341187 0.5625825185958668
0.09234042553191489 0.44992672203224227 0.536599738568879
0.0925531914893617 0.44992672203224227 0.5069588049753453
0.0927659574468085 0.4508151065424473 0.4022994091646205
0.09297872340425532 0.45185308830419374 0.2850074700872767
0.09319148936170213 0.4519906856958108 0.28044741717087457
0.09340425531914893 0.45210358448135585 0.2789797329587889
0.09361702127659574 0.4522164832669009 0.2775120487467032
0.09382978723404255 0.45232938205244594 0.27604436453461756
0.09404255319148937 0.452442280837991 0.2745766803225318
0.09425531914893617 0.45255517962353603 0.2731089961104461
0.09446808510638298 0.4526680784090811 0.27164131189836044
0.09468085106382979 0.4527809771946261 0.27017362768627473
0.09489361702127659 0.453183691837255 0.2685226993738535
0.0951063829787234 0.4538348803126526 0.2723443256143875
0.09531914893617022 0.4538348803126526 0.29267801860111126
0.09553191489361702 0.45558168467387794 0.32713776864002914
0.09574468085106383 0.45662375292282475 0.3767141452325138
0.09595744680851064 0.4564751545467796 0.4335349252245535
0.09617021276595744 0.4575830087594517 0.4881661498137217
0.09638297872340426 0.4672028486211137 0.5317948599336563
0.09659574468085107 0.46181264497615376 0.5491273218917785
0.09680851063829787 0.46165119687347334 0.5530921626830114
0.09702127659574468 0.46359687698912716 0.5534929164631168
0.09723404255319149 0.4605516715565578 0.5453091426618571
0.09744680851063829 0.4603291863215511 0.542324102133133
0.09765957446808511 0.46155191509245985 0.5395356938088143
0.09787234042553192 0.45676599902296044 0.5296504629946654
0.09808510638297872 0.45510969281777514 0.5140624228101838
0.09829787234042553 0.4533395883724679 0.49935525833915767
0.09851063829787234 0.4523227296348826 0.48535570972790637
0.09872340425531914 0.44878449630909334 0.4740223389787143
0.09893617021276596 0.4457135657582565 0.46696548389631437
0.09914893617021277 0.44526088748030035 0.4640440026108206
0.09936170212765957 0.44605885135072687 0.4656399303516738
0.09957446808510638 0.4468568152211534 0.46723585809252693
0.09978723404255319 0.4447091035515541 0.4713242672447231
0.1 0.44658316157680605 0.47575686809817436
0.10021276595744681 0.4446804093436931 0.4778502530771731
0.10042553191489362 0.44236169546157994 0.47655808041517056
0.10063829787234042 0.4411402772805275 0.47727691861590626
0.10085106382978723 0.4400292948746419 0.468197198868548
0.10106382978723404 0.43970107157264066 0.4576099784871606
0.10127659574468086 0.44085727409966197 0.4493959749575338
0.10148936170212766 0.4403877285824039 0.44274034166474296
0.10170212765957447 0.4418693244026688 0.4391920020562054
0.10191489361702127 0.44189053301156417 0.4347338338303157
0.10212765957446808 0.44360234843330126 0.4318251063786186
0.10234042553191489 0.4447148365605419 0.43201332214920823
0.1025531914893617 0.4450415241817294 0.4331263800398833
0.10276595744680851 0.44413360664187335 0.43785663703977856
0.10297872340425532 0.44214524496276547 0.44491958596202574
0.10319148936170212 0.441133365901319 0.44924656960929926
0.10340425531914893 0.44135709184482586 0.45188080117244755
0.10361702127659575 0.4417493270274313 0.45188080117244755
0.10382978723404256 0.44311756026047966 0.44940055822349667
0.10404255319148936 0.44440936208301673 0.4362488476438186
0.10425531914893617 0.445604065264207 0.4257671886724499
0.10446808510638297 0.4478269674176775 0.41276906938157903
0.10468085106382978 0.45109213502398887 0.4035663242535844
0.1048936170212766 0.4528675006620787 0.39755353710693214
0.1051063829787234 0.44988641415112934 0.39943290828323746
0.10531914893617021 0.4523280757416027 0.4045704496485619
0.10553191489361702 0.45432518454170806 0.4172048186538259
0.10574468085106382 0.45737795040407814 0.4356466298681172
0.10595744680851064 0.45809488819272015 0.4531689937975197
0.10617021276595745 0.4570492208467413 0.46676266929524485
0.10638297872340426 0.45616493988484064 0.4719472008496961
0.10659574468085106 0.45534060831565226 0.474008029772667
0.10680851063829787 0.45556347309544026 0.4753297508549097
0.10702127659574467 0.45499404845532654 0.47931663963208604
0.1072340425531915 0.4543597741827922 0.4816198845854295
0.1074468085106383 0.45503827520069595 0.47748631254694224
0.1076595744680851 0.45364113788601 0.4742263254793416
0.10787234042553191 0.452244000571324 0.470966338411741
0.10808510638297872 0.45084686325663803 0.4677063513441404
0.10829787234042552 0.4490962005892017 0.4644519932298296
0.10851063829787234 0.44714379887158323 0.4609102191252296
0.10872340425531915 0.44771155351195463 0.45598273088271296
0.10893617021276596 0.44699560332193444 0.4511008597928588
0.10914893617021276 0.44699560332193444 0.44593396382285194
0.10936170212765957 0.44699560332193444 0.44254393889957633
0.10957446808510639 0.4473617768298429 0.4394239793153996
0.1097872340425532 0.44857189949559423 0.437003733983897
0.11 0.44992672203224227 0.43466641792730265
0.1102127659574468 0.44942371555440214 0.4352711284807034
0.11042553191489361 0.44954767476998053 0.4388590823277483
0.11063829787234042 0.45058738528194436 0.4450973453995316
0.11085106382978724 0.4505542970398366 0.4455977450719017
0.11106382978723404 0.45005198153555603 0.44358848305477916
0.11127659574468085 0.4475362393600637 0.44468110015630985
0.11148936170212766 0.44883841918163364 0.4450415241817294
0.11170212765957446 0.4472306818266319 0.4455116811911242
0.11191489361702127 0.4508052362857965 0.45002524734879057
0.11212765957446809 0.4538348803126526 0.44771913633406013
0.1123404255319149 0.45229887625711024 0.4481816804343685
0.1125531914893617 0.45061634526825234 0.4452715452319094
0.1127659574468085 0.45091822579206003 0.44259169316161523
0.11297872340425531 0.451160340461598 0.4430874450415241
0.11319148936170213 0.45036070260441724 0.4408072971894789
0.11340425531914894 0.4492322117049453 0.4415453469858103
0.11361702127659574 0.4483071726999501 0.44339542499580104
0.11382978723404255 0.4479726428920372 0.4480033341894425
0.11404255319148936 0.4486424330925937 0.45327567303502514
0.11425531914893616 0.44966954228310957 0.4368154243585079
0.11446808510638298 0.44992672203224227 0.4301162558523954
0.11468085106382979 0.44992672203224227 0.42975887673829705
0.1148936170212766 0.44992672203224227 0.4294014976241987
0.1151063829787234 0.44992672203224227 0.4290441185101004
0.11531914893617021 0.44992672203224227 0.42868673939600205
0.11553191489361703 0.44992672203224227 0.42832936028190366
0.11574468085106383 0.44992672203224227 0.4279719811678053
0.11595744680851064 0.44992672203224227 0.427614602053707
0.11617021276595745 0.44945567405962566 0.4283969078651159
0.11638297872340425 0.44855691781398654 0.43097994965270087
0.11659574468085106 0.44757097216708364 0.4333170493404983
0.11680851063829788 0.44654246854560087 0.4342233188931654
0.11702127659574468 0.44952787870694016 0.43878044343581163
0.11723404255319149 0.45100580290459025 0.4454440735797493
0.1174468085106383 0.44833425606008165 0.4513557780624004
0.1176595744680851 0.45094611870179097 0.45462060636453716
0.11787234042553191 0.45293508459496823 0.45719467068288555
0.11808510638297873 0.4545769138585034 0.45938377636759925
0.11829787234042553 0.4533578647133252 0.45969711773326827
0.11851063829787234 0.4516609135532201 0.45969711773326827
0.11872340425531915 0.451242970245456 0.45935790909015706
0.11893617021276595 0.4518554633129028 0.45874541602271024
0.11914893617021277 0.44892702314393357 0.4572431891489086
0.11936170212765958 0.44774844564950605 0.45699019626549153
0.11957446808510638 0.4474236451580819 0.4573149967569156
0.11978723404255319 0.4470988446666577 0.45763979724833975
0.12 0.44699560332193444 0.4539958558469255
0.1202127659574468 0.44699560332193444 0.448502574185913
0.12042553191489362 0.4463746102765025 0.44326964504934263
0.12063829787234043 0.444866721248954 0.43710191714124613
0.12085106382978723 0.4451016621383429 0.4322197338571686
0.12106382978723404 0.4451565735659914 0.42952394044435
0.12127659574468085 0.44544358204092094 0.4282020019184364
0.12148936170212765 0.44891242397764086 0.4276238615956496
0.12170212765957447 0.44995850445246044 0.4269462931963921
0.12191489361702128 0.45000342041135055 0.4262276378541504
0.12212765957446808 0.4500483363702406 0.4255089825119087
0.12234042553191489 0.4500932523291307 0.424790327169667
0.1225531914893617 0.45013816828802083 0.42407167182742533
0.12276595744680852 0.45018308424691095 0.4233530164851836
0.12297872340425532 0.45022800020580106 0.4226343611429419
0.12319148936170213 0.4502729161646912 0.4219157058007002
0.12340425531914893 0.45031783212358123 0.4211970504584585
0.12361702127659574 0.45036274808247134 0.4204783951162168
0.12382978723404255 0.45040766404136146 0.4197597397739751
0.12404255319148937 0.45045258000025157 0.4190410844317334
0.12425531914893617 0.4504974959591417 0.4183224290894917
0.12446808510638298 0.4505424119180318 0.41760377374725
0.12468085106382978 0.45058732787692185 0.4168851184050083
0.12489361702127659 0.45063224383581196 0.4161664630627666
0.1251063829787234 0.4506771597947021 0.4154478077205249
0.12531914893617022 0.4507220757535922 0.4147291523782832
0.125531914893617 0.4507669917124823 0.41401049703604154
0.12574468085106383 0.4508119076713724 0.4132918416937998
0.12595744680851065 0.4508568236302625 0.41257318635155804
0.12617021276595744 0.4509017395891526 0.4118545310093164
0.12638297872340426 0.44629416080295653 0.408749111598649
0.12659574468085105 0.4455410463450207 0.40591593186466546
0.12680851063829787 0.4457374327287665 0.4037247312143551
0.1270212765957447 0.4450415241817294 0.4003559914345545
0.12723404255319148 0.4450415241817294 0.386488689188346
0.1274468085106383 0.44612920529454086 0.35996971007574147
0.1276595744680851 0.4469367829675808 0.33204476677371664
0.12787234042553192 0.44268803403482404 0.30805312187225675
0.1280851063829787 0.44342925509324593 0.2897890137055429
0.12829787234042553 0.4431546862941631 0.28187591597459694
0.12851063829787235 0.44613379843834816 0.28478864732558024
0.12872340425531914 0.44834862373878 0.2934520410028457
0.12893617021276596 0.44975950658168407 0.3035117488341656
0.12914893617021275 0.4500155957171747 0.31367385336332027
0.12936170212765957 0.4497140476950443 0.3258827067346369
0.1295744680851064 0.4514242013302164 0.3428354086348005
0.12978723404255318 0.4536586743887589 0.3680474180448922
0.13 0.45606273848057743 0.3992063136837861
0.1302127659574468 0.45707747170529633 0.43635965513833874
0.13042553191489362 0.45949584792350906 0.47830288551271116
0.13063829787234044 0.45939739814043556 0.5168090904016739
0.13085106382978723 0.46258271825732666 0.5500940682468898
0.13106382978723405 0.46458231558378116 0.5756084968080094
0.13127659574468084 0.4654287177219205 0.5935460564980806
0.13148936170212766 0.46750992246949113 0.6179371421070124
0.13170212765957448 0.4697293468438103 0.6418991933857532
0.13191489361702127 0.47089816800982276 0.6693943458138133
0.1321276595744681 0.47025020369023224 0.6918517762882759
0.13234042553191488 0.47042341247583463 0.7069726910834714
0.1325531914893617 0.46833484123325503 0.709097278948075
0.1327659574468085 0.46688912338889255 0.6991248158665773
0.13297872340425532 0.4658545522993859 0.6785042387920811
0.13319148936170214 0.4648043083868344 0.6505733949681486
0.13340425531914893 0.4618891979809338 0.6228126556598789
0.13361702127659575 0.46136484695268426 0.5951343993572237
0.13382978723404254 0.4608565891936117 0.5757701862187824
0.13404255319148936 0.4588239564715518 0.5471308962197035
0.13425531914893618 0.45676599902296044 0.5224911048437074
0.13446808510638297 0.4566338630952952 0.49893496476670846
0.1346808510638298 0.4552930355198167 0.4752409010790313
0.13489361702127659 0.4545945840524942 0.44672733436536116
0.1351063829787234 0.45494986789244585 0.4197593381153498
0.13531914893617022 0.4534040817986781 0.4000442047241354
0.13553191489361702 0.4528578407425501 0.3834347001820456
0.13574468085106384 0.45145010231733695 0.37269870935640503
0.13595744680851063 0.45006271521998287 0.3648991921773985
0.13617021276595745 0.451880212457328 0.35612915715703514
0.13638297872340424 0.4502537520290363 0.3498326458860529
0.13659574468085106 0.4521512431291021 0.34565392998791994
0.13680851063829788 0.44842702923415856 0.3441792552901019
0.13702127659574467 0.4460185637518319 0.348445203590419
0.1372340425531915 0.44472569839478365 0.35318502348745334
0.13744680851063829 0.44755257902294837 0.3646411273961532
0.1376595744680851 0.44894968246213973 0.38374097458450096
0.13787234042553193 0.44438213539577354 0.41571498135714724
0.13808510638297872 0.44406448461162684 0.4256816139538856
0.13829787234042554 0.44406448461162684 0.4341649078034216
0.13851063829787233 0.44327289188134134 0.443978648513844
0.13872340425531915 0.44236259675705997 0.45399189488093844
0.13893617021276597 0.44145230163277865 0.46400514124803294
0.13914893617021276 0.44282039897743947 0.46666991775602873
0.13936170212765958 0.44416102806419316 0.4637983629188114
0.13957446808510637 0.43917928676111373 0.45289677706828346
0.1397872340425532 0.43962624966658376 0.44805575665119973
0.13999999999999999 0.4405174387265439 0.44483621512347105
0.1402127659574468 0.4382022471910112 0.44535138526813856
0.14042553191489363 0.43852814411654983 0.44666840398336927
0.14063829787234042 0.4396015105836806 0.4412659578262881
0.14085106382978724 0.4396024802191552 0.44071017244327765
0.14106382978723403 0.44050376425198523 0.43848441091957624
0.14127659574468085 0.441133365901319 0.4364538635222846
0.14148936170212767 0.44038254004235466 0.43850064562769914
0.14170212765957446 0.4409885582806327 0.4433404465081953
0.14191489361702128 0.44307311323491577 0.4460042319452236
0.14212765957446807 0.44042522467145906 0.44787408910116944
0.1423404255319149 0.4426545466384686 0.43950094240017795
0.1425531914893617 0.4432653980336144 0.43047660901262913
0.1427659574468085 0.4431841758574539 0.4208622276743916
0.14297872340425533 0.4433937523683857 0.413295597843031
0.14319148936170212 0.4430874450415241 0.41405145923366893
0.14340425531914894 0.4459069315593461 0.418512612865645
0.14361702127659573 0.44719654137513043 0.42121834908875266
0.14382978723404255 0.44894968246213973 0.42791648507748
0.14404255319148937 0.449323885696387 0.4353336356443739
0.14425531914893616 0.44992672203224227 0.44244297353191153
0.14446808510638298 0.450197039029307 0.44628888074889667
0.14468085106382977 0.4509037616023448 0.44904813873343635
0.1448936170212766 0.45119187935146177 0.45751766594755955
0.1451063829787234 0.4527106222571317 0.46663012338157855
0.1453191489361702 0.45491201308566387 0.4814541675122883
0.14553191489361703 0.45418761337624325 0.4944366495727018
0.14574468085106382 0.45232534815074804 0.5029506956582868
0.14595744680851064 0.45253235174809764 0.5030117752254892
0.14617021276595746 0.44970208015018215 0.4961872382110356
0.14638297872340425 0.4517160226917743 0.4828830679285451
0.14659574468085107 0.4488212239194161 0.4731187546292571
0.14680851063829786 0.447106319121314 0.46968894503305314
0.14702127659574468 0.4430980472550368 0.46946751343429405
0.14723404255319147 0.4463512716440751 0.4759119896663353
0.1474468085106383 0.4495452819188003 0.4838855083561167
0.14765957446808511 0.44825696838221996 0.4920996859372821
0.1478723404255319 0.44861068070365656 0.4955485457739279
0.14808510638297873 0.4473089785626525 0.4855423277976276
0.14829787234042552 0.4460601834254883 0.4610248562469805
0.14851063829787234 0.44618803797613643 0.45309787410679875
0.14872340425531916 0.4463158925267845 0.445170891966617
0.14893617021276595 0.44644374707743256 0.43724390982643635
0.14914893617021277 0.4465716016280806 0.4293169276862546
0.14936170212765956 0.4466994561787287 0.4213899455460739
0.14957446808510638 0.4468273107293768 0.41346296340589217
0.1497872340425532 0.4469551652800249 0.40553598126571044
0.15 0.4472318448827686 0.3940516433556208
0.15021276595744681 0.4475773695329832 0.3809217066474687
0.1504255319148936 0.44792289418319775 0.36779176993931834
0.15063829787234043 0.4491145885601631 0.36475937333529374
0.15085106382978725 0.45044860638361695 0.36342535551183985
0.15106382978723404 0.4517826242070706 0.36209133768838614
0.15127659574468086 0.4531166420305245 0.36075731986493226
0.15148936170212765 0.45445065985397815 0.3594233020414786
0.15170212765957447 0.4570549426740493 0.35489642825744105
0.15191489361702126 0.4601309729031294 0.3491838006891495
0.15212765957446808 0.46021317071821294 0.34108776503207994
0.1523404255319149 0.4597025735635774 0.3346305969298275
0.1525531914893617 0.4595675930398404 0.3369787059806252
0.15276595744680851 0.4577401806675592 0.3551996105403508
0.1529787234042553 0.4568098701605145 0.3779813834127935
0.15319148936170213 0.456916947367093 0.39554204529167325
0.15340425531914895 0.45702402457367153 0.413102707170553
0.15361702127659574 0.45713110178025007 0.4306633690494305
0.15382978723404256 0.45723817898682856 0.4482240309283102
0.15404255319148935 0.4573452561934071 0.46578469280718765
0.15425531914893617 0.45745233339998564 0.4833453546860674
0.154468085106383 0.45755941060656413 0.5009060165649472
0.15468085106382978 0.4576664878131427 0.5184666784438245
0.1548936170212766 0.4579750977428129 0.5263798233557583
0.1551063829787234 0.4587890890361413 0.5100999974891924
0.15531914893617021 0.4596030803294697 0.49382017162262454
0.155531914893617 0.4584895183004506 0.4774482303528419
0.15574468085106383 0.4571241872168392 0.4610642573495054
0.15595744680851065 0.45634657308666987 0.45089403591489197
0.15617021276595744 0.45574687656086876 0.44300327925754585
0.15638297872340426 0.4535676806769169 0.43864488748964225
0.15659574468085105 0.4494349510665262 0.4349432811702261
0.15680851063829787 0.44931043929417525 0.4319281477571538
0.1570212765957447 0.44964947785499376 0.43224536672806857
0.15723404255319148 0.4452773213362596 0.43719835876119145
0.1574468085106383 0.44289686737693484 0.44338753905543593
0.1576595744680851 0.4414365197451639 0.44906399672987873
0.15787234042553192 0.4426062107455585 0.45327488433129937
0.15808510638297874 0.4437759017459531 0.45748577193271994
0.15829787234042553 0.44494559274634754 0.46169665953414
0.15851063829787235 0.44586406317173094 0.4667181095046409
0.15872340425531914 0.4441009137668431 0.4806885277232338
0.15893617021276596 0.4450904844336626 0.49330814513222215
0.15914893617021275 0.4460185637518319 0.5007327796775769
0.15936170212765957 0.4460185637518319 0.49986990071554493
0.1595744680851064 0.4465860345231597 0.49496512071884946
0.15978723404255318 0.44946603395926216 0.49544512062486645
0.16 0.45188080117244755 0.4968031499967889
0.1602127659574468 0.4518835878743565 0.5026868588177822
0.16042553191489362 0.4524037084708606 0.5026868588177822
0.16063829787234044 0.4523515863555793 0.5020540408340687
0.16085106382978723 0.44885163025414093 0.4965269822632849
0.16106382978723405 0.44818667567717313 0.48788257276270297
0.16127659574468084 0.4485438924783318 0.4742464044163367
0.16148936170212766 0.4485256152853339 0.4593272527182868
0.16170212765957448 0.4476962307724658 0.43638252817324574
0.16191489361702127 0.4469572501213498 0.4020901362978001
0.1621276595744681 0.4467421931249848 0.4023051932941651
0.16234042553191488 0.4465271361286199 0.40252025029053
0.1625531914893617 0.4463120791322549 0.402735307286895
0.1627659574468085 0.44609702213589 0.4029503642832599
0.16297872340425532 0.44665782385937947 0.40430734288241327
0.16319148936170214 0.44699560332193444 0.412079821573545
0.16340425531914893 0.4462060915661791 0.42580646208912487
0.16361702127659575 0.4460185637518319 0.4418518804478075
0.16382978723404254 0.4451636008977734 0.46026680907480694
0.16404255319148936 0.4476456287544535 0.47533775654020644
0.16425531914893618 0.4457317362643837 0.4882552489178659
0.16446808510638297 0.4434580279702459 0.4978269520914183
0.1646808510638298 0.4406557067585599 0.4992998022492995
0.16489361702127658 0.43925513384371345 0.49299530103391975
0.1651063829787234 0.43754563029682236 0.483877948783834
0.16531914893617022 0.43596391739956886 0.4645109647468713
0.16553191489361702 0.43619729565242876 0.4486374720712526
0.16574468085106384 0.4378700346929347 0.43748587846788
0.16595744680851063 0.4399002971245794 0.41829062914502224
0.16617021276595745 0.4430415388306126 0.3955338495828778
0.16638297872340424 0.44466687074155 0.38864748486763817
0.16659574468085106 0.45037169951024025 0.38451339034615456
0.16680851063829788 0.451536822491597 0.39715198540054547
0.16702127659574467 0.4518442034475845 0.4173184389702277
0.1672340425531915 0.4516698958306111 0.44171015086314963
0.16744680851063828 0.45233866366719916 0.46453533121846047
0.1676595744680851 0.4503610791743632 0.48111906741916616
0.16787234042553192 0.44992672203224227 0.4860126579627517
0.16808510638297872 0.44894968246213973 0.4884547273428424
0.16829787234042554 0.4496385455515587 0.4917098025168473
0.16851063829787233 0.4515237937643129 0.4909623839765511
0.16872340425531915 0.4504151936364687 0.49389379177180764
0.16893617021276597 0.44992672203224227 0.49744121607149416
0.16914893617021276 0.4506586849723466 0.4999975497875823
0.16936170212765958 0.45004580981143144 0.5067384422139708
0.16957446808510637 0.45087198287807734 0.5066267958224601
0.1697872340425532 0.4509037616023448 0.5056513558540416
0.17 0.4509037616023448 0.4900959130108363
0.1702127659574468 0.455690039436996 0.47171835262208467
0.17042553191489362 0.45373715095777317 0.4448622690382193
0.17063829787234042 0.4533179076179399 0.40006202056613993
0.17085106382978724 0.45307980156046895 0.35190748819304146
0.17106382978723403 0.4545268578127223 0.3064259712772369
0.17127659574468085 0.4557328225458304 0.2737334905773679
0.17148936170212767 0.4557889594528579 0.24627775030406723
0.17170212765957446 0.4563722731816284 0.2544751578123586
0.17191489361702128 0.45618606367130665 0.26821017267966585
0.17212765957446807 0.45498959777820114 0.2924468064793802
0.1723404255319149 0.4560246487904152 0.3223866328132028
0.1725531914893617 0.457743038593063 0.3614883073718681
0.1727659574468085 0.4574593197138306 0.401676063425282
0.17297872340425532 0.45676599902296044 0.4410589146660078
0.17319148936170212 0.45676599902296044 0.4745192310992978
0.17340425531914894 0.4573186620506247 0.5028248805279528
0.17361702127659576 0.45953629557462644 0.5253893406326666
0.17382978723404255 0.4592525570747479 0.5443478873199448
0.17404255319148937 0.4612301279853109 0.5569745513530883
0.17425531914893616 0.4568320306212804 0.5564504478127524
0.17446808510638298 0.45699324451013185 0.550175364399883
0.17468085106382977 0.45726163770078593 0.5378697751985076
0.1748936170212766 0.45360171058431303 0.5290225665538079
0.1751063829787234 0.4553115548156616 0.5221831896284136
0.1753191489361702 0.4532683449980973 0.5202735710796287
0.17553191489361702 0.4526417558688701 0.5210345257760512
0.17574468085106382 0.45375118187057906 0.5292906808019924
0.17595744680851064 0.45376947027671877 0.5279590675685817
0.17617021276595746 0.4510470928325811 0.520651006687235
0.17638297872340425 0.45294632802804974 0.5082836343818988
0.17659574468085107 0.45461519050731214 0.49545192064047316
0.17680851063829786 0.45337999123502704 0.4848311008965299
0.17702127659574468 0.45318044120374945 0.4792286709488155
0.1772340425531915 0.4559888358471801 0.4743471256844298
0.1774468085106383 0.4551754863806123 0.46542310850296403
0.1776595744680851 0.45566849967766365 0.4533263184747784
0.1778723404255319 0.454830089802119 0.44037436536358227
0.17808510638297873 0.455646201203451 0.4250724580314568
0.17829787234042552 0.4538607902000084 0.4197162250211293
0.17851063829787234 0.45223827643491243 0.41963849535906195
0.17872340425531916 0.4548069683310442 0.42062048648087563
0.17893617021276595 0.4514910158065887 0.42745996423079413
0.17914893617021277 0.4512945412701829 0.43390326404250906
0.17936170212765956 0.44894968246213973 0.4358228980336163
0.17957446808510638 0.4483387401702658 0.4406460163585071
0.1797872340425532 0.44869458488013125 0.44427623143570383
0.18 0.44977517751782436 0.4475180093487835
0.1802127659574468 0.450863562891589 0.45172000632942444
0.1804255319148936 0.44767407605877246 0.45029993057382317
0.18063829787234043 0.44387805108068 0.45518478694464876
0.18085106382978725 0.4427931891732489 0.4594143018374375
0.18106382978723404 0.44171476352934835 0.4675375648642497
0.18127659574468086 0.44215013959653243 0.4755284214804641
0.18148936170212765 0.4412503523532907 0.4802149487054226
0.18170212765957447 0.4408771753732188 0.4845400429574365
0.18191489361702126 0.44194414951522726 0.486077186126038
0.18212765957446808 0.44211040547142155 0.48516656961877924
0.1823404255319149 0.44317436747836 0.48088775974659953
0.1825531914893617 0.44457107806776364 0.4735686344281974
0.1827659574468085 0.4429210892910661 0.4673056899152419
0.1829787234042553 0.4450415241817294 0.46049835566608105
0.18319148936170213 0.44553788846315484 0.45623825675603796
0.18340425531914895 0.44480831418763267 0.4538348803126526
0.18361702127659574 0.44263341241248494 0.4538348803126526
0.18382978723404256 0.444589812848733 0.44970253468380034
0.18404255319148935 0.447852625868834 0.4498867163578412
0.18425531914893617 0.4460185637518319 0.4479726428920372
0.184468085106383 0.4460185637518319 0.4483037337704429
0.18468085106382978 0.44629724986302105 0.44658248869797235
0.1848936170212766 0.4477791383552309 0.4362434096077701
0.1851063829787234 0.4474390709346294 0.43029582628547774
0.1853191489361702 0.4454031672252821 0.423147036234034
0.185531914893617 0.44576064591065984 0.41701992628451207
0.18574468085106383 0.4460185637518319 0.4157303370786516
0.18595744680851065 0.4450835804125045 0.4157303370786516
0.18617021276595744 0.4460185637518319 0.4179006522527616
0.18638297872340426 0.4460185637518319 0.4193081129507152
0.18659574468085105 0.4460185637518319 0.41207204428230454
0.18680851063829787 0.44572488154271106 0.408010013460571
0.1870212765957447 0.4450415241817294 0.4043395506263287
0.18723404255319148 0.4455554492114534 0.3999960829783192
0.1874468085106383 0.4460185637518319 0.39689932843575115
0.1876595744680851 0.4511532982756079 0.39325541166301353
0.18787234042553191 0.45032637660004815 0.3965004943003594
0.18808510638297873 0.44896989507408314 0.40290754699565745
0.18829787234042553 0.45099305570800713 0.4161820031991465
0.18851063829787235 0.45188080117244755 0.4329821012547628
0.18872340425531914 0.452815184079416 0.4474478986073772
0.18893617021276596 0.4535398298343982 0.4614303292002695
0.18914893617021278 0.45188080117244755 0.47179709105385104
0.18936170212765957 0.45128615898315094 0.4765190352335026
0.1895744680851064 0.45291786834867054 0.48131204348776624
0.18978723404255318 0.45304430942786467 0.4847272091853063
0.19 0.4528578407425501 0.490622162317268
0.1902127659574468 0.45202852151625905 0.4983925423425151
0.19042553191489361 0.4544227941732907 0.507969632970642
0.19063829787234043 0.45676599902296044 0.5200284465068391
0.19085106382978723 0.4563423422275797 0.5269831220910058
0.19106382978723405 0.4563415609606261 0.5314054966870588
0.19127659574468084 0.45676599902296044 0.533952125061065
0.19148936170212766 0.45595552855388854 0.5315207136538491
0.19170212765957448 0.45673007663711573 0.5300798891664994
0.19191489361702127 0.45941071981491166 0.5107388670086682
0.1921276595744681 0.45699104142381486 0.48991960943816415
0.19234042553191488 0.457743038593063 0.46700534477986533
0.1925531914893617 0.457743038593063 0.44809048291674575
0.19276595744680852 0.4571414534303526 0.4341404747041126
0.19297872340425531 0.45676599902296044 0.4245841349893872
0.19319148936170213 0.45676599902296044 0.41747438918155616
0.19340425531914893 0.45774302619038404 0.4147532851058701
0.19361702127659575 0.4557889594528579 0.4128240419686131
0.19382978723404254 0.4556597057371207 0.41364700422270934
0.19404255319148936 0.45434405426573177 0.4132670839853674
0.19425531914893618 0.4521603126523103 0.4154508255987888
0.19446808510638297 0.4513674931200465 0.41670737664875435
0.1946808510638298 0.45188080117244755 0.41670737664875435
0.19489361702127658 0.4531462307509606 0.41480923228098465
0.1951063829787234 0.45458534969966796 0.41452672732546186
0.19531914893617022 0.4539428424647335 0.41822960718063584
0.19553191489361701 0.4557734405031587 0.4197083306327084
0.19574468085106383 0.4539564656535489 0.42879660751267423
0.19595744680851063 0.45481191988275516 0.4325341972073868
0.19617021276595745 0.45445870863052645 0.4387206468164072
0.19638297872340427 0.45242457873563546 0.44543794766988604
0.19659574468085106 0.45207141931151695 0.4491403006012092
0.19680851063829788 0.45350646721786375 0.44992672203224227
0.19702127659574467 0.4519433436769034 0.4467741609726603
0.1972340425531915 0.45285545878085437 0.4450415241817294
0.19744680851063828 0.4552196942498411 0.4388098614643815
0.1976595744680851 0.45650834636897375 0.4355287811346901
0.19787234042553192 0.4544389789776094 0.43759814852605444
0.19808510638297872 0.4554941919254193 0.44069121461016114
0.19829787234042554 0.45495438027186763 0.441133365901319
0.19851063829787233 0.4556875213353568 0.4437601702591235
0.19872340425531915 0.4548677021240838 0.44406448461162684
0.19893617021276597 0.4519333587776012 0.44406448461162684
0.19914893617021276 0.4507472619161823 0.4453869470772696
0.19936170212765958 0.4495938116888776 0.446732639009125
0.19957446808510637 0.448440361461573 0.4480783309409803
0.1997872340425532 0.4472869112342683 0.4494240228728357
0.2 0.4461334610069636 0.4507697148046912
0.2002127659574468 0.44663493272561317 0.45182831506301663
0.20042553191489362 0.44731949186892206 0.45285515377797997
0.20063829787234042 0.44788936934867873 0.4538348803126526
0.20085106382978724 0.44607437166176545 0.4538348803126526
0.20106382978723403 0.4486492749326189 0.4555886877665107
0.20127659574468085 0.4462770239055647 0.4548980732673327
0.20148936170212767 0.4488988535981091 0.4562520648058938
0.20170212765957446 0.4488521826727274 0.4540796506241732
0.20191489361702128 0.4480886603387645 0.45234487095935666
0.20212765957446807 0.44834736603054476 0.453379693726478
0.2023404255319149 0.44860607172232514 0.4544145164935995
0.2025531914893617 0.44886477741410546 0.45544933926072095
0.2027659574468085 0.4491234831058858 0.45648416202784226
0.20297872340425532 0.44938218879766617 0.4575189847949637
0.20319148936170212 0.4496408944894465 0.4585538075620851
0.20340425531914894 0.4498996001812268 0.45958863032920655
0.20361702127659576 0.449193922053544 0.4607963177013156
0.20382978723404255 0.44837530049169605 0.4620242500440876
0.20404255319148937 0.44836961640701833 0.4638191569885194
0.20425531914893616 0.4494135075728375 0.46671891793062814
0.20446808510638298 0.4520619131370449 0.4709409036621252
0.20468085106382977 0.4570652956458187 0.4733756717147044
0.2048936170212766 0.4528578407425501 0.47344831995975856
0.2051063829787234 0.4528578407425501 0.47494319821241965
0.2053191489361702 0.45197952245421236 0.47181647770155893
0.20553191489361702 0.45088005908106243 0.46727640908126533
0.20574468085106382 0.4506221914558613 0.4646977328292538
0.20595744680851064 0.4503643238306601 0.46211905657724195
0.20617021276595746 0.45010645620545897 0.4595403803252301
0.20638297872340425 0.44992672203224227 0.4581115127007062
0.20659574468085107 0.44992672203224227 0.4593276056887006
0.20680851063829786 0.4492521600001618 0.4583479936691072
0.20702127659574468 0.45100638275748384 0.4550007715326042
0.2072340425531915 0.44977374481947985 0.4538348803126526
0.2074468085106383 0.44894968246213973 0.4528773565790808
0.2076595744680851 0.44854305055069477 0.4500509575709454
0.2078723404255319 0.44702512437249453 0.44298116925950776
0.20808510638297872 0.4475244773864291 0.4411834984093435
0.20829787234042554 0.4480238304003636 0.43938582755917927
0.20851063829787234 0.4485231834142981 0.43758815670901524
0.20872340425531916 0.4490225364282326 0.435790485858851
0.20893617021276595 0.4495218894421671 0.4339928150086869
0.20914893617021277 0.45002124245610164 0.43219514415852267
0.20936170212765956 0.4505205954700361 0.43039747330835865
0.20957446808510638 0.45101994848397065 0.4285998024581944
0.2097872340425532 0.45151930149790515 0.42680213160803016
0.21 0.451768497137084 0.4257253408504047
0.2102127659574468 0.4513616926390347 0.4265389498465031
0.2104255319148936 0.45095488814098544 0.42735255884260137
0.21063829787234042 0.4499999952748429 0.43106987722989043
0.21085106382978724 0.45179187422044353 0.4413705044399965
0.21106382978723404 0.4487958812236642 0.45018009236994394
0.21127659574468086 0.44769654581131985 0.4592508727494163
0.21148936170212765 0.44659353302129035 0.4647552145525955
0.21170212765957447 0.44549412215000567 0.46465415921733105
0.2119148936170213 0.44633892142478454 0.466856752396939
0.21212765957446808 0.44622471084508963 0.47213878915515795
0.2123404255319149 0.44512369216450354 0.4814295160006603
0.2125531914893617 0.4450850665921317 0.4975212999636039
0.2127659574468085 0.4460185637518319 0.5162776244132944
0.2129787234042553 0.4460185637518319 0.5436206489419313
0.21319148936170212 0.4467553970934907 0.5661148644010466
0.21340425531914894 0.4473352405269175 0.5804894511985832
0.21361702127659574 0.4460185637518319 0.5835859062884828
0.21382978723404256 0.4469743541142344 0.5792995389040518
0.21404255319148935 0.44805912807449144 0.565822787581528
0.21425531914893617 0.44699560332193444 0.5475755763728787
0.214468085106383 0.44903288181391116 0.5160461134086193
0.21468085106382978 0.44912400953394505 0.4783257525859833
0.2148936170212766 0.45359350638390555 0.4287466872800027
0.2151063829787234 0.4560944558671415 0.3836696822470218
0.2153191489361702 0.46030503071046097 0.3463824216343389
0.21553191489361703 0.46352999349144774 0.3265944330389229
0.21574468085106382 0.4655593551538837 0.32650620041088585
0.21595744680851064 0.46494766234755647 0.3345595004793559
0.21617021276595744 0.4630881695312067 0.3432371336223215
0.21638297872340426 0.46262823644357587 0.34609374008945903
0.21659574468085105 0.460297464128633 0.3393682106565387
0.21680851063829787 0.45700753809290406 0.326808852908988
0.2170212765957447 0.4547662432327234 0.304182949406266
0.21723404255319148 0.45366281720849616 0.27625317259226917
0.2174468085106383 0.4528578407425501 0.24837085560975564
0.2176595744680851 0.453267752420057 0.2286721252319796
0.2178723404255319 0.45330029450058396 0.2250415633127174
0.21808510638297873 0.4528578407425501 0.24192096214976075
0.21829787234042553 0.4544920627637432 0.26792990951334744
0.21851063829787234 0.4563755731916425 0.2984972885680341
0.21872340425531914 0.4574717423782504 0.32785364738982153
0.21893617021276596 0.457743038593063 0.3521042859282482
0.21914893617021278 0.45678094700787336 0.37920617336203233
0.21936170212765957 0.45588852229590715 0.4096251777100579
0.2195744680851064 0.45676599902296044 0.4431216602316847
0.21978723404255318 0.45712536563192263 0.48647011573273724
0.22 0.4567610290499519 0.5218211349894231
0.2202127659574468 0.4545434426479649 0.5565430354148688
0.2204255319148936 0.4545882484305755 0.5829922009209346
0.22063829787234043 0.456304988655305 0.60336652352848
0.22085106382978723 0.45756145734938175 0.6145707990002325
0.22106382978723405 0.45593210726509914 0.6250781055895022
0.22127659574468084 0.4630965980999385 0.6381965567102595
0.22148936170212766 0.45525983653376556 0.6513330720378857
0.22170212765957448 0.458560036142216 0.6640106783801442
0.22191489361702127 0.4582830621182552 0.6640398955457156
0.2221276595744681 0.45481191988275516 0.655727967411015
0.22234042553191488 0.45481191988275516 0.6391510828314724
0.2225531914893617 0.45345509113660626 0.6147768867234797
0.22276595744680852 0.4504235464019942 0.5871099147707114
0.2229787234042553 0.4471060791607154 0.5555378891414352
0.22319148936170213 0.44699560332193444 0.5340521531165467
0.22340425531914893 0.44677983345459654 0.5115045156170333
0.22361702127659575 0.4467041728417443 0.491973983703014
0.22382978723404254 0.44703796818154856 0.4737145905916163
0.22404255319148936 0.4460185637518319 0.4536723649869553
0.22425531914893618 0.4460185637518319 0.4366080697828912
0.22446808510638297 0.44687121342730607 0.4247905525857563
0.2246808510638298 0.4469922047808254 0.4176827169483024
0.22489361702127658 0.4450415241817294 0.41697323733953184
0.2251063829787234 0.44607717689998916 0.4181436294298295
0.22531914893617022 0.4478930650171609 0.4163551708337614
0.225531914893617 0.4460185637518319 0.4161431737121615
0.22574468085106383 0.4454937493149557 0.41828181995938296
0.22595744680851063 0.44373136756842874 0.4209486519723626
0.22617021276595745 0.4438694911888528 0.42472075908858165
0.22638297872340427 0.44320614156036203 0.43236747718979507
0.22659574468085106 0.4450262201163565 0.44010276210241134
0.22680851063829788 0.44418431137869335 0.4456406580170621
0.22702127659574467 0.4452918256099817 0.4514285306017564
0.2272340425531915 0.44640065818986446 0.456553148328923
0.22744680851063828 0.4485266619175082 0.45825339145825417
0.2276595744680851 0.4486441349838371 0.46192654578417874
0.22787234042553192 0.4464302841398893 0.46052055850938295
0.22808510638297871 0.4468959151014677 0.45969711773326827
0.22829787234042553 0.44699560332193444 0.46150617829067564
0.22851063829787233 0.4439754590204192 0.45978614332447587
0.22872340425531915 0.44297733204798967 0.46217135281941424
0.22893617021276597 0.44608455960907906 0.4654933592966366
0.22914893617021276 0.4444939595299937 0.4709492336410243
0.22936170212765958 0.4455430405471284 0.47833884904730395
0.22957446808510637 0.44658985820449487 0.48347716608617713
0.2297872340425532 0.44630148634116706 0.48648838051747045
0.23 0.44765743442264166 0.4796793076774972
0.2302127659574468 0.4479726428920372 0.4782608695652173
0.23042553191489362 0.4479726428920372 0.46443780849478977
0.23063829787234041 0.4454490784153004 0.44889752307859915
0.23085106382978723 0.4450415241817294 0.4405982742767528
0.23106382978723405 0.44887179602206473 0.4238776710097911
0.23127659574468085 0.4480650020945421 0.4157303370786516
0.23148936170212767 0.45044492767606564 0.41560078566769576
0.23170212765957446 0.4533543335899998 0.41571439095385465
0.23191489361702128 0.45137158630216895 0.4207090998691295
0.23212765957446807 0.4554415348042421 0.4215230895695441
0.2323404255319149 0.4576707470741656 0.4164176585406711
0.2325531914893617 0.45963320561546966 0.41066405489437596
0.2327659574468085 0.4553976131585458 0.39866320959975865
0.23297872340425532 0.4538348803126526 0.385198237265791
0.23319148936170211 0.4538348803126526 0.371034412737425
0.23340425531914893 0.45324309303890664 0.3576162971709755
0.23361702127659575 0.4546075664207667 0.35688870016389435
0.23382978723404255 0.4568482380955953 0.36321691751101653
0.23404255319148937 0.4573621127771665 0.3758053902167297
0.23425531914893616 0.45676599902296044 0.39488220224686854
0.23446808510638298 0.45676599902296044 0.4102103809681442
0.2346808510638298 0.4562830009625607 0.43022027889064485
0.2348936170212766 0.4557889594528579 0.4523485837748049
0.2351063829787234 0.45535312481312734 0.47218789156331886
0.2353191489361702 0.4523348375916005 0.4842610404494263
0.23553191489361702 0.45188080117244755 0.48412821883826673
0.23574468085106381 0.45188080117244755 0.4818341596711965
0.23595744680851063 0.45105940538717276 0.47462082199332717
0.23617021276595745 0.44991257191354744 0.46552162150403087
0.23638297872340425 0.4479024696167461 0.4601613487125608
0.23659574468085107 0.44893382294653017 0.4558048189684673
0.23680851063829786 0.45123027329605603 0.4523374184414369
0.23702127659574468 0.4472996886740545 0.4491929507438358
0.2372340425531915 0.4477994284128254 0.4497535075530305
0.2374468085106383 0.4465623865206703 0.44499082473245843
0.2376595744680851 0.446657041430799 0.442448967362557
0.2378723404255319 0.4463578482551507 0.4357328548035837
0.23808510638297872 0.4460185637518319 0.4256348534599514
0.23829787234042554 0.4447643735000331 0.41504447255857657
0.23851063829787233 0.44406448461162684 0.4096341165081614
0.23872340425531915 0.44340140334550726 0.41154338515241146
0.23893617021276595 0.4468327953803488 0.4262824795881125
0.23914893617021277 0.44642084173183955 0.4536629480331543
0.23936170212765956 0.44660711500367933 0.4582257396036498
0.23957446808510638 0.44734621111607004 0.456377999322673
0.2397872340425532 0.4477069279598883 0.45335048775593645
0.24 0.4459872091448991 0.44368822932843305
0.2402127659574468 0.4451479917449696 0.4318076719541945
0.2404255319148936 0.44699560332193444 0.421933932632433
0.24063829787234042 0.44677882924899065 0.4164890463339549
0.24085106382978724 0.4451772987793128 0.42284116326453663
0.24106382978723404 0.4458459478259205 0.43160094617194333
0.24127659574468086 0.44517923407399335 0.46520201009896905
0.24148936170212765 0.44584928869130425 0.4682172558768683
0.24170212765957447 0.44651934330861526 0.47123250165476793
0.2419148936170213 0.44699560332193444 0.4722846240333569
0.24212765957446808 0.44699560332193444 0.46851227164822984
0.2423404255319149 0.4478416382385936 0.4498777056976939
0.2425531914893617 0.44727393493036643 0.42882919631849814
0.2427659574468085 0.44699560332193444 0.4079705171881388
0.2429787234042553 0.4479818923083718 0.39221664148184643
0.24319148936170212 0.4502783782059415 0.3883652410418354
0.24340425531914894 0.4532886124955465 0.39498775647896633
0.24361702127659574 0.45619184023386805 0.4109205451841962
0.24382978723404256 0.4582106557049959 0.43370881406328793
0.24404255319148935 0.458176899938423 0.4626384549600862
0.24425531914893617 0.457743038593063 0.48725853600866786
0.244468085106383 0.4569850225870337 0.5090538228074452
0.24468085106382978 0.45676599902296044 0.5276558485288957
0.2448936170212766 0.457743038593063 0.5407095329746447
0.2451063829787234 0.45739628175576724 0.5388373229115779
0.2453191489361702 0.45603235480605675 0.5393241136179756
0.24553191489361703 0.45676599902296044 0.5411575739812617
0.24574468085106382 0.45676599902296044 0.5436293925512284
0.24595744680851064 0.45676599902296044 0.549865937211508
0.24617021276595744 0.45676599902296044 0.5563117571079341
0.24638297872340426 0.45676599902296044 0.5561394435778372
0.24659574468085105 0.45585383919318295 0.5494530769694433
0.24680851063829787 0.4534677625119881 0.5401381011067119
0.2470212765957447 0.45188080117244755 0.5327117170143338
0.24723404255319148 0.4493236877477944 0.5185369563697155
0.2474468085106383 0.4501927274002464 0.4998767756389552
0.2476595744680851 0.4483771908634122 0.48658348911764393
0.2478723404255319 0.4489365241729572 0.46967804606121427
0.24808510638297873 0.4471118428602266 0.4565806432101415
0.24829787234042552 0.4482158572338794 0.44699978552466835
0.24851063829787234 0.4493221375847614 0.44257466412114005
0.24872340425531914 0.44845905392464197 0.4386886582236162
0.24893617021276596 0.44818043934988105 0.4366327896069354
0.24914893617021278 0.44894968246213973 0.43488184019084153
0.24936170212765957 0.4525436475491941 0.43357529589319
0.2495744680851064 0.4513014500289313 0.43585047962421963
0.24978723404255318 0.4511875816314657 0.43407305862285017
0.25 0.45188080117244755 0.44011652780700855
0.2502127659574468 0.45343937901468406 0.43451526690922276
0.25042553191489364 0.45257746341551486 0.43611226046180923
0.25063829787234043 0.452471213095793 0.44410636642446616
0.2508510638297872 0.45356904654980773 0.44583902547026416
0.251063829787234 0.45295548828168264 0.44680030824366945
0.25127659574468086 0.4521065569792338 0.44910018633333054
0.25148936170212766 0.4549888412074076 0.45108068292699727
0.25170212765957445 0.4560767970010442 0.44900242569058463
0.2519148936170213 0.4563828805236654 0.4401948129749462
0.2521276595744681 0.45527777527279945 0.43364691836049996
0.2523404255319149 0.45608560221071454 0.42720172481029234
0.2525531914893617 0.4552332635864113 0.42013615875175586
0.2527659574468085 0.45839353283466294 0.4159752460750285
0.2529787234042553 0.45582702932835245 0.4107309296016551
0.2531914893617021 0.45673791610906667 0.40799826925951216
0.25340425531914895 0.45505270265002234 0.4109254001505611
0.25361702127659574 0.4575481206684657 0.4129916863458251
0.25382978723404254 0.45676599902296044 0.4202781804616599
0.2540425531914894 0.4558914039921704 0.42637532781046755
0.2542553191489362 0.45371926307708305 0.429640125531227
0.25446808510638297 0.4528578407425501 0.4333839188077167
0.25468085106382976 0.45211644131958245 0.4335526894876332
0.2548936170212766 0.4501830803483697 0.43416590975253716
0.2551063829787234 0.44699565041504385 0.43331706503820144
0.2553191489361702 0.4486877474592297 0.43220904226894075
0.25553191489361704 0.44752440012004674 0.43268496219557373
0.25574468085106383 0.44894968246213973 0.43782654590120795
0.2559574468085106 0.4484262690320578 0.44329680691170814
0.2561702127659574 0.4486274107180672 0.4532210098381627
0.25638297872340426 0.44819878154010856 0.4605205036331164
0.25659574468085106 0.4457493285214811 0.4675800351949562
0.25680851063829785 0.4434786034489004 0.47103043416712304
0.2570212765957447 0.4438818321637408 0.47062720545228265
0.2572340425531915 0.4432351127932558 0.46878580936765485
0.2574468085106383 0.4413004973168079 0.4684904738641915
0.25765957446808513 0.44404356180327115 0.46859508790597004
0.2578723404255319 0.4429877762536822 0.4730766653511787
0.2580851063829787 0.4418888454387254 0.4715523531678773
0.2582978723404255 0.4414880287501553 0.4760390765525823
0.25851063829787235 0.4416254235861717 0.475828884339365
0.25872340425531914 0.441133365901319 0.4725046029504169
0.25893617021276594 0.44188208513751887 0.46393440021250015
0.2591489361702128 0.4412296224025026 0.4528433661842833
0.2593617021276596 0.44406448461162684 0.4398055907261848
0.25957446808510637 0.4445750939929295 0.42868389935918166
0.2597872340425532 0.4475925121909267 0.41912326275668405
0.26 0.45022426864984394 0.4144557508909475
0.2602127659574468 0.45188080117244755 0.41168920474556064
0.2604255319148936 0.45598278780379586 0.4122124681052549
0.26063829787234044 0.45204684708770826 0.41768166823007646
0.26085106382978723 0.45001878042639554 0.4275112675484526
0.261063829787234 0.44992672203224227 0.4388852895272574
0.2612765957446809 0.44892098608602543 0.4499841147844708
0.26148936170212767 0.4479846495338514 0.4518567878888191
0.26170212765957446 0.4469835304615538 0.45580103231323854
0.26191489361702125 0.44594362812474064 0.4568409346500517
0.2621276595744681 0.4432293042575834 0.4597680473412979
0.2623404255319149 0.44522604293384066 0.4608586760554821
0.2625531914893617 0.44418742785538706 0.46043043960917673
0.26276595744680853 0.43888126991434134 0.4522177941199375
0.2629787234042553 0.4376985038986287 0.4327358209610073
0.2631914893617021 0.4371776846596601 0.4027332135917684
0.26340425531914896 0.43567151070757537 0.35510337832476113
0.26361702127659575 0.4362836380787997 0.3114192720599095
0.26382978723404255 0.4381523591387578 0.2758847358721875
0.26404255319148934 0.44180875843304035 0.24948676260758457
0.2642553191489362 0.44523503692738664 0.24123201744251094
0.264468085106383 0.44932456672167337 0.2520806641277494
0.26468085106382977 0.45310614828769635 0.28020792247066484
0.2648936170212766 0.4569921219386222 0.320889190467893
0.2651063829787234 0.46015385262834496 0.36975765393931415
0.2653191489361702 0.46367276951965963 0.4408240369027466
0.265531914893617 0.46415317782639176 0.49188244953747645
0.26574468085106384 0.46353523157019344 0.534305929917181
0.26595744680851063 0.4618754342702031 0.5658420786169964
0.2661702127659574 0.4609024834649337 0.5950594735105715
0.2663829787234043 0.46156888383409633 0.6170935184615834
0.26659574468085107 0.4606944689997246 0.6284609113084164
0.26680851063829786 0.4606741573033708 0.6287249633610161
0.2670212765957447 0.4606741573033708 0.6216625667973037
0.2672340425531915 0.456387956221145 0.606358637136378
0.2674468085106383 0.45749132463591574 0.58529142687918
0.2676595744680851 0.455835569717275 0.5611887567295163
0.26787234042553193 0.4524777605958675 0.5360135610148554
0.2680851063829787 0.4523266030443087 0.5120922327883362
0.2682978723404255 0.4534580581392035 0.4923862139930624
0.26851063829787236 0.44957908419212184 0.4771020767648159
0.26872340425531915 0.4470239062564124 0.468584816979118
0.26893617021276595 0.4478938500101222 0.46489748711144113
0.26914893617021274 0.44953531727437235 0.4669263271572841
0.2693617021276596 0.4505470069590516 0.46627286444047017
0.2695744680851064 0.4517766214046313 0.46686864485731344
0.26978723404255317 0.4520106212572445 0.4693376933494971
0.27 0.44992672203224227 0.47142159257449934
0.2702127659574468 0.450481420651594 0.47031219533579594
0.2704255319148936 0.45261908719259764 0.4660368622537887
0.27063829787234045 0.4524865515635676 0.4613580614318702
0.27085106382978724 0.4514088221482235 0.45619477543377246
0.27106382978723403 0.45188080117244755 0.45155238489405586
0.2712765957446808 0.45188080117244755 0.44868043256456785
0.2714893617021277 0.4508766773644998 0.45048295241190633
0.27170212765957447 0.4501396217503616 0.4530707404606694
0.27191489361702126 0.4506951051106482 0.453626223820956
0.2721276595744681 0.4523775870821179 0.4508872293531066
0.2723404255319149 0.45413420854807884 0.44677532995033215
0.2725531914893617 0.45481191988275516 0.4416203254405306
0.2727659574468085 0.4548066990482837 0.4235640564210439
0.27297872340425533 0.4543535724039378 0.42507447856886355
0.2731914893617021 0.45390044575959204 0.4265849007166828
0.2734042553191489 0.45344731911524633 0.4280953228645021
0.27361702127659576 0.45299419247090045 0.42960574501232174
0.27382978723404255 0.45254106582655473 0.431116167160141
0.27404255319148935 0.45208793918220896 0.4326265893079602
0.2742553191489362 0.4520986897567007 0.43375282650900465
0.274468085106383 0.452500054328648 0.43455555565289916
0.2746808510638298 0.4528578407425501 0.4356851352112712
0.27489361702127657 0.4528578407425501 0.4394982296983183
0.2751063829787234 0.4510054922104473 0.4401563263312165
0.2753191489361702 0.45072948678649655 0.4409590910854707
0.275531914893617 0.45188080117244755 0.4419103976845623
0.27574468085106385 0.45188366903028754 0.441127630185639
0.27595744680851064 0.45336522983491234 0.43816450857638933
0.27617021276595743 0.4524941073703805 0.4365548211497726
0.2763829787234042 0.45188080117244755 0.43624816805080613
0.2765957446808511 0.45188080117244755 0.43373402687941187
0.27680851063829787 0.45065515284878394 0.42988871312306864
0.27702127659574466 0.4505006674758175 0.42671001515925955
0.2772340425531915 0.45032122420919507 0.4231705832070785
0.2774468085106383 0.44992672203224227 0.4194331091420455
0.2776595744680851 0.44937760773461266 0.4176844162188569
0.27787234042553194 0.44962377752134514 0.4156621310412405
0.27808510638297873 0.44590555555644346 0.4163617640988687
0.2782978723404255 0.44597293665802146 0.41670737664875435
0.2785106382978723 0.44662269239835606 0.41492590569327026
0.27872340425531916 0.4517692452263036 0.41670737664875435
0.27893617021276595 0.4473565869501018 0.4160913207068189
0.27914893617021275 0.4460185637518319 0.4165025256642787
0.2793617021276596 0.44697935523323745 0.4210796825811702
0.2795744680851064 0.446138088155558 0.42073505933289057
0.2797872340425532 0.44429619065201403 0.42485583006706973
0.27999999999999997 0.44231992829105465 0.4369451102732125
0.2802127659574468 0.4420908237579992 0.44824678687995073
0.2804255319148936 0.4412571515820853 0.4631366250426685
0.2806382978723404 0.4420078442255385 0.4745038454194179
0.28085106382978725 0.4418150488068856 0.4861681557025327
0.28106382978723404 0.44441967790775033 0.49575800948574444
0.28127659574468084 0.4455243244083115 0.5036295810370699
0.2814893617021277 0.4448189216873225 0.5089943012272116
0.2817021276595745 0.4455072565401319 0.5133887192356132
0.28191489361702127 0.4460185637518319 0.5169628818846639
0.28212765957446806 0.44796693160587164 0.5163368563683904
0.2823404255319149 0.44699560332193444 0.5103752265506261
0.2825531914893617 0.4461890044739622 0.4999621884104062
0.2827659574468085 0.44148107412468873 0.4872697637194972
0.28297872340425534 0.4424367024321005 0.4746827108693545
0.28319148936170213 0.4404259302229496 0.4557544353541007
0.2834042553191489 0.441411383443464 0.44408039730200727
0.2836170212765957 0.44211040547142155 0.4322711724857061
0.28382978723404256 0.44309120186264334 0.432351280233753
0.28404255319148936 0.44522098706974356 0.43874063585505374
0.28425531914893615 0.4521954637281817 0.44868291031685775
0.284468085106383 0.450082493442863 0.4597631785722679
0.2846808510638298 0.44894968246213973 0.4716654711145189
0.2848936170212766 0.45077559780047666 0.47754015759885104
0.2851063829787234 0.44933431866307555 0.4811919882755251
0.2853191489361702 0.4503414041419458 0.4803484520849265
0.285531914893617 0.449529418779317 0.47739126508945134
0.2857446808510638 0.45127346400101603 0.4723721316655405
0.28595744680851065 0.45041489665494566 0.46311572074158336
0.28617021276595744 0.45017232441380495 0.4532181893806717
0.28638297872340424 0.4516393994305276 0.4455128950631461
0.2865957446808511 0.45188080117244755 0.4388990379578696
0.2868085106382979 0.45384151682476415 0.4332772302678293
0.28702127659574467 0.45544844128203144 0.42783672475944845
0.28723404255319146 0.45920973152813094 0.4301422375276219
0.2874468085106383 0.4570171506351962 0.43086066697582154
0.2876595744680851 0.4562739632249629 0.43962209837786353
0.2878723404255319 0.457372391304183 0.45268887884528064
0.28808510638297874 0.45556973074021617 0.46328592258150064
0.28829787234042553 0.4556548427831192 0.4672452009546116
0.2885106382978723 0.45482943512996643 0.4627158126796323
0.28872340425531917 0.45502988238764575 0.4558941490033982
0.28893617021276596 0.4560564151153295 0.44682093073924706
0.28914893617021276 0.4534696374167295 0.43650389737198525
0.28936170212765955 0.4523819179937939 0.42800631688640955
0.2895744680851064 0.45188080117244755 0.4226188535150414
0.2897872340425532 0.45188080117244755 0.4178258567619258
0.29 0.45188080117244755 0.4117559506413245
0.2902127659574468 0.45188080117244755 0.4145377659629847
0.2904255319148936 0.4547583096244565 0.413281710693032
0.2906382978723404 0.45365739982199277 0.4240773013685055
0.2908510638297872 0.4528578407425501 0.44088731599840486
0.29106382978723405 0.4524426565195386 0.4604778278808372
0.29127659574468084 0.45236951456260016 0.4753320741161254
0.29148936170212764 0.4511757756974557 0.48567749506244334
0.2917021276595745 0.4533405827696727 0.48695998839388754
0.2919148936170213 0.45239722313176806 0.47561350020509346
0.29212765957446807 0.45188080117244755 0.457521158274491
0.2923404255319149 0.45007556498094664 0.45218804747338054
0.2925531914893617 0.45148168538985545 0.4420689056986663
0.2927659574468085 0.4505779206571676 0.43689888341030214
0.2929787234042553 0.45188080117244755 0.447988943649009
0.29319148936170214 0.45188080117244755 0.4646649487719735
0.29340425531914893 0.45050424750197154 0.4824340219383066
0.2936170212765957 0.44992672203224227 0.4965843615480576
0.29382978723404257 0.44992672203224227 0.5116768459747039
0.29404255319148936 0.45299787276981524 0.5153883732291158
0.29425531914893616 0.45463049382196696 0.5139369647428101
0.29446808510638295 0.4538348803126526 0.5045237625674065
0.2946808510638298 0.4543430808913514 0.4920360774868236
0.2948936170212766 0.4559539602788062 0.4790469775381972
0.2951063829787234 0.45676599902296044 0.4650976104820538
0.29531914893617023 0.46007369401826465 0.4522179184044171
0.295531914893617 0.45970374633187705 0.4411399944999278
0.2957446808510638 0.4557889594528579 0.43119934860806647
0.29595744680851066 0.45339588298975714 0.4236456985637839
0.29617021276595745 0.45194295167383797 0.4152505015196723
0.29638297872340424 0.4538775889268492 0.4126710925257543
0.29659574468085104 0.45552546005064004 0.405751233637748
0.2968085106382979 0.45315143981267514 0.39677674381685013
0.2970212765957447 0.45063157120840563 0.391464816214372
0.29723404255319147 0.4502786706867819 0.39005416599496107
0.2974468085106383 0.4502100236084974 0.39338556180762935
0.2976595744680851 0.4491928074461265 0.3998409600705569
0.2978723404255319 0.44992672203224227 0.4099698383113363
0.29808510638297875 0.4499511855901098 0.4168296944380922
0.29829787234042554 0.45169526874583965 0.4255501102167408
0.29851063829787233 0.45009884000775735 0.43984248108495594
0.2987234042553191 0.4516682633346841 0.4533241550184107
0.298936170212766 0.4525808309058898 0.4681124848181586
0.29914893617021276 0.4504244328752747 0.47580907958197977
0.29936170212765956 0.44830820580048636 0.47920825998007505
0.2995744680851064 0.4479726428920372 0.47803396800619313
0.2997872340425532 0.44638028278437347 0.47569146988745126
0.3 0.443351052575344 0.4719953618842997
0.3002127659574468 0.44274352068311895 0.4679120921576069
0.30042553191489363 0.4430874450415241 0.4651252141930156
0.3006382978723404 0.44230036834303166 0.4622210854883036
0.3008510638297872 0.44211040547142155 0.4573166551263667
0.30106382978723406 0.4435207471888287 0.45394531558814627
0.30127659574468085 0.4427732779664373 0.4470474108391975
0.30148936170212765 0.44211040547142155 0.44577154397753704
0.3017021276595745 0.4415627271061868 0.4453525682262303
0.3019148936170213 0.441133365901319 0.44465838241330335
0.3021276595744681 0.439948264607313 0.4450415241817294
0.30234042553191487 0.440281568871068 0.4472460884016378
0.3025531914893617 0.441133365901319 0.4499182527637584
0.3027659574468085 0.441133365901319 0.45539242037646344
0.3029787234042553 0.4412601943883571 0.46563453180628867
0.30319148936170215 0.4419976164695228 0.4774332851049402
0.30340425531914894 0.43934401940379014 0.49306983947347705
0.30361702127659573 0.43914354665242294 0.5001906497294893
0.3038297872340425 0.439225031446829 0.5017098192476794
0.3040425531914894 0.4362108744717494 0.5017844064057929
0.30425531914893617 0.4352871693602678 0.5036318166287559
0.30446808510638296 0.43349047677815666 0.5153883732291158
0.3046808510638298 0.43711519794312925 0.5156083925846746
0.3048936170212766 0.43624816805080613 0.5173517173050995
0.3051063829787234 0.43624816805080613 0.5202735710796287
0.30531914893617024 0.4364047391311837 0.5183947181150973
0.30553191489361703 0.4372127102475642 0.5079867144378972
0.3057446808510638 0.43657959530309065 0.47949654193658575
0.3059574468085106 0.4377553449689559 0.45101772332043266
0.30617021276595746 0.4409182722462431 0.4225513778248477
0.30638297872340425 0.44346614117437 0.39645717416482595
0.30659574468085105 0.445574074312576 0.37114713158290025
0.3068085106382979 0.44941450629034757 0.34587038552207394
0.3070212765957447 0.4551565381115405 0.32822661667258346
0.3072340425531915 0.4549803302264487 0.31828478231317636
0.30744680851063827 0.4593019478840751 0.3187674613666926
0.3076595744680851 0.4636718649710644 0.33175360534053483
0.3078723404255319 0.46612226031524245 0.3479262146121095
0.3080851063829787 0.4692392018359341 0.36815287514030515
0.30829787234042555 0.47175218323326706 0.39505320119957227
0.30851063829787234 0.4705562913053827 0.4268272898221243
0.30872340425531913 0.4714475172186254 0.4534357472975945
0.308936170212766 0.467513434294089 0.4700245224247117
0.3091489361702128 0.4664702546460056 0.4815850633435076
0.30936170212765957 0.46393808020922955 0.48728245582625374
0.30957446808510636 0.4623645384836745 0.49299421538625954
0.3097872340425532 0.46120019314526783 0.5026126377501473
0.31 0.46109770155052343 0.5198211488159608
0.3102127659574468 0.461251617101503 0.5395900615882974
0.31042553191489364 0.4602999302972103 0.5576721108698592
0.31063829787234043 0.4587017893119602 0.5760928485339144
0.3108510638297872 0.4571233381615838 0.5896208083124661
0.311063829787234 0.4545339600227673 0.5935515388373229
0.31127659574468086 0.4520867857955196 0.584811066251657
0.31148936170212765 0.45188080117244755 0.5714163984419156
0.31170212765957445 0.4511108721959012 0.5442429915456973
0.3119148936170213 0.4483205259604284 0.5197761798354738
0.3121276595744681 0.45074236559674075 0.4958562453635414
0.3123404255319149 0.44793202881793476 0.47746774422439875
0.3125531914893617 0.4458377345212305 0.46407627460052464
0.3127659574468085 0.4443862359964846 0.45117837132508504
0.3129787234042553 0.44172327931499783 0.4438739962597625
0.3131914893617021 0.4438626559842695 0.4303507579877555
0.31340425531914895 0.44697179189777597 0.41761298194638147
0.31361702127659574 0.4450415241817294 0.4111118952336255
0.31382978723404253 0.4462853842626221 0.40521362532909017
0.3140425531914894 0.4503048212627817 0.40227262420623905
0.3142553191489362 0.45039216134570614 0.4000515430138355
0.31446808510638297 0.4512160566759139 0.3978313297432361
0.31468085106382976 0.4526474350114757 0.39563331756864606
0.3148936170212766 0.4528578407425501 0.39073919254554385
0.3151063829787234 0.45277359170487286 0.39453033816826494
0.3153191489361702 0.4513524236860682 0.4021515325280491
0.31553191489361704 0.4556961165509886 0.4139133331907756
0.31574468085106383 0.4549547806294562 0.42652374366338935
0.3159574468085106 0.45619376958536506 0.4410359181185613
0.31617021276595747 0.45723109736509826 0.45520841915421856
0.31638297872340426 0.45616091273194187 0.46867380165370526
0.31659574468085105 0.4572579870276159 0.48024963090146433
0.31680851063829785 0.4565001585153811 0.4894502268278222
0.3170212765957447 0.4550405695283458 0.49418459332018966
0.3172340425531915 0.452718799315331 0.49277742168953714
0.3174468085106383 0.4497160673906985 0.49049626769215426
0.3176595744680851 0.4481204648227508 0.4874976914882816
0.3178723404255319 0.448923309325938 0.4794488942249338
0.3180851063829787 0.45256389062321944 0.47181073190594053
0.3182978723404255 0.44974653113370855 0.4659958220283851
0.31851063829787235 0.44894968246213973 0.4636052760136786
0.31872340425531914 0.4486862342893337 0.46202458697684207
0.31893617021276593 0.4507277655960044 0.45853021650848225
0.3191489361702128 0.45220103637004744 0.45865276432818514
0.3193617021276596 0.4479698568669638 0.4538293082625061
0.31957446808510637 0.447777796818256 0.44875202718716184
0.3197872340425532 0.4470584407254893 0.4452300363923939
0.32 0.4451091859146142 0.4400886645983317
0.3202127659574468 0.4456306824874405 0.4382095836001351
0.3204255319148936 0.44438080968227023 0.43397776383995745
0.32063829787234044 0.44418075324878975 0.4324562784075587
0.32085106382978723 0.445313689256863 0.431362970200293
0.321063829787234 0.4456219502859631 0.43548392930820745
0.32127659574468087 0.44341145218026967 0.43967031562309816
0.32148936170212766 0.4430874450415241 0.44930420877751914
0.32170212765957445 0.44411907041828086 0.46257915558659163
0.32191489361702125 0.44485789641754525 0.48083165826379504
0.3221276595744681 0.4446822471760137 0.4947193550863946
0.3223404255319149 0.44558083712790514 0.5033591394211376
0.3225531914893617 0.4450415241817294 0.5065950170981925
0.3227659574468085 0.4485107972123711 0.4982687618246524
0.3229787234042553 0.4466220456421918 0.4890873585743732
0.3231914893617021 0.4450668857106073 0.4804178409364463
0.32340425531914896 0.445251018253318 0.47264244246414433
0.32361702127659575 0.44604874285395024 0.465589534256002
0.32382978723404254 0.444928847112405 0.4629965168577521
0.32404255319148934 0.4464705555234753 0.4636052760136786
0.3242553191489362 0.44441014679536767 0.4636052760136786
0.324468085106383 0.44406448461162684 0.46284166465876553
0.32468085106382977 0.44406448461162684 0.46262823644357587
0.3248936170212766 0.44783493483460557 0.4636052760136786
0.3251063829787234 0.44538441365983567 0.4636052760136786
0.3253191489361702 0.4460916203786142 0.46300262071813175
0.325531914893617 0.44533899648627256 0.4637753833312163
0.32574468085106384 0.44809621742064404 0.46708670177334105
0.32595744680851063 0.4469110314324933 0.4654747832644425
0.3261702127659574 0.44924817971572834 0.46296750760183286
0.32638297872340427 0.4474226187154607 0.46262823644357587
0.32659574468085106 0.44699560332193444 0.46262823644357587
0.32680851063829786 0.44894968246213973 0.46270437199858483
0.3270212765957447 0.44894968246213973 0.4660855852519747
0.3272340425531915 0.4492083105531994 0.4717951662538309
0.3274468085106383 0.45031085434663193 0.4801815311371658
0.3276595744680851 0.4514191494190978 0.4841768430492361
0.3278723404255319 0.44865107650773883 0.4831623117571103
0.3280851063829787 0.45008616910184596 0.480623744955672
0.3282978723404255 0.44909770352815176 0.4811179777425191
0.32851063829787236 0.44699560332193444 0.4681914876111228
0.32872340425531915 0.44699560332193444 0.46263772720824514
0.32893617021276594 0.44699560332193444 0.4568089299549042
0.32914893617021274 0.44654905844257675 0.4501785714664039
0.3293617021276596 0.44653649979554677 0.44337005101593047
0.3295744680851064 0.44817235635940295 0.4378028202562796
0.32978723404255317 0.449661758758883 0.43411193916057617
0.33 0.4485635562202641 0.4258196373746181
0.3302127659574468 0.4466988739560003 0.40983192470900126
0.3304255319148936 0.4481086623608138 0.393100854274654
0.33063829787234045 0.44912414423092645 0.3772418706235259
0.33085106382978724 0.44829359007558367 0.3639898339216037
0.33106382978723403 0.44916654795283106 0.358085002442599
0.3312765957446808 0.4503599288825364 0.35895141614318726
0.33148936170212767 0.4538862213234823 0.3663890586063011
0.33170212765957446 0.45528315678170483 0.37965994545941495
0.33191489361702126 0.45520337331021477 0.40144706897201793
0.3321276595744681 0.4563315486781057 0.42394316286758094
0.3323404255319149 0.45733002517509636 0.44131531701603366
0.3325531914893617 0.4576540057863692 0.45445578865597985
0.3327659574468085 0.459409022253601 0.46248418870374225
0.33297872340425533 0.4577941555571728 0.46139561205292434
0.3331914893617021 0.45937624907668784 0.4534851444553495
0.3334042553191489 0.4564833296344502 0.44132121170490257
0.33361702127659576 0.4526006730991162 0.42754442564519235
0.33382978723404255 0.45004660440216265 0.4090274275922793
0.33404255319148934 0.4477363243900085 0.38772780473366936
0.3342553191489362 0.4458748331034062 0.3626520198314207
0.334468085106383 0.4451274450354634 0.3305143329098795
0.3346808510638298 0.44568868668653167 0.3099935110744557
0.33489361702127657 0.4460185637518319 0.2961840253274337
0.3351063829787234 0.4470836719481612 0.29590674446093973
0.3353191489361702 0.4485369709090722 0.31244217262824936
0.335531914893617 0.44894968246213973 0.34743579089189125
0.33574468085106385 0.4510170810080067 0.4005846002458583
0.33595744680851064 0.45573208959136685 0.4462339211938028
0.33617021276595743 0.4542944201611223 0.48786069695622286
0.3363829787234042 0.45362942609520357 0.5296421146435137
0.33659574468085107 0.4512282526088696 0.5613199326755218
0.33680851063829786 0.45385256877978847 0.5947408400130554
0.33702127659574466 0.45552280538589246 0.6206390687595417
0.3372340425531915 0.4540955989474494 0.6422112549182812
0.3374468085106383 0.45481191988275516 0.6569664606393344
0.3376595744680851 0.4553584860067861 0.6598741369263398
0.33787234042553194 0.45676599902296044 0.6522836066172074
0.33808510638297873 0.45676599902296044 0.6348231965785834
0.3382978723404255 0.4600496452535858 0.6021515917902054
0.3385106382978723 0.4604066169951902 0.5756854615876167
0.33872340425531916 0.4584623716229296 0.5554413823963362
0.33893617021276595 0.457743038593063 0.5356628086370734
0.33914893617021274 0.45593134025065996 0.5194045360510694
0.3393617021276596 0.4542829501683281 0.5033838695147961
0.3395744680851064 0.4501637480018135 0.48661049455757344
0.3397872340425532 0.44639289066247784 0.47503786853123897
0.34 0.4459520702085831 0.46985629290447223
0.3402127659574468 0.4430874450415241 0.4651340089219727
0.3404255319148936 0.44308916386475555 0.46262479879711293
0.3406382978723404 0.44475211016243954 0.4592989062017452
0.34085106382978725 0.4442770049872539 0.4533684438018371
0.34106382978723404 0.44335988203615406 0.4441301728422485
0.34127659574468083 0.44934538711047006 0.4373786006599514
0.3414893617021277 0.4465603495242089 0.42844884632750047
0.3417021276595745 0.441690738030233 0.4195040673603427
0.34191489361702126 0.4428571723575165 0.41308867856028314
0.34212765957446806 0.4430874450415241 0.40730070570150834
0.3423404255319149 0.4430874450415241 0.4035919742114921
0.3425531914893617 0.4430874450415241 0.4003765105460257
0.3427659574468085 0.4428787698912732 0.39695791009645165
0.34297872340425534 0.4424379560396899 0.3965170962448682
0.34319148936170213 0.44211040547142155 0.39574315455973136
0.3434042553191489 0.44211040547142155 0.39382218467802055
0.34361702127659577 0.44211040547142155 0.39192073265868443
0.34382978723404256 0.4415578008400219 0.39313025727359535
0.34404255319148935 0.4401563263312165 0.3911828406648769
0.34425531914893615 0.4403517768400519 0.39364932798396307
0.344468085106383 0.4410433800972361 0.3961123641473267
0.3446808510638298 0.44027571591027737 0.4061767975981323
0.3448936170212766 0.44156926752924036 0.4178046089039986
0.3451063829787234 0.4430874450415241 0.43354127665555675
0.3453191489361702 0.44252849842568703 0.4509104636480186
0.345531914893617 0.4413481474279792 0.46706282584050474
0.3457446808510638 0.44303687173732437 0.47928848243951977
0.34595744680851065 0.442044563606502 0.48047831616510084
0.34617021276595744 0.44132075916943647 0.48327983727930446
0.34638297872340423 0.44301611189105755 0.47565075003200913
0.3465957446808511 0.4436657111537451 0.47012535584492166
0.3468085106382979 0.44372094836106035 0.4641316409700213
0.34702127659574467 0.44465298196140834 0.4573488123534418
0.3472340425531915 0.4465433574698017 0.45473937201691816
0.3474468085106383 0.44886528983859264 0.4595845942352055
0.3476595744680851 0.45010333292662125 0.46716021250533124
0.3478723404255319 0.4479726428920372 0.47271606390822596
0.34808510638297874 0.44747960510296597 0.47780397580830497
0.34829787234042553 0.44817703474720677 0.48473628255134193
0.3485106382978723 0.44762270085423495 0.48771771650009305
0.34872340425531917 0.4482903354172488 0.48479443502795766
0.34893617021276596 0.44956644197369866 0.47636171278858175
0.34914893617021275 0.4504833958686326 0.46349185076235566
0.34936170212765955 0.45209297553660077 0.446459478259409
0.3495744680851064 0.4538348803126526 0.4276528826333835
0.3497872340425532 0.45431091648836647 0.4090408633999834
0.35 0.4557889594528579 0.3846359161369173
0.3502127659574468 0.4557889594528579 0.3628785341280846
0.3504255319148936 0.45457871615289647 0.3418599758084454
0.3506382978723404 0.45338158363745285 0.33268197361993157
0.35085106382978726 0.4544821655433453 0.33656568500408784
0.35106382978723405 0.45636408199057127 0.34863326474135126
0.35127659574468084 0.45496011787680024 0.36840159634040165
0.35148936170212763 0.4576851031969522 0.3860793997626902
0.3517021276595745 0.45676599902296044 0.3978736852606322
0.3519148936170213 0.4577202759729527 0.408800009607492
0.35212765957446807 0.4588051792739285 0.4202751304861132
0.3523404255319149 0.4571678798848577 0.4314255977080393
0.3525531914893617 0.45605908132386674 0.43624816805080613
0.3527659574468085 0.4549559361287496 0.4345821214025898
0.3529787234042553 0.45385331527387607 0.42854246125732604
0.35319148936170214 0.45166035021862944 0.42375211487121167
0.35340425531914893 0.4497178466412227 0.4168489146547786
0.3536170212765957 0.44828118312280696 0.41355342482533564
0.35382978723404257 0.446708666238977 0.412799218368344
0.35404255319148936 0.4465542372634964 0.4118536146159834
0.35425531914893615 0.44609532071169217 0.4118989357581016
0.354468085106383 0.44640203170694603 0.42051564936319397
0.3546808510638298 0.44722590512676197 0.43455579309165243
0.3548936170212766 0.4473149722021399 0.4526520694392633
0.3551063829787234 0.4477824761066564 0.47288378828815875
0.3553191489361702 0.4479726428920372 0.4954564838035794
0.355531914893617 0.44992672203224227 0.5202735710796287
0.3557446808510638 0.45067459600843696 0.5221432560201155
0.35595744680851066 0.45257034949411057 0.5303600994852902
0.35617021276595745 0.44947898566493255 0.5278868517795889
0.35638297872340424 0.44839568143144337 0.518641719053075
0.35659574468085103 0.4479726428920372 0.5058148622015078
0.3568085106382979 0.44718519600666895 0.5017098192476794
0.3570212765957447 0.4479081730984991 0.4925841214820341
0.35723404255319147 0.44696124868025433 0.49682462139716654
0.3574468085106383 0.4460394440986746 0.49682462139716654
0.3576595744680851 0.4470817318947103 0.502772987390558
0.3578723404255319 0.44757474936449015 0.5046586322067523
0.35808510638297875 0.4460185637518319 0.5098389818907612
0.35829787234042554 0.44642143695960707 0.512457254518808
0.35851063829787233 0.4474543026077851 0.5055767652310484
0.3587234042553191 0.4485552617358755 0.4890623783096943
0.35893617021276597 0.4503637710929479 0.4682981367922439
0.35914893617021276 0.45006840961286804 0.4434151406856094
0.35936170212765955 0.4489625966667418 0.42183794438670696
0.3595744680851064 0.4485057856846994 0.4048284712548867
0.3597872340425532 0.44575285369613993 0.3876618996013686
0.36 0.4472431374413085 0.3854421104054715
0.3602127659574468 0.44651079109442177 0.38839547446101075
0.3604255319148936 0.4482406107980303 0.39503937025437436
0.3606382978723404 0.44819769094307416 0.4024305258801619
0.3608510638297872 0.44709274581351144 0.4163244213367793
0.36106382978723406 0.4555361327409798 0.43264340182464944
0.36127659574468085 0.44627415718746916 0.4464926222501803
0.36148936170212764 0.4479726428920372 0.4622037807742055
0.3617021276595745 0.44837627696226634 0.4575815849649713
0.3619148936170213 0.4527281562821614 0.4553350638414975
0.3621276595744681 0.4513972211193191 0.4506767907715498
0.36234042553191487 0.4515931025299539 0.4461923187517039
0.3625531914893617 0.44973205156344503 0.4443252743120619
0.3627659574468085 0.44975475987443786 0.44808987167311776
0.3629787234042553 0.4517925254548443 0.4526812893073436
0.36319148936170215 0.4500932523352482 0.4641881320741995
0.36340425531914894 0.45067049532592757 0.47104970592765655
0.36361702127659573 0.44832891583810985 0.47502592320490294
0.3638297872340425 0.4505801558807686 0.4800830174546425
0.36404255319148937 0.4479726428920372 0.4815886711118411
0.36425531914893616 0.4491540452099299 0.4829640917523643
0.36446808510638296 0.4480088148473556 0.4866803165656817
0.3646808510638298 0.4454690025847139 0.49184776710929484
0.3648936170212766 0.4432603292451958 0.4938070605850229
0.3651063829787234 0.44127019735358164 0.4987330900532843
0.36531914893617023 0.4438902112311273 0.4974531142062701
0.365531914893617 0.4430874450415241 0.49496731056746907
0.3657446808510638 0.4460440685517459 0.490382214393709
0.3659574468085106 0.4455573029706645 0.4821386292518657
0.36617021276595746 0.44343451256982497 0.47362649472080576
0.36638297872340425 0.44406448461162684 0.4643503146906875
0.36659574468085104 0.44406448461162684 0.45531481397168017
0.3668085106382979 0.4439311672074022 0.44639567500292365
0.3670212765957447 0.4428968108493781 0.43702263912407635
0.3672340425531915 0.4460185637518319 0.430073990222671
0.36744680851063827 0.4464715300051567 0.4241418340197031
0.3676595744680851 0.4487444850045111 0.4196548112650754
0.3678723404255319 0.44992672203224227 0.4162585378602991
0.3680851063829787 0.45159369044334996 0.41656382128420555
0.36829787234042555 0.45188080117244755 0.4157458104316342
0.36851063829787234 0.4540562672347422 0.4234551617577279
0.36872340425531913 0.4561828628727699 0.4323554477297506
0.368936170212766 0.4575765010381223 0.44148862677074185
0.36914893617021277 0.45705123558950156 0.449969298857825
0.36936170212765956 0.457743038593063 0.4540460586924229
0.36957446808510636 0.4568175021880432 0.4514695361350203
0.3697872340425532 0.4557889594528579 0.4487425725350458
0.37 0.4543420069017264 0.44724916661647135
0.3702127659574468 0.4555403993641722 0.44614284379617475
0.37042553191489364 0.45481191988275516 0.44406448461162684
0.3706382978723404 0.45481191988275516 0.4435027007516295
0.3708510638297872 0.4546332932661509 0.439357913377718
0.371063829787234 0.45347030628677043 0.4413375210827258
0.37127659574468086 0.45545757800467085 0.44144764257504754
0.37148936170212765 0.45481191988275516 0.4401563263312165
0.37170212765957444 0.4554049216872228 0.43837732091781384
0.3719148936170213 0.4557889594528579 0.43722520762090866
0.3721276595744681 0.45496640240902614 0.4388703217085719
0.3723404255319149 0.4557567700774761 0.44201383734527616
0.3725531914893617 0.4538348803126526 0.4394750905133873
0.3727659574468085 0.4540659014928229 0.4407242783903998
0.3729787234042553 0.45481191988275516 0.4358861037533743
0.3731914893617021 0.4553043114156336 0.43477873694782504
0.37340425531914895 0.45395317895723736 0.4330702352468539
0.37361702127659574 0.45139100885869005 0.4323400097703958
0.37382978723404253 0.4509037616023448 0.4349315045955131
0.3740425531914894 0.45188080117244755 0.4343792436822343
0.37425531914893617 0.45188080117244755 0.43836004105347665
0.37446808510638296 0.4510403234606829 0.4405800829473882
0.37468085106382976 0.44894968246213973 0.4432956494800873
0.3748936170212766 0.44943896469094874 0.4440675343866577
0.3751063829787234 0.4493394841745987 0.44484408803654474
0.3753191489361702 0.448278235822078 0.4420501446914415
0.37553191489361704 0.4495265938774379 0.4372484884378171
0.37574468085106383 0.4472168312569384 0.43082838650019833
0.3759574468085106 0.44699560332193444 0.42625097446268445
0.37617021276595747 0.44699560332193444 0.4210620188703055
0.37638297872340426 0.44636136769175316 0.41253347280291436
0.37659574468085105 0.44460068027837757 0.4083548644211828
0.37680851063829784 0.4457657936174504 0.4066226480801688
0.3770212765957447 0.44629995583620313 0.4008090168931351
0.3772340425531915 0.4451998660960724 0.39338978079659087
0.3774468085106383 0.441303147682974 0.39321598152087844
0.3776595744680851 0.4439804412930986 0.39113626118903044
0.3778723404255319 0.44393529027881273 0.38935026868588185
0.3780851063829787 0.4459735576088653 0.38832822297281266
0.37829787234042556 0.44312661402715525 0.38501234409886675
0.37851063829787235 0.4403232437469926 0.38229659011564704
0.37872340425531914 0.44134185239802676 0.38225480733736544
0.37893617021276593 0.443650444276538 0.3863610887079545
0.3791489361702128 0.4414323949594588 0.39090564241523384
0.3793617021276596 0.44022113481086844 0.3973934149254844
0.37957446808510636 0.44211040547142155 0.4046782299369031
0.3797872340425532 0.44271215941374226 0.41032103628711347
0.38 0.44363468178669796 0.4195985625030108
0.3802127659574468 0.44094461724837747 0.43041646964072816
0.3804255319148936 0.4416658174037654 0.4433523530693216
0.38063829787234044 0.44376510185935936 0.4581374951595644
0.38085106382978723 0.44406448461162684 0.47407864165365615
0.381063829787234 0.4432917476038179 0.4898519246823495
0.38127659574468087 0.44394903544188313 0.4998091863196274
0.38148936170212766 0.4449939414252187 0.5090978909999039
0.38170212765957445 0.4459312330784934 0.5113055536020283
0.3819148936170213 0.44684965342099203 0.509818035610385
0.3821276595744681 0.44870320329046315 0.506110935871443
0.3823404255319149 0.4492157857159918 0.5022420257553837
0.3825531914893617 0.44741527305885204 0.49864100044110415
0.3827659574468085 0.44680750540422376 0.4984116421973376
0.3829787234042553 0.4499788042996027 0.5092782479814437
0.3831914893617021 0.4507568564805307 0.5201709785144366
0.38340425531914896 0.4517057176325163 0.5294452544913766
0.38361702127659575 0.451073733563118 0.5374775472253925
0.38382978723404254 0.4534940779256892 0.539700761686026
0.38404255319148933 0.4538348803126526 0.5350266234766269
0.3842553191489362 0.4530324858183255 0.5235209966348114
0.384468085106383 0.4545340545251207 0.5095171141717364
0.38468085106382977 0.4521322261905883 0.4914938945152928
0.3848936170212766 0.45001504960386784 0.4722607045049425
0.3851063829787234 0.4508851587607239 0.45992035183271956
0.3853191489361702 0.4490447625054643 0.44761362360354445
0.38553191489361704 0.4495764690222838 0.4432348839610699
0.38574468085106384 0.4495732158056638 0.441840378354476
0.38595744680851063 0.44894968246213973 0.44296760411690234
0.3861702127659574 0.44894968246213973 0.44227216699758004
0.38638297872340427 0.44946521813348667 0.4457191551708505
0.38659574468085106 0.4506151187667141 0.4512443382437126
0.38680851063829785 0.45281424030176715 0.45857474336055565
0.3870212765957447 0.45369522244976235 0.46374436840643934
0.3872340425531915 0.4518421003404227 0.46258953561155125
0.3874468085106383 0.4512561530659632 0.46235597980071
0.3876595744680851 0.45183755639231726 0.46351878645341804
0.3878723404255319 0.4545020935539589 0.46622656839518994
0.3880851063829787 0.45228230953062165 0.467513434294089
0.3882978723404255 0.44945318448486005 0.46902394036224987
0.38851063829787236 0.4494075931844918 0.4699254241566461
0.38872340425531915 0.44838090872580494 0.46548609727995033
0.38893617021276594 0.4472751765210863 0.4556535727340681
0.3891489361702128 0.447820298724859 0.44543558211623024
0.3893617021276596 0.4479726428920372 0.43167828045643764
0.3895744680851064 0.4479726428920372 0.4267843700877076
0.38978723404255317 0.44889658803285853 0.4206155349291647
0.39 0.4487035186053737 0.41970194028749397
0.3902127659574468 0.4525033197670369 0.4135515219975888
0.3904255319148936 0.4538348803126526 0.4054375020835166
0.39063829787234045 0.452764985567128 0.3946553750539648
0.39085106382978724 0.4544986582176833 0.3834600903341012
0.39106382978723403 0.4577112017053864 0.37543093321488225
0.3912765957446808 0.4567031969621065 0.36736224612464663
0.39148936170212767 0.4557889594528579 0.3641339227810562
0.39170212765957446 0.4548692238320025 0.365786711104925
0.39191489361702125 0.45690334341375355 0.3714045666125016
0.3921276595744681 0.4585216508589571 0.3817625733311485
0.3923404255319149 0.457743038593063 0.3975200609134166
0.3925531914893617 0.457743038593063 0.4209179635415556
0.39276595744680853 0.457743038593063 0.45116260050148904
0.3929787234042553 0.4556046566433909 0.4838277531308295
0.3931914893617021 0.4573322554486935 0.5153256277806212
0.3934042553191489 0.457743038593063 0.5512234930288652
0.39361702127659576 0.4625502068431822 0.5707675103233888
0.39382978723404255 0.4587200781631655 0.583133161724624
0.39404255319148934 0.4582421211146909 0.583106458509892
0.3942553191489362 0.45676599902296044 0.5678358429066248
0.394468085106383 0.45717710387780797 0.5437812298071829
0.3946808510638298 0.4545438732313439 0.5173366542175817
0.39489361702127657 0.45188080117244755 0.4904257909951156
0.3951063829787234 0.45503208432830466 0.46483697048841355
0.3953191489361702 0.45120926826243896 0.4414394543036119
0.395531914893617 0.45572157528344326 0.42051442778863296
0.39574468085106385 0.45422784922398945 0.40459710984050573
0.39595744680851064 0.4528510956756744 0.39718007538045386
0.39617021276595743 0.45526360894669926 0.3946134941581242
0.3963829787234043 0.456073325409384 0.3961895456765998
0.39659574468085107 0.4566162892352771 0.3961895456765998
0.39680851063829786 0.4591798641127605 0.3961895456765998
0.39702127659574465 0.46128163030799674 0.3974044916858518
0.3972340425531915 0.4594436982416308 0.3996152905713667
0.3974468085106383 0.46202085691108663 0.40422367739191173
0.3976595744680851 0.46262823644357587 0.40592321239955687
0.39787234042553193 0.4594557347591823 0.4083163254746408
0.3980851063829787 0.45676599902296044 0.412799218368344
0.3982978723404255 0.4557389735707251 0.4141685856379911
0.3985106382978723 0.4519404308663431 0.4162337642871769
0.39872340425531916 0.44932554838642036 0.41873620530776134
0.39893617021276595 0.4554771431604604 0.42279135516193816
0.39914893617021274 0.45090320750869783 0.4278215480672007
0.3993617021276596 0.447031475584216 0.43132709793801144
0.3995744680851064 0.4449677352355429 0.43341543460208026
0.3997872340425532 0.4422270845911168 0.43763358453984197
0.4 0.4437222103943017 0.44417857601740185
0.4002127659574468 0.441133365901319 0.44666364651129037
0.4004255319148936 0.4418441836243759 0.45188080117244755
0.4006382978723404 0.4434712094161552 0.45149703679781644
0.40085106382978725 0.44406448461162684 0.4512493836110717
0.40106382978723404 0.44667223398689876 0.45101155138069016
0.40127659574468083 0.4471235997788403 0.4493660975815619
0.4014893617021277 0.44386775002132567 0.4483627953819379
0.40170212765957447 0.4450268615532796 0.4486191150626223
0.40191489361702126 0.44756374782983893 0.44894968246213973
0.40212765957446805 0.4479726428920372 0.45166109396997395
0.4023404255319149 0.44699560332193444 0.4571464325690793
0.4025531914893617 0.4475422723911665 0.46469861415214264
0.4027659574468085 0.44992672203224227 0.47286490268697995
0.40297872340425533 0.4494936923268794 0.4841122160536884
0.4031914893617021 0.4511786314050289 0.49235172825067963
0.4034042553191489 0.45422954915372954 0.4941846880513716
0.40361702127659577 0.45725553276381586 0.49307896505983856
0.40382978723404256 0.45586152733504653 0.4769236174236158
0.40404255319148935 0.4551732893940746 0.4602057188281957
0.40425531914893614 0.4587200781631655 0.4429682603578021
0.404468085106383 0.4580197539857761 0.4295387130608381
0.4046808510638298 0.45628476264532886 0.42404245683194336
0.4048936170212766 0.45700350424828523 0.4211175640486175
0.4051063829787234 0.457743038593063 0.41963849535906195
0.4053191489361702 0.45548459054667173 0.4207677193822576
0.405531914893617 0.4543512234816067 0.42159257449926724
0.4057446808510638 0.4553703525587927 0.4243847378794545
0.40595744680851065 0.4530595037745099 0.42988959194771514
0.40617021276595744 0.45107099472866813 0.431362970200293
0.40638297872340423 0.4518448025502988 0.4370092158880162
0.4065957446808511 0.4557889594528579 0.44445243485708613
0.40680851063829787 0.4557889594528579 0.44980277179740236
0.40702127659574466 0.4557889594528579 0.45506449641494545
0.4072340425531915 0.4552927438620026 0.4558197426760736
0.4074468085106383 0.45481191988275516 0.45522901032540475
0.4076595744680851 0.45481191988275516 0.4568878149042698
0.4078723404255319 0.4566100369331201 0.45684398006788063
0.40808510638297874 0.45665313771575805 0.45746088532505697
0.4082978723404255 0.4546214653425115 0.4532387498230373
0.4085106382978723 0.45512182882626695 0.45416844562594805
0.40872340425531917 0.45683517251863126 0.45149604163090246
0.40893617021276596 0.4546190958799785 0.4493417902458026
0.40914893617021275 0.4538348803126526 0.4456120774269726
0.40936170212765954 0.4530610269453621 0.44638604471349835
0.4095744680851064 0.4537445740639124 0.4390150034296733
0.4097872340425532 0.4614580438735758 0.4490140667954389
0.41 0.45515736932403783 0.452166941859985
0.4102127659574468 0.4521709183552376 0.46046078125990586
0.4104255319148936 0.4524380181123972 0.46626160610439277
0.4106382978723404 0.45408108455959123 0.47124082809812107
0.41085106382978726 0.4564583505883407 0.47873080079856706
0.41106382978723405 0.45420961521232567 0.47799650851223163
0.41127659574468084 0.45745434061821805 0.4743368619068688
0.41148936170212763 0.45585274303126655 0.4687624220723026
0.4117021276595745 0.45301161607033086 0.4612123709506036
0.41191489361702127 0.4491752552510563 0.4593587585498934
0.41212765957446806 0.4530409466010231 0.45218692758639534
0.4123404255319149 0.4528933990371116 0.4447276970898824
0.4125531914893617 0.4522372412888959 0.4422865116962254
0.4127659574468085 0.4538348803126526 0.4367109102492347
0.4129787234042553 0.4531430299875927 0.432910388260481
0.41319148936170214 0.44960331210408233 0.43396727408962954
0.41340425531914893 0.4496922949758159 0.4238975137191338
0.4136170212765957 0.45067458395647986 0.413884777611026
0.41382978723404257 0.4500949634721589 0.4045429956265677
0.41404255319148936 0.4507829889155079 0.40131628890078674
0.41425531914893615 0.45179853611306897 0.40375906705928477
0.414468085106383 0.4509407028119915 0.4087063540397002
0.4146808510638298 0.44909092301768194 0.4151770191751757
0.4148936170212766 0.4527777431326941 0.42679816278920424
0.4151063829787234 0.4520220671710377 0.4308097286259609
0.4153191489361702 0.45269631332133453 0.43347857676171386
0.415531914893617 0.4517575251361398 0.4341708128742931
0.4157446808510638 0.4509037616023448 0.43345825124832876
0.41595744680851066 0.4509037616023448 0.43600300286177535
0.41617021276595745 0.4516148392933761 0.43624816805080613
0.41638297872340424 0.4528226336949731 0.4409573306634341
0.4165957446808511 0.4535891766796012 0.44479004558657476
0.4168085106382979 0.4531486155212416 0.44069720373328175
0.41702127659574467 0.45481191988275516 0.43761589995382
0.41723404255319146 0.45502470968549025 0.43356881005882303
0.4174468085106383 0.4556897924328372 0.4262648076796342
0.4176595744680851 0.4550827650983698 0.418980479666027
0.4178723404255319 0.4569844891138883 0.41529582323242503
0.41808510638297874 0.45916249207386184 0.4152879231679555
0.41829787234042554 0.457743038593063 0.4173382194480992
0.41851063829787233 0.4576985708974381 0.4203931964510403
0.4187234042553191 0.4569611017279062 0.41670585060338056
0.41893617021276597 0.45543647286678535 0.4144008109224766
0.41914893617021276 0.4537538313249866 0.41328551229434024
0.41936170212765955 0.4530432517688175 0.41754898963135506
0.4195744680851064 0.4521454395489992 0.421511060563163
0.4197872340425532 0.45112556007239957 0.4240800962694656
0.42 0.4524285935681424 0.4260485251753725
0.42021276595744683 0.44807507168903943 0.42089787512068444
0.4204255319148936 0.4532749405183699 0.41963849535906195
0.4206382978723404 0.44844543989286256 0.41645525536411565
0.4208510638297872 0.44524672353627376 0.4148558971858212
0.42106382978723406 0.4459661161961348 0.4205630873734676
0.42127659574468085 0.4434298712875817 0.4180268424649145
0.42148936170212764 0.4460528114767899 0.42071827810403856
0.4217021276595745 0.4468459407830401 0.4229480034838947
0.4219148936170213 0.44629451245532553 0.4199144440625556
0.4221276595744681 0.4461802578121351 0.4234692442134625
0.42234042553191486 0.4450415241817294 0.4301498980577592
0.4225531914893617 0.44443550003660637 0.4438544685277336
0.4227659574468085 0.4446435230551341 0.46132645358547636
0.4229787234042553 0.4438092882667382 0.4801967150566068
0.42319148936170214 0.44604357076388385 0.4974006657243998
0.42340425531914894 0.44786008281193207 0.5119710130475441
0.42361702127659573 0.44995997084880557 0.5194627755923428
0.4238297872340426 0.45247027547754154 0.5295090329393725
0.42404255319148937 0.45469375735317585 0.5336408490703829
0.42425531914893616 0.4526919956084653 0.5406994638675376
0.42446808510638295 0.4549137143645081 0.5446995603321934
0.4246808510638298 0.4524221688898628 0.5460462765573915
0.4248936170212766 0.45331976150946357 0.5450429728676528
0.4251063829787234 0.4500886830570417 0.5409533630765824
0.42531914893617023 0.4497476309460768 0.5324378122324658
0.425531914893617 0.44839107225691127 0.5254391306108505
0.4257446808510638 0.44828856668911415 0.5170031140291468
0.4259574468085106 0.4495941917265649 0.5079045869739724
0.42617021276595746 0.45248621374509296 0.4974540200080422
0.42638297872340425 0.4487793551581663 0.4868121478729301
0.42659574468085104 0.4496493574640723 0.47909296326972717
0.4268085106382979 0.44604801201715677 0.46565506201618945
0.4270212765957447 0.44748546152840474 0.45261692690357147
0.4272340425531915 0.44454447268019776 0.442624520405914
0.4274468085106383 0.4460185637518319 0.4374777142401883
0.4276595744680851 0.4465086631385388 0.4342877705039785
0.4278723404255319 0.44699560332193444 0.4348219799492228
0.4280851063829787 0.4484976405270713 0.43474613084566927
0.42829787234042555 0.44630187962154283 0.4307636851231384
0.42851063829787234 0.44891468553974234 0.4321300282360115
0.42872340425531913 0.4486344558822786 0.42598141260709904
0.428936170212766 0.4509901404662009 0.4235466536394723
0.42914893617021277 0.4510834284284858 0.4231199044462031
0.42936170212765956 0.4548735135081581 0.4184150812873482
0.42957446808510635 0.4564025333834984 0.4122990017859869
0.4297872340425532 0.45602338042036583 0.4108451392281387
0.43 0.4575288829855188 0.4099751774618082
0.4302127659574468 0.4586026410096089 0.4150257141573119
0.43042553191489363 0.4569440511077476 0.43171458057741363
0.4306382978723404 0.457743038593063 0.4601915734516054
0.4308510638297872 0.457743038593063 0.4817363808761377
0.43106382978723407 0.4583094078708043 0.504352875877139
0.43127659574468086 0.4606741573033708 0.5182503122920139
0.43148936170212765 0.45980933957966647 0.5220196850507783
0.43170212765957444 0.4576587025771063 0.5134589657862001
0.4319148936170213 0.4573329600336384 0.5011786030995841
0.4321276595744681 0.45654567088292547 0.4826765370155508
0.4323404255319149 0.45452422210980836 0.46360244386888627
0.4325531914893617 0.45452872937853694 0.4445599063412596
0.4327659574468085 0.45000639939503895 0.4199572048102485
0.4329787234042553 0.44894968246213973 0.40012155419226825
0.4331914893617021 0.45083230904673316 0.38751579844843925
0.43340425531914895 0.44992672203224227 0.376648754274548
0.43361702127659574 0.44992672203224227 0.376648754274548
0.43382978723404253 0.44992672203224227 0.38265682346873603
0.4340425531914894 0.44992672203224227 0.3886786485060466
0.43425531914893617 0.44992672203224227 0.390874255917368
0.43446808510638296 0.4495216730078306 0.39268643642060125
0.4346808510638298 0.44894968246213973 0.39058823538091925
0.4348936170212766 0.44894968246213973 0.38668364083781864
0.4351063829787234 0.4514318594030013 0.3866831988759022
0.4353191489361702 0.45212448596736976 0.38886289909603744
0.43553191489361703 0.45188080117244755 0.3902092398709564
0.4357446808510638 0.4499566657802862 0.4002025070751639
0.4359574468085106 0.4515885004444694 0.40766773276767365
0.43617021276595747 0.4504845219903592 0.41433227860976735
0.43638297872340426 0.4527025881556197 0.42554625682819774
0.43659574468085105 0.4522112617788002 0.4420817209735099
0.43680851063829784 0.4491343696329989 0.46762064172570234
0.4370212765957447 0.44862418728058656 0.4955265188490556
0.4372340425531915 0.44506252638756444 0.5215448163309314
0.4374468085106383 0.44496709349309416 0.5423827683666571
0.4376595744680851 0.4382022471910112 0.5456248882292103
0.4378723404255319 0.4378354113935841 0.5446995603321934
0.4380851063829787 0.4356088034395098 0.5418224195813601
0.43829787234042555 0.43384064934805316 0.5322786877008885
0.43851063829787235 0.4333170493404983 0.5210654555111556
0.43872340425531914 0.43403641814436594 0.5106104623682769
0.43893617021276593 0.43429408891060084 0.4975987150448389
