0.0 0.4831460674157304 0.49877870053737183
0.0002127659574468085 0.4844119464707187 0.4968798819548892
0.000425531914893617 0.4851001465559355 0.4935725734566607
0.0006382978723404255 0.48460531049539063 0.4899727118554614
0.000851063829787234 0.482082679366119 0.4910487324560598
0.0010638297872340426 0.483860686445941 0.49083318440788853
0.001276595744680851 0.48705422569614076 0.48661157731268323
0.0014893617021276596 0.48562027651322337 0.48940199410468743
0.001702127659574468 0.48846737407303137 0.4875951564594552
0.0019148936170212765 0.486129279761603 0.49089292579579785
0.002127659574468085 0.4905929849965424 0.4966399219071622
0.002340425531914894 0.48748414922511035 0.4948705422569615
0.002553191489361702 0.4896955328057276 0.4969322261651066
0.0027659574468085106 0.49284582652262776 0.4964950339489045
0.0029787234042553193 0.48885850798424924 0.49013581326483996
0.0031914893617021275 0.4865654520356252 0.49120626305588033
0.003404255319148936 0.48705422569614076 0.4896665064423389
0.003617021276595745 0.4904656906558725 0.49241976979607754
0.003829787234042553 0.48900830483634583 0.4890049683412603
0.004042553191489362 0.4895411930265422 0.48692100364859164
0.00425531914893617 0.4929164631167562 0.4863429090044746
0.004468085106382979 0.49093092248649206 0.4886426582003521
0.004680851063829788 0.4875017672374781 0.48990338791902066
0.004893617021276595 0.49498951563177884 0.48900830483634583
0.005106382978723404 0.4924215749140053 0.48900830483634583
0.005319148936170213 0.4928171450963649 0.4908630659561598
0.005531914893617021 0.49471089974588656 0.4910422052320886
0.00574468085106383 0.49143468609793367 0.49320951813421576
0.005957446808510639 0.486077186126038 0.4991804085605621
0.006170212765957446 0.4865509042091431 0.5012361011645745
0.006382978723404255 0.4864598066709882 0.49894952260211944
0.006595744680851064 0.48391281806503017 0.4992445730079411
0.006808510638297872 0.4865695764018119 0.49975574010747437
0.007021276595744681 0.4928155452668258 0.49392233635826743
0.00723404255319149 0.48652336498314874 0.4973348446840997
0.007446808510638298 0.48900830483634583 0.5031809860266049
0.007659574468085106 0.4897809573483018 0.4964382951411886
0.007872340425531916 0.49048158473342485 0.4944051840976854
0.008085106382978723 0.4888019088502632 0.49765020534149706
0.008297872340425531 0.49450329311584335 0.49929455126655475
0.00851063829787234 0.49426959368056483 0.4945203210097022
0.008723404255319148 0.4919625468406531 0.49391662598085817
0.008936170212765958 0.4938935026868587 0.4964215053397001
0.009148936170212766 0.4946530367799705 0.5010216302626607
0.009361702127659575 0.49810845152666794 0.5027151927637352
0.009574468085106383 0.4971076832200182 0.49787242642298213
0.00978723404255319 0.491156417556666 0.49799798510389337
0.01 0.49214499328767525 0.49805881757696274
0.010212765957446808 0.49036273468519415 0.5012066322093517
0.010425531914893617 0.49683107853076536 0.4928841774487622
0.010638297872340425 0.4979414341187636 0.4880312652662433
0.010851063829787235 0.49877870053737183 0.48886288948646206
0.011063829787234043 0.49919269570544095 0.48806441780006704
0.01127659574468085 0.49975574010747437 0.48412310698583294
0.01148936170212766 0.5001975943396938 0.4832393985213939
0.011702127659574468 0.5012970639257721 0.48611901758299475
0.011914893617021277 0.49893015303648675 0.48553372207235507
0.012127659574468085 0.4978016609672691 0.4857793575724239
0.012340425531914893 0.4987496880550402 0.48702521321380915
0.012553191489361702 0.49700262653348537 0.4922064312511319
0.01276595744680851 0.4994379707441539 0.4944310287857734
0.01297872340425532 0.49958160974560956 0.4904335520310079
0.013191489361702127 0.49486947644201745 0.48705529151108456
0.013404255319148937 0.4970154580632439 0.49052882956735133
0.013617021276595745 0.49877870053737183 0.48814066633712166
0.013829787234042552 0.4944497585776868 0.48878580248001463
0.014042553191489362 0.49682143279223184 0.48705103709120606
0.01425531914893617 0.4954020906834621 0.48496725944931035
0.01446808510638298 0.4974385861927088 0.48358706124796774
0.014680851063829787 0.4950942868369451 0.48216902784562765
0.014893617021276596 0.4962942373349267 0.48110825972114807
0.015106382978723404 0.4951822187220435 0.47755349628534044
0.015319148936170212 0.4948705422569615 0.4800393324514015
0.015531914893617021 0.49747027650550885 0.480325410192676
0.01574468085106383 0.49481684061095127 0.47524919838589436
0.015957446808510637 0.49241172427694585 0.4735763561041594
0.016170212765957447 0.48998534440644836 0.4804523410702019
0.016382978723404256 0.4908636775015365 0.4831460674157304
0.016595744680851062 0.49136390359144155 0.4854481472365789
0.01680851063829787 0.4945074148850212 0.48280018860597657
0.01702127659574468 0.49078791129942356 0.48540838038189205
0.01723404255319149 0.4880409652502019 0.4850839799160045
0.017446808510638297 0.4906017001016166 0.48093631645529167
0.017659574468085106 0.4890196112833018 0.4865713591345673
0.017872340425531916 0.4923081188440119 0.4909808276451092
0.018085106382978722 0.4929164631167562 0.4973174707940407
0.01829787234042553 0.4922957773537371 0.49629595748529537
0.01851063829787234 0.49118510360028256 0.4956248622033326
0.01872340425531915 0.49273988040924055 0.4967363300434087
0.018936170212765956 0.49215928578024176 0.4947386249168086
0.019148936170212766 0.49560230839275404 0.49211403969014117
0.019361702127659575 0.48968209324756734 0.49261321195787516
0.01957446808510638 0.48859315556652 0.4923545728164795
0.01978723404255319 0.4885521832616683 0.49239554512133116
0.02 0.48770523028867224 0.4899848117251431
0.02021276595744681 0.48312216306734385 0.4913675424136239
0.020425531914893616 0.48862480010983644 0.49562843626905867
0.020638297872340425 0.4949474787658204 0.4920163600555126
0.020851063829787235 0.49377284434833757 0.4929164631167562
0.02106382978723404 0.485743929917974 0.49424948794901225
0.02127659574468085 0.486025014688925 0.49682462139716654
0.02148936170212766 0.4882418277009121 0.49919982540670943
0.02170212765957447 0.48900830483634583 0.5000075467044074
0.021914893617021276 0.4855829465211225 0.5023247588438919
0.022127659574468085 0.4909228582148668 0.5046310565175662
0.022340425531914895 0.48691314686973414 0.503946056040698
0.0225531914893617 0.486077186126038 0.5058919745423698
0.02276595744680851 0.4868900214581684 0.5070014347642577
0.02297872340425532 0.48965044646968486 0.5064926025326674
0.023191489361702126 0.4916360087691023 0.5069652271131923
0.023404255319148935 0.49193942354665365 0.5039111216175403
0.023617021276595745 0.49029028723965346 0.5059851314317824
0.023829787234042554 0.48811375209209873 0.4981728516836184
0.02404255319148936 0.4888649827578865 0.4966096382794775
0.02425531914893617 0.48778247538332836 0.4949858772176401
0.02446808510638298 0.4903970639895668 0.4977771201530294
0.024680851063829785 0.4882203924272031 0.49449228793504174
0.024893617021276595 0.48604373112569266 0.49480363225627044
0.025106382978723404 0.4863354224699352 0.4929164631167562
0.025319148936170214 0.4863474264702919 0.4915028646650587
0.02553191489361702 0.48363862271174657 0.4901495295051205
0.02574468085106383 0.48407182457651665 0.4927626158888073
0.02595744680851064 0.4888809489687114 0.48822229906769493
0.026170212765957445 0.4879366270902714 0.4902564628612466
0.026382978723404255 0.49017637127629793 0.48705422569614076
0.026595744680851064 0.4877268677620477 0.48787906651414553
0.026808510638297874 0.48733619363132735 0.48318017313107947
0.02702127659574468 0.48767421854616383 0.482765495548117
0.02723404255319149 0.49353084769422867 0.48133136084103323
0.0274468085106383 0.4871076932846409 0.4810774874801248
0.027659574468085105 0.4870529771251793 0.4850951522720896
0.027872340425531914 0.4935500172018095 0.49107687913823417
0.028085106382978724 0.4916502727635779 0.49354449738304956
0.028297872340425533 0.49423881214509174 0.4984333910791388
0.02851063829787234 0.49395228974456923 0.5000972922482496
0.02872340425531915 0.4934909020668894 0.5067079314687148
0.02893617021276596 0.4932036343458123 0.5115957408316395
0.029148936170212764 0.4888958389093237 0.5100448799943484
0.029361702127659574 0.4907918908501775 0.5104463443364784
0.029574468085106383 0.4948705422569615 0.5158886443103109
0.029787234042553193 0.49453274619580717 0.5077046060855118
0.03 0.4951638464604175 0.5039448213058424
0.03021276595744681 0.49875819275035327 0.5034561858016531
0.030425531914893618 0.5014558243529127 0.5006901387884343
0.030638297872340424 0.4984816172571553 0.5016280631477138
0.030851063829787233 0.49758869000805556 0.49899167149658535
0.031063829787234043 0.4979262880823514 0.4986540734222895
0.03127659574468085 0.5055123113305066 0.49877870053737183
0.03148936170212766 0.5003297222952345 0.4960491105182352
0.03170212765957447 0.4972471887045071 0.4971678100062583
0.031914893617021274 0.4975492627496277 0.49364110446921733
0.03212765957446809 0.4965655198800821 0.48969115075921066
0.03234042553191489 0.4982401748877998 0.48856979091581515
0.0325531914893617 0.5010598814349765 0.48965994892988723
0.03276595744680851 0.49810518711325086 0.48616728465267234
0.03297872340425532 0.49506973293089473 0.49036481195475135
0.033191489361702124 0.4939703074785351 0.4909623839765511
0.03340425531914894 0.4989359200435538 0.49116733899253123
0.03361702127659574 0.492806229485264 0.49399997054001904
0.033829787234042556 0.49684081860548274 0.4981327398934087
0.03404255319148936 0.49654822627480555 0.5014552696524512
0.03425531914893617 0.4922131822731358 0.5068813651762846
0.03446808510638298 0.4909623839765511 0.5072012493018537
0.03468085106382979 0.49174992309050997 0.5065950170981925
0.03489361702127659 0.49193942354665365 0.5056913466283715
0.035106382978723406 0.49197744266324184 0.5034738028049437
0.03531914893617021 0.49306278555247934 0.49936399028026446
0.03553191489361702 0.4938935026868587 0.5003317518931788
0.03574468085106383 0.49276359838698947 0.49314023315361255
0.03595744680851064 0.4944088889855382 0.4934164971219339
0.036170212765957444 0.4959780892197328 0.4875762552668159
0.036382978723404256 0.49559467853554373 0.48604261253005965
0.03659574468085106 0.49332359015381 0.48284757290738406
0.03680851063829787 0.4929164631167562 0.48216902784562765
0.03702127659574468 0.4948344082098926 0.4792921102059233
0.03723404255319149 0.4985303650270122 0.47455965754344
0.0374468085106383 0.4929164631167562 0.4789862686755221
0.03765957446808511 0.49282315208852456 0.47435271128480694
0.03787234042553191 0.4916760329566672 0.4735625395148475
0.038085106382978726 0.4902934973182359 0.4691067796877666
0.03829787234042553 0.49173383460027575 0.47260422109097977
0.03851063829787234 0.4902316682433621 0.4736192436257674
0.03872340425531915 0.4898143635969456 0.47384325461889204
0.03893617021276596 0.49230680744188615 0.47382292926408814
0.03914893617021276 0.4883499900368605 0.47760851626808937
0.039361702127659576 0.4936642708243122 0.47788696571143935
0.03957446808510638 0.49196635670830297 0.476315768145562
0.03978723404255319 0.4931792526878084 0.4759256005479757
0.04 0.4930138310366732 0.47418147733221905
0.04021276595744681 0.4870796629593429 0.4814752726935556
0.04042553191489362 0.486077186126038 0.482242354144317
0.040638297872340426 0.48993128998722885 0.487950183637414
0.04085106382978723 0.487486407651291 0.48618986178584017
0.041063829787234045 0.4850440326470476 0.4942978516085782
0.04127659574468085 0.48736603457725153 0.5001091619153553
0.04148936170212766 0.4851833504919283 0.5026868588177822
0.04170212765957447 0.4851649039876036 0.5047704528213236
0.041914893617021276 0.4866753286905014 0.5071931596626559
0.04212765957446808 0.4849304719140496 0.5068641387409314
0.042340425531914895 0.4849458520307508 0.5057722720532745
0.0425531914893617 0.4944616019103423 0.5074902685989713
0.04276595744680851 0.4879573917643704 0.5059873450374541
0.04297872340425532 0.48798580149477727 0.5086400237813299
0.043191489361702126 0.489845758797128 0.49983549478492306
0.04340425531914894 0.4851001465559355 0.49983780208760265
0.043617021276595745 0.4866632365456635 0.5042499488075101
0.04382978723404255 0.4912131179807654 0.5100725713284208
0.044042553191489364 0.4891620711072293 0.5087028625092811
0.04425531914893617 0.4880312652662433 0.5083820007037089
0.044468085106382976 0.48620744604538474 0.5067252770175392
0.04468085106382979 0.4898997953276 0.5103748517603304
0.044893617021276595 0.4881861907426256 0.5061777273808541
0.0451063829787234 0.4882044625778677 0.4993145953763572
0.045319148936170214 0.48645850856054357 0.49997013480856595
0.04553191489361702 0.48902279580523095 0.4973022729555542
0.045744680851063826 0.4897511854525885 0.49281958551715765
0.04595744680851064 0.4904442782150502 0.48952641059784674
0.046170212765957445 0.4917918532488836 0.4898377741086783
0.04638297872340425 0.49664701124789423 0.48433623916495977
0.046595744680851064 0.4930743280223217 0.47712596508954924
0.04680851063829787 0.49390624182917914 0.47552261094046616
0.047021276595744683 0.49059505304153056 0.4766116447425533
0.04723404255319149 0.4927215514428683 0.47806595789132944
0.047446808510638296 0.49481957599416015 0.47784879917436796
0.04765957446808511 0.49411508130048376 0.47861679112711925
0.047872340425531915 0.49361372918201335 0.4823067469011943
0.04808510638297872 0.5012296994775314 0.4872217322994373
0.048297872340425534 0.4905743990720708 0.48709953759349633
0.04851063829787234 0.49193942354665365 0.49089120348974413
0.048723404255319146 0.49193942354665365 0.4912352998668766
0.04893617021276596 0.49221139834270766 0.4957367222129504
0.049148936170212765 0.495197069510228 0.4932965641823348
0.04936170212765957 0.49681453289128097 0.49192933504076786
0.049574468085106384 0.49426453403242776 0.49301538552911656
0.04978723404255319 0.49317356482692043 0.494150604397023
0.05 0.4992712587676162 0.49309915323050124
0.05021276595744681 0.4917220295126106 0.491114313083763
0.050425531914893615 0.4928537734019949 0.48815664469576586
0.05063829787234043 0.4902240698218624 0.4936070321883619
0.050851063829787234 0.4946995061635946 0.4880312652662433
0.05106382978723404 0.4936982953529684 0.4897903877977207
0.05127659574468085 0.4965247275985252 0.4941255772093943
0.05148936170212766 0.492712151175337 0.4872474076033115
0.051702127659574465 0.4900391631812316 0.48708113508353224
0.05191489361702128 0.49317202707895297 0.4867986617339438
0.052127659574468084 0.49316217040987653 0.486077186126038
0.05234042553191489 0.4886836194773568 0.4843840486702783
0.0525531914893617 0.4957128363966751 0.4860434997684408
0.05276595744680851 0.49945768593198114 0.4871535770879718
0.05297872340425532 0.4966128492711586 0.4871841767622116
0.05319148936170213 0.4968168462109527 0.48412310698583294
0.053404255319148934 0.500525650139666 0.4828128947841123
0.05361702127659575 0.4971919743848702 0.477895057615778
0.05382978723404255 0.4949030430299592 0.47731633076811253
0.05404255319148936 0.49816768560339225 0.4759407657888892
0.05425531914893617 0.49789389051273936 0.47886899095343893
0.05446808510638298 0.4958900653611058 0.47847328723542637
0.054680851063829784 0.49725296225471993 0.4881684399443806
0.0548936170212766 0.494393213337612 0.4887584495109692
0.0551063829787234 0.4936537081043485 0.48912820212760105
0.05531914893617021 0.4923930061447159 0.49240698101951147
0.05553191489361702 0.4948705422569615 0.4950804700967171
0.05574468085106383 0.4941626755622255 0.4986790486060075
0.055957446808510634 0.4914162578049061 0.5005814884014586
0.05617021276595745 0.4975509899729642 0.5007327796775769
0.05638297872340425 0.49269558038284217 0.5012680537798514
0.056595744680851066 0.4907954196601938 0.49619475693581205
0.05680851063829787 0.49660579467424676 0.4989975272602916
0.05702127659574468 0.4955163896931429 0.49975574010747437
0.05723404255319149 0.49576126824858757 0.4993103771116613
0.0574468085106383 0.49345803181679404 0.4982176022739763
0.057659574468085104 0.4936651243423605 0.4998287162416261
0.05787234042553192 0.49250611900192814 0.5015209207625879
0.05808510638297872 0.49796911734121935 0.5017098192476794
0.05829787234042553 0.49006675849351866 0.5104217612915326
0.05851063829787234 0.4868383023492889 0.5127865240483548
0.05872340425531915 0.4864389152300802 0.5077951847806526
0.058936170212765954 0.49028370045738656 0.5085490962383976
0.05914893617021277 0.48719583371723546 0.5067366251192872
0.05936170212765957 0.48466041621382006 0.5037614772737563
0.059574468085106386 0.48381308709821136 0.5020668190425389
0.05978723404255319 0.4826927388113641 0.5002794510732106
0.06 0.48215912256027565 0.5007129691068728
0.06021276595744681 0.4880429971245964 0.5007210478192238
0.06042553191489362 0.4907303252174172 0.49475451287739447
0.06063829787234042 0.48570849202347477 0.4919136149991362
0.060851063829787236 0.48412310698583294 0.48863640624554266
0.06106382978723404 0.48412310698583294 0.4889228141935883
0.06127659574468085 0.48604904536355664 0.4908216801641443
0.06148936170212766 0.48581346367609163 0.4867905032461942
0.06170212765957447 0.488684811561306 0.4904421708384941
0.06191489361702127 0.48581936482851806 0.4911659596540936
0.062127659574468086 0.48574311881071797 0.4905001859722188
0.06234042553191489 0.48679719851789854 0.4861697831687618
0.0625531914893617 0.4883606518355148 0.48964483769946504
0.0627659574468085 0.4872682340239645 0.4909623839765511
0.06297872340425532 0.4879337042774356 0.49623925546432024
0.06319148936170213 0.48707063020578534 0.4890247093459904
0.06340425531914894 0.48758069480259764 0.48964741655871413
0.06361702127659574 0.48481181392389067 0.48705422569614076
0.06382978723404255 0.48772503653529514 0.4883958473744496
0.06404255319148935 0.48771029051528036 0.4922603982976165
0.06425531914893617 0.48662620882757446 0.49663861619454064
0.06446808510638298 0.4863886398144402 0.49944428641907224
0.06468085106382979 0.4837279953655801 0.4989726765206551
0.06489361702127659 0.48765456022303144 0.5077956861519739
0.0651063829787234 0.49370595741295886 0.5036638983878847
0.06531914893617022 0.48870451702239126 0.5030563227599756
0.06553191489361702 0.48810545080089357 0.500544158936039
0.06574468085106383 0.4909623839765511 0.5019417085095772
0.06595744680851064 0.4895102802446729 0.4997647105229915
0.06617021276595744 0.491014575843196 0.49698871419120016
0.06638297872340425 0.4903859631255451 0.49901070681607784
0.06659574468085107 0.48713170297081015 0.5044859834086483
0.06680851063829787 0.4833170313808784 0.5052149397256127
0.06702127659574468 0.48694452232843216 0.5030491064637193
0.06723404255319149 0.4907585759906146 0.49814134094382995
0.06744680851063829 0.48636533448848596 0.5033181203529472
0.06765957446808511 0.4889602476836437 0.49101044112925324
0.06787234042553192 0.4886285384330374 0.49238737842174923
0.06808510638297872 0.4916859190234707 0.49309601059468067
0.06829787234042553 0.4909623839765511 0.4880312652662433
0.06851063829787234 0.4923983360695657 0.4899458680569295
0.06872340425531914 0.4921109940642236 0.4913452540057753
0.06893617021276596 0.49297490780101955 0.49230406652619674
0.06914893617021277 0.49236020016386506 0.4959830681627437
0.06936170212765957 0.4945844653152624 0.4941795796285578
0.06957446808510638 0.4967842706516888 0.496925498260861
0.06978723404255319 0.49473359312612336 0.5007511753318128
0.06999999999999999 0.4936406683076797 0.49335353598188747
0.07021276595744681 0.4943895109026398 0.48864004288987495
0.07042553191489362 0.4963416616518455 0.4870653457756011
0.07063829787234042 0.4964458623449098 0.486077186126038
0.07085106382978723 0.49325786919897224 0.486077186126038
0.07106382978723404 0.49360379257994147 0.4835806325761063
0.07127659574468086 0.4938935026868587 0.4813023655046258
0.07148936170212766 0.4978016609672691 0.47917876757474853
0.07170212765957447 0.49833154165135113 0.47843749645991135
0.07191489361702127 0.49868949935423695 0.4780703203791258
0.07212765957446808 0.49593148558187194 0.47655254059191754
0.07234042553191489 0.5003447792086899 0.4787828957889901
0.0725531914893617 0.4959938247154999 0.480508130142471
0.07276595744680851 0.5011395740296131 0.47969687720046034
0.07297872340425532 0.5036638983878847 0.48010119329602974
0.07319148936170213 0.49780644307747574 0.4831436763606271
0.07340425531914893 0.49359621392295105 0.4822116144848174
0.07361702127659574 0.5001250474198011 0.49065851784766307
0.07382978723404256 0.5022686314278727 0.49156085938526217
0.07404255319148936 0.498256148358326 0.4903717670095164
0.07425531914893617 0.49820740193030466 0.4925107221537207
0.07446808510638298 0.49917476076014966 0.49566266270251713
0.07468085106382978 0.49975574010747437 0.5022314246796785
0.0748936170212766 0.49712130040743385 0.5010294586878442
0.07510638297872341 0.49588016185233147 0.5046898079958884
0.07531914893617021 0.49818067905114133 0.5071930385844228
0.07553191489361702 0.4992905237518612 0.5029583060446522
0.07574468085106383 0.49557553975137564 0.4970966634728549
0.07595744680851063 0.49495867367383983 0.4944481210345689
0.07617021276595745 0.4929164631167562 0.48884091287201353
0.07638297872340426 0.49569622834913735 0.48538224481794273
0.07659574468085106 0.49196062845022454 0.48591081204709247
0.07680851063829787 0.49189293774220855 0.486077186126038
0.07702127659574468 0.49201125635333803 0.4881030980729277
0.0772340425531915 0.49272929343902994 0.4876981170922621
0.0774468085106383 0.4922436585701004 0.4836902029628616
0.07765957446808511 0.49333725167675263 0.48579186001615143
0.07787234042553191 0.4944309693572202 0.4835856403154716
0.07808510638297872 0.4935810931329159 0.4837907919777531
0.07829787234042553 0.4929164631167562 0.4879037896535913
0.07851063829787235 0.49465680348588004 0.48465745391353643
0.07872340425531915 0.48901991835843794 0.48020333518333047
0.07893617021276596 0.49024200621668296 0.4797512327557892
0.07914893617021276 0.49291779909289846 0.482656879642608
0.07936170212765957 0.49405128934696524 0.47939569579542635
0.07957446808510638 0.48906426035082984 0.47583225951858193
0.0797872340425532 0.4876431650398987 0.47650762954242554
0.08 0.4887346207808508 0.4751737634512922
0.08021276595744681 0.4873726723855715 0.4751705275101943
0.08042553191489361 0.48705422569614076 0.4762657819216173
0.08063829787234042 0.48908396066210613 0.4802906045311829
0.08085106382978724 0.48941966393195196 0.4813805484336906
0.08106382978723405 0.48705422569614076 0.48363874228231124
0.08127659574468085 0.48511166759273927 0.4862772024547801
0.08148936170212766 0.48316982861721497 0.4861009473275228
0.08170212765957446 0.4884128130516349 0.4876670408483981
0.08191489361702127 0.4873227509708908 0.4880312652662433
0.08212765957446809 0.4810214965741388 0.4897164951168763
0.0823404255319149 0.4869235002944872 0.48998534440644836
0.0825531914893617 0.486077186126038 0.48872406286608927
0.08276595744680851 0.48647466400383566 0.486077186126038
0.08297872340425531 0.4883066370777391 0.48690330156052547
0.08319148936170212 0.4897871637871962 0.48939773431177097
0.08340425531914894 0.4899510857427913 0.48897404617268864
0.08361702127659575 0.4871388814134662 0.48740812412528345
0.08382978723404255 0.48755311411329066 0.49590979361965604
0.08404255319148936 0.4880312652662433 0.4979269234404491
0.08425531914893616 0.48996694865775103 0.4968338192715152
0.08446808510638298 0.48520602987571043 0.4946346859252835
0.08468085106382979 0.48629931850646696 0.5011770444384348
0.0848936170212766 0.4873916429169894 0.5026868588177822
0.0851063829787234 0.4893851765200441 0.5044920738228499
0.08531914893617021 0.48868665477710016 0.5043192878987416
0.08553191489361701 0.48773918508396663 0.5061116557569116
0.08574468085106383 0.4936363951742422 0.512376453732294
0.08595744680851064 0.4902862780444792 0.507933177033932
0.08617021276595745 0.49269161672434075 0.5054493427337782
0.08638297872340425 0.488836682180532 0.5023436135061545
0.08659574468085106 0.48917762460982167 0.5007327796775769
0.08680851063829788 0.49193942354665365 0.5019466455502789
0.08702127659574468 0.4914173242525955 0.5020976005057101
0.08723404255319149 0.49413682806404646 0.49882811322507964
0.0874468085106383 0.49133272052534394 0.4985541378508892
0.0876595744680851 0.4969223763133841 0.49877870053737183
0.08787234042553191 0.4919494884383588 0.4968095240596089
0.08808510638297873 0.49353907030239247 0.49353907030239247
0.08829787234042553 0.49119627029835883 0.49026072501112794
0.08851063829787234 0.4922919966968771 0.48767869211601983
0.08872340425531915 0.49386260294463863 0.4875272956100819
0.08893617021276595 0.4895425008369467 0.4874392606640195
0.08914893617021276 0.49102863258017837 0.48988362366993526
0.08936170212765958 0.49374221547457103 0.4909623839765511
0.08957446808510638 0.49295163680261017 0.4909623839765511
0.08978723404255319 0.4936438279372296 0.494309627269574
0.09 0.4907642003933483 0.4979859662045606
0.0902127659574468 0.4918722941161809 0.49581401711182765
0.09042553191489362 0.49627918794306675 0.4982332670832719
0.09063829787234043 0.49572987780757594 0.5004208159217578
0.09085106382978723 0.49615688936407215 0.4965644308192365
0.09106382978723404 0.4930940981530548 0.49837013057979296
0.09127659574468085 0.4936559793207423 0.49975574010747437
0.09148936170212765 0.4987785494447375 0.5017098947939966
0.09170212765957447 0.49659219102354046 0.5021057828837169
0.09191489361702128 0.49370851052254217 0.49756925462038526
0.09212765957446808 0.4917405040762497 0.49787771719904733
0.09234042553191489 0.497217964928354 0.49975574010747437
0.0925531914893617 0.49799046334390856 0.49975574010747437
0.0927659574468085 0.49470741597101753 0.5054016212438716
0.09297872340425532 0.49306981853230525 0.5034536358955276
0.09319148936170213 0.4929164631167562 0.4998673598036627
0.09340425531914893 0.4929707421633685 0.49606469801351327
0.09361702127659574 0.4944042315947295 0.4989045252610231
0.09382978723404255 0.4959685125488859 0.4945851726408679
0.09404255319148937 0.49308778923462077 0.4946992161390968
0.09425531914893617 0.49298136249081315 0.49220079552250556
0.09446808510638298 0.4932551605710149 0.488369962720502
0.09468085106382979 0.49367330766848194 0.49635655533522705
0.09489361702127659 0.4982657703570305 0.4935319793331657
0.0951063829787234 0.48906314749245977 0.4802697913615365
0.09531914893617022 0.4940188459985472 0.4847241166208701
0.09553191489361702 0.49462799679345004 0.48289666423616184
0.09574468085106383 0.49317379909619835 0.48402059116994484
0.09595744680851064 0.4914629333302678 0.4807395571964701
0.09617021276595744 0.49036912487674816 0.48161094553453154
0.09638297872340426 0.4906969325966645 0.47958812646464993
0.09659574468085107 0.49496595956582734 0.47585872421165165
0.09680851063829787 0.49156323881685177 0.4779003566610369
0.09702127659574468 0.4873851944695729 0.47647227481172827
0.09723404255319149 0.4875759650920909 0.47943722680071305
0.09744680851063829 0.4880312652662433 0.4835051516226129
0.09765957446808511 0.48792305585899665 0.48984106519678616
0.09787234042553192 0.4851478382672113 0.48598180270348634
0.09808510638297872 0.4862783649631973 0.4842236964044126
0.09829787234042553 0.4877384596778829 0.4853929521442959
0.09851063829787234 0.4854870322748689 0.4872509436465305
0.09872340425531914 0.4839821679458398 0.48691646455943066
0.09893617021276596 0.4864195083141946 0.48480775136214604
0.09914893617021277 0.4874021576013632 0.4846854585051483
0.09936170212765957 0.4883547048228197 0.48507998385481543
0.09957446808510638 0.48794747748066924 0.48919433838375675
0.09978723404255319 0.4875727302826012 0.4886943884000236
0.1 0.4875172376250425 0.4916824097260532
0.10021276595744681 0.484547361569589 0.4950763994115213
0.10042553191489362 0.4847232532003505 0.5002022458253393
0.10063829787234042 0.4830637968968154 0.4980664884895235
0.10085106382978723 0.48074177556175063 0.4993055273936999
0.10106382978723404 0.48412310698583294 0.5023908096928805
0.10127659574468086 0.48469606131201504 0.4998989786890199
0.10148936170212766 0.48762670256475255 0.5000585085084257
0.10170212765957447 0.48532601683786014 0.4962240322969384
0.10191489361702127 0.4851001465559355 0.4984680411093324
0.10212765957446808 0.48414921708341035 0.4930731237022208
0.10234042553191489 0.4812533536546525 0.4915098658927619
0.1025531914893617 0.482498103699809 0.48559376033720747
0.10276595744680851 0.48489448509032806 0.48983114751006523
0.10297872340425532 0.48606099706365175 0.4922219325703241
0.10319148936170212 0.48412310698583294 0.48521238547743517
0.10340425531914893 0.48452085793783034 0.4849532845096097
0.10361702127659575 0.4859951245573492 0.48632337083210475
0.10382978723404256 0.48705422569614076 0.4831460674157304
0.10404255319148936 0.4897777352553932 0.48042255785647786
0.10425531914893617 0.4895594805338492 0.4782608695652173
0.10446808510638297 0.4880312652662433 0.483134863600967
0.10468085106382978 0.4857891524708967 0.48705422569614076
0.1048936170212766 0.484988554823599 0.48631723073299327
0.1051063829787234 0.4874672279988033 0.48622822109081537
0.10531914893617021 0.486077186126038 0.490132804160175
0.10553191489361702 0.4868839622551943 0.49436630717623875
0.10574468085106382 0.49312125206270885 0.49114372034267323
0.10595744680851064 0.48843105626474315 0.49891196420353845
0.10617021276595745 0.49175374483408557 0.499953580321858
0.10638297872340426 0.4933938272289222 0.5017172563629364
0.10659574468085106 0.4880111126477251 0.5026465535807458
0.10680851063829787 0.4852431713661737 0.49696764620740475
0.10702127659574467 0.4860397822236039 0.4978016609672691
0.1072340425531915 0.48518493554811754 0.4978016609672691
0.1074468085106383 0.4851001465559355 0.4999632330978385
0.1076595744680851 0.4869195962990592 0.5017098192476794
0.10787234042553191 0.49271037729008993 0.503251726734552
0.10808510638297872 0.49299496099391915 0.5066342660367739
0.10829787234042552 0.489752329227328 0.5020368525895498
0.10851063829787234 0.4909623839765511 0.4981983887328701
0.10872340425531915 0.4913591970549435 0.49877870053737183
0.10893617021276596 0.49461343384537737 0.49877870053737183
0.10914893617021276 0.49321189877676774 0.4997986476908165
0.10936170212765957 0.48730491839779305 0.5024361661161296
0.10957446808510639 0.4905041212446474 0.5042963176905432
0.1097872340425532 0.49717231870697465 0.5046409379579873
0.11 0.4971694642577976 0.5070547923773485
0.1102127659574468 0.4931579929834689 0.5057387424614461
0.11042553191489361 0.49682462139716654 0.5075720566682951
0.11063829787234042 0.49699209003580497 0.5074045880296566
0.11085106382978724 0.4986511064891498 0.5040466805325504
0.11106382978723404 0.4995487902014584 0.49859098728468143
0.11127659574468085 0.4969035586625319 0.49975574010747437
0.11148936170212766 0.4968404769765901 0.49528771193460663
0.11170212765957446 0.4990209881174372 0.4860850753758788
0.11191489361702127 0.4990645747223492 0.4845283981859807
0.11212765957446809 0.49951973232901115 0.482136019389378
0.1123404255319149 0.5021087065313681 0.4835449546994188
0.1125531914893617 0.49437090355002034 0.4758071517180711
0.1127659574468085 0.4929164631167562 0.4789444121606713
0.11297872340425531 0.4929164631167562 0.47430166043043026
0.11319148936170213 0.4929164631167562 0.4708384962396395
0.11340425531914894 0.4947263323062669 0.47496922597817326
0.11361702127659574 0.49863530532226447 0.4668590339579778
0.11382978723404255 0.4949479977554322 0.47036709750592587
0.11404255319148936 0.49403070725998344 0.4696047180074187
0.11425531914893616 0.4951846044119649 0.468821962571741
0.11446808510638298 0.49314255386173084 0.4689413118584137
0.11468085106382979 0.492412589647464 0.469770919089421
0.1148936170212766 0.4970924139162589 0.47091738437173675
0.1151063829787234 0.49540634856434884 0.4729344384519893
0.11531914893617021 0.4974539178651091 0.47515587930382974
0.11553191489361703 0.4937147283420893 0.4733756717147044
0.11574468085106383 0.49319489947893924 0.475324726249986
0.11595744680851064 0.49537800617506794 0.4802149487054226
0.11617021276595745 0.4955179599552713 0.4765610270862261
0.11638297872340425 0.49076954676179985 0.47239863214460187
0.11659574468085106 0.4921567134294 0.4736579955818235
0.11680851063829788 0.4916815949446495 0.4809884345114351
0.11702127659574468 0.49180385143730737 0.4789387301119487
0.11723404255319149 0.4911463958027018 0.4846050915168324
0.1174468085106383 0.49031568824910415 0.486077186126038
0.1176595744680851 0.49060463039877794 0.486077186126038
0.11787234042553191 0.48793076059305635 0.4939594069231242
0.11808510638297873 0.4865352064162147 0.49786265995701845
0.11829787234042553 0.48812654595783245 0.49682462139716654
0.11851063829787234 0.4906916038279026 0.4964184511741938
0.11872340425531915 0.4886921850090355 0.49420962251416906
0.11893617021276595 0.4849200003904974 0.49771158788455
0.11914893617021277 0.48133289618071406 0.4959180357796585
0.11936170212765958 0.48298886291085547 0.49225383255640326
0.11957446808510638 0.4849439547679853 0.491353424043369
0.11978723404255319 0.4870296311938227 0.4948295514197647
0.12 0.4877891357559947 0.4956054523168154
0.1202127659574468 0.4885980757163754 0.5032161176787818
0.12042553191489362 0.48671844995642555 0.5070225263184507
0.12063829787234043 0.4837316846926584 0.5055193638733794
0.12085106382978723 0.48663936206911657 0.5098808799380666
0.12106382978723404 0.48773041022259084 0.5152364670637535
0.12127659574468085 0.48949804775014755 0.520764944831764
0.12148936170212765 0.48916195436448495 0.5220212138255598
0.12170212765957447 0.4850264185425786 0.5176189802171173
0.12191489361702128 0.48632723494237917 0.5155701209175562
0.12212765957446808 0.4905021204246043 0.5144113336590133
0.12234042553191489 0.48944668960690435 0.5133340240599251
0.1225531914893617 0.49087840527742205 0.512457254518808
0.12276595744680852 0.48914225924166777 0.5047650526800967
0.12297872340425532 0.4880312652662433 0.5017098192476794
0.12319148936170213 0.485434804972223 0.4982478721889858
0.12340425531914893 0.4884483065082596 0.49361646102686396
0.12361702127659574 0.49434051075699115 0.4929164631167562
0.12382978723404255 0.483188275570093 0.49583351244227647
0.12404255319148937 0.4886086493955526 0.49409333040725534
0.12425531914893617 0.4849172934990371 0.4962132879408607
0.12446808510638298 0.4828884661061642 0.4978016609672691
0.12468085106382978 0.4789202883718518 0.5009778686019513
0.12489361702127659 0.48050264512642693 0.5060775396274887
0.1251063829787234 0.48325204206896366 0.5040994308463194
0.12531914893617022 0.4847020357573477 0.5051475395403312
0.125531914893617 0.48705422569614076 0.5032917501311475
0.12574468085106383 0.4841155421052251 0.5034730294022288
0.12595744680851065 0.48337084152301907 0.503439124280596
0.12617021276595744 0.4895153029358831 0.5013388098302696
0.12638297872340426 0.48956836057092734 0.49678100805136644
0.12659574468085105 0.4880985512025527 0.495847581827064
0.12680851063829787 0.4974503895856535 0.4915661616818776
0.1270212765957447 0.48820315021273386 0.48615531564717007
0.12723404255319148 0.4878057710630489 0.4861899332276352
0.1274468085106383 0.4871004482024583 0.488077487772561
0.1276595744680851 0.49230610622827636 0.4895879096061344
0.12787234042553192 0.4915929355399148 0.4818225398388888
0.1280851063829787 0.4880312652662433 0.48123844509218094
0.12829787234042553 0.49094002682361454 0.48460044819441594
0.12851063829787235 0.49023451143213626 0.48765751472771146
0.12872340425531914 0.4900017124137785 0.4822263158712831
0.12893617021276596 0.4922147743715245 0.488732954011475
0.12914893617021275 0.4947040542738938 0.48705422569614076
0.12936170212765957 0.49520845249648054 0.48786231014648374
0.1295744680851064 0.49399236431771265 0.489546255436824
0.12978723404255318 0.49420165240286723 0.4886475646982602
0.13 0.49309686941652187 0.48882789853658015
0.1302127659574468 0.49384540727457304 0.48343463988944435
0.13042553191489362 0.49694244199038123 0.4851001465559355
0.13063829787234044 0.49840778024517113 0.4847292262637348
0.13085106382978723 0.49682462139716654 0.4831460674157304
0.13106382978723405 0.4972774938198493 0.4835989398384132
0.13127659574468084 0.4978016609672691 0.4879284890930429
0.13148936170212766 0.5022823100770811 0.48968219851660477
0.13170212765957448 0.4984699387218013 0.4882369299318226
0.13191489361702127 0.49501970822024 0.49073863503163334
0.1321276595744681 0.49866034242828433 0.4889372899708933
0.13234042553191488 0.4938935026868587 0.48641714416559845
0.1325531914893617 0.49406849157255694 0.489183293722044
0.1327659574468085 0.495402785143899 0.4923804373976674
0.13297872340425532 0.4952531587394331 0.4948500438930382
0.13319148936170214 0.4929164631167562 0.48900830483634583
0.13340425531914893 0.4946541917328436 0.49016679058040413
0.13361702127659575 0.4944413394867351 0.49166550514671553
0.13382978723404254 0.4915219637840115 0.4871963457409588
0.13404255319148936 0.4951571247355668 0.49111087503685696
0.13425531914893618 0.4992625308271959 0.49108568629662075
0.13446808510638297 0.4951628853646507 0.4909623839765511
0.1346808510638298 0.4929164631167562 0.4898118553905952
0.13489361702127659 0.4929164631167562 0.4833314932562166
0.1351063829787234 0.48645748517374754 0.4831460674157304
0.13531914893617022 0.4904258575985186 0.4831460674157304
0.13553191489361702 0.4917685628323807 0.48395224627155997
0.13574468085106384 0.4869173746787752 0.47575302553936893
0.13595744680851063 0.4923661931193239 0.47614957042574585
0.13617021276595745 0.4900307144241928 0.47823062288672097
0.13638297872340424 0.4957849384271786 0.4851001465559355
0.13659574468085106 0.4928861638595613 0.4851001465559355
0.13680851063829788 0.4921354329417142 0.4853941606485263
0.13702127659574467 0.49373114527274986 0.4877065504380255
0.1372340425531915 0.4929164631167562 0.4873253092159252
0.13744680851063829 0.4932059053646849 0.4930971925383685
0.1376595744680851 0.4942589461002672 0.4947512515868387
0.13787234042553193 0.4935476952133492 0.4933574121312936
0.13808510638297872 0.49142930335343776 0.4938935026868587
0.13829787234042554 0.4892871766917458 0.4944519051151272
0.13851063829787233 0.4867855704620672 0.4905106104423455
0.13872340425531915 0.4938772550948748 0.48944945962421355
0.13893617021276597 0.4905306136029491 0.4915588463550028
0.13914893617021276 0.48687089678213885 0.49122695419525136
0.13936170212765958 0.4920672730093246 0.4891653579115651
0.13957446808510637 0.49102045196963096 0.48501430910534765
0.1397872340425532 0.4873116795732912 0.4831460674157304
0.13999999999999999 0.48535093438698906 0.4831460674157304
0.1402127659574468 0.4899931391342288 0.48310709377682826
0.14042553191489363 0.49028580723622933 0.4790727616536034
0.14063829787234042 0.4865934942986361 0.48489756924473004
0.14085106382978724 0.48567888084572974 0.48666216162605513
0.14106382978723403 0.48371778035327195 0.486077186126038
0.14127659574468085 0.4870094337904985 0.4848043279696628
0.14148936170212767 0.48579747594329553 0.48486770342681546
0.14170212765957446 0.48680377622536014 0.4851001465559355
0.14191489361702128 0.4861091131553402 0.48993745386249504
0.14212765957446807 0.49082096125872404 0.4807725649175515
0.1423404255319149 0.4843978087214528 0.4768873608871177
0.1425531914893617 0.4851001465559355 0.47260780649781753
0.1427659574468085 0.48415847870967554 0.47142159257449934
0.14297872340425533 0.4831460674157304 0.4684460031689605
0.14319148936170212 0.4838710802945368 0.4716114848756313
0.14340425531914894 0.4814548722841571 0.4813803758197318
0.14361702127659573 0.4865985932580271 0.4879373219126486
0.14382978723404255 0.4831413502660151 0.4940371230394865
0.14404255319148937 0.4850756515630484 0.49874604054685573
0.14425531914893616 0.48447963340177397 0.5044085141728786
0.14446808510638298 0.4807279593244474 0.5110651676655746
0.14468085106382977 0.4825601575976125 0.5130415947172069
0.1448936170212766 0.4815680617984635 0.5105781395533447
0.1451063829787234 0.4821513859567152 0.5088982986136487
0.1453191489361702 0.48082889865815753 0.5091168358400102
0.14553191489361703 0.4820276365373963 0.5131515114724478
0.14574468085106382 0.4823462072695179 0.515270253613189
0.14595744680851064 0.48478342427725446 0.513592655228251
0.14617021276595746 0.483722961417599 0.5152766746618161
0.14638297872340425 0.48383705494661683 0.5152372996871232
0.14659574468085107 0.48327336961685874 0.512457254518808
0.14680851063829786 0.4861715447419041 0.5138228796895221
0.14702127659574468 0.48868484523778 0.5119654043465542
0.14723404255319147 0.49548064086408133 0.5082440469348377
0.1474468085106383 0.49065660594661364 0.5075720566682951
0.14765957446808511 0.4949956157502937 0.5056805142747559
0.1478723404255319 0.49845273479161406 0.5075720566682951
0.14808510638297873 0.4971200052676565 0.507867440538785
0.14829787234042552 0.4990933303026091 0.5072574269030575
0.14851063829787234 0.49791394562290164 0.5056179775280898
0.14872340425531916 0.49718840566486483 0.5049475656091894
0.14893617021276595 0.4978016609672691 0.5023346878628172
0.14914893617021277 0.4952954830598615 0.49920364134027184
0.14936170212765956 0.4965379874835208 0.49627753269753266
0.14957446808510638 0.49682462139716654 0.49056285958599644
0.1497872340425532 0.4958761347631898 0.49283080430837883
0.15 0.4912101288999724 0.48882249614377987
0.15021276595744681 0.49845185199431763 0.4832550169300818
0.1504255319148936 0.495437534545141 0.48425978941314063
0.15063829787234043 0.4932981979859118 0.48497290159955025
0.15085106382978725 0.49598533507574016 0.4851001465559355
0.15106382978723404 0.49819948516053153 0.48853730596434763
0.15127659574468086 0.49734479049852676 0.48998534440644836
0.15148936170212765 0.4982875717436735 0.4909613403730922
0.15170212765957447 0.504658387785792 0.49368026052190367
0.15191489361702126 0.4969177108350016 0.49240487073582884
0.15212765957446808 0.4977049351848401 0.4963409924850216
0.1523404255319149 0.5079394155590146 0.5014326916661417
0.1525531914893617 0.49795688484749334 0.5045986041724716
0.15276595744680851 0.4978016609672691 0.4998337447518767
0.1529787234042553 0.49876261921060444 0.5007166983508096
0.15319148936170213 0.49882139795020886 0.5024306743407599
0.15340425531914895 0.5002662646892251 0.49716497111833374
0.15361702127659574 0.5045714025176994 0.5007327796775769
0.15382978723404256 0.49877870053737183 0.49959596330664263
0.15404255319148935 0.4984975971047297 0.49627605942017183
0.15425531914893617 0.49816784923658025 0.498657175299541
0.154468085106383 0.497861858511803 0.49682462139716654
0.15468085106382978 0.49904427338770624 0.49626970839953166
0.1548936170212766 0.49698498059347124 0.4952229486463798
0.1551063829787234 0.4955282247953661 0.4961859073337707
0.15531914893617021 0.49390833609956725 0.49682462139716654
0.155531914893617 0.4929051492546579 0.4965027128278318
0.15574468085106383 0.49419887808942775 0.4921534289056288
0.15595744680851065 0.49261154672041535 0.4841853973669129
0.15617021276595744 0.49119490857930165 0.48477483023135953
0.15638297872340426 0.48998534440644836 0.48398308929145484
0.15659574468085105 0.4888428584215526 0.47483341161052994
0.15680851063829787 0.4908295583065038 0.4779952182251229
0.1570212765957447 0.48861033901823514 0.46939542398806255
0.15723404255319148 0.4918825317531791 0.4752159672679605
0.1574468085106383 0.48923731465873543 0.47716932508391996
0.1576595744680851 0.4907274951485991 0.47842078987658027
0.15787234042553192 0.489254667889157 0.48400413177999835
0.15808510638297874 0.4870443681330365 0.4816755792790243
0.15829787234042553 0.486077186126038 0.4836850657615575
0.15851063829787235 0.48834032345449824 0.4851001465559355
0.15872340425531914 0.48900830483634583 0.48244901732518963
0.15893617021276596 0.48900830483634583 0.48216902784562765
0.15914893617021275 0.48800305419843865 0.4831836821728033
0.15936170212765957 0.4852297946191721 0.48728759220996665
0.1595744680851064 0.4901385126469896 0.4946222359027344
0.15978723404255318 0.4892812010289019 0.48887185674006794
0.16 0.4851001465559355 0.4909623839765511
0.1602127659574468 0.4840106496332241 0.4909623839765511
0.16042553191489362 0.4837832827342701 0.4903251686580113
0.16063829787234044 0.48486689159437907 0.4922166982320869
0.16085106382978723 0.4833486880599535 0.49379219236474714
0.16106382978723405 0.4832147623957373 0.4928821156267527
0.16127659574468084 0.4851001465559355 0.49310218914399717
0.16148936170212766 0.4853952854755083 0.49612245026121626
0.16170212765957448 0.48564867452573496 0.48912832120584226
0.16191489361702127 0.48559695980076684 0.49001851824556897
0.1621276595744681 0.48942133583406217 0.48803791555395887
0.16234042553191488 0.49262581531852956 0.4885321054153152
0.1625531914893617 0.48474981130767464 0.48426868814009133
0.1627659574468085 0.48409685147784143 0.48124449929150814
0.16297872340425532 0.4823893883083805 0.4799945882426697
0.16319148936170214 0.48436444651331684 0.47753685098276555
0.16340425531914893 0.4840262490399499 0.47461381917758594
0.16361702127659575 0.48264966720676006 0.47049183554791046
0.16382978723404254 0.48192996801684695 0.4650812354963222
0.16404255319148936 0.4848334434384259 0.46287698498109836
0.16425531914893618 0.4813888870457105 0.46262823644357587
0.16446808510638297 0.48182386819453166 0.4618237766990213
0.1646808510638298 0.48216902784562765 0.46249039989194374
0.16489361702127658 0.4858841436922172 0.47655992086828675
0.1651063829787234 0.4822035745501357 0.474421804693823
0.16531914893617022 0.48302663215143926 0.4771428372750501
0.16553191489361702 0.4824608076923868 0.48372962710924866
0.16574468085106384 0.4834843215840065 0.4881188680325181
0.16595744680851063 0.4811919882755251 0.49371083967967855
0.16617021276595745 0.4809291342184259 0.5006186789370661
0.16638297872340424 0.4810947719239742 0.5062045263404575
0.16659574468085106 0.4834870568880855 0.5085950250853605
0.16680851063829788 0.4854209516792343 0.5130988647654056
0.16702127659574467 0.4859795061485504 0.5136786139302425
0.1672340425531915 0.48346838473496434 0.513655897376667
0.16744680851063828 0.4826936120362226 0.5122408680855468
0.1676595744680851 0.48638268521950706 0.5084472632072413
0.16787234042553192 0.4905923159833071 0.5075720566682951
0.16808510638297872 0.49243399937465177 0.5070774808402969
0.16829787234042554 0.4906528707644451 0.5052368616868058
0.16851063829787233 0.4880312652662433 0.5019752906643288
0.16872340425531915 0.4887718050528037 0.5014836662761153
0.16893617021276597 0.4905070415971636 0.5055325515462883
0.16914893617021276 0.49151361669969207 0.5071462498213335
0.16936170212765958 0.4922959177175156 0.5061460799848473
0.16957446808510637 0.4929164631167562 0.5048133471510636
0.1697872340425532 0.4934498763342849 0.5081934874267118
0.17 0.49497763320102023 0.5069429965486101
0.1702127659574468 0.4909623839765511 0.5085490962383976
0.17042553191489362 0.49193326327755016 0.5070927772868992
0.17063829787234042 0.49542419606914184 0.5032405126299626
0.17085106382978724 0.4971933689508368 0.5027972001896357
0.17106382978723403 0.4978016609672691 0.5006823038046719
0.17127659574468085 0.49863321350834106 0.5004624904360716
0.17148936170212767 0.49943561246942486 0.4994189558134709
0.17170212765957446 0.4977679975734741 0.4997220767136792
0.17191489361702128 0.49668211205775753 0.4991925446850916
0.17212765957446807 0.49842906855146246 0.5040853867614195
0.1723404255319149 0.4973368763425186 0.5024119554754378
0.1725531914893617 0.4992125114112911 0.4978016609672691
0.1727659574468085 0.5000046191685794 0.501442463512257
0.17297872340425532 0.4963129292134615 0.4906370206887371
0.17319148936170212 0.49681213903663923 0.492829086593065
0.17340425531914894 0.4957060058790388 0.486077186126038
0.17361702127659576 0.495679448916324 0.4852682794666755
0.17382978723404255 0.49579796063780246 0.483947547547517
0.17404255319148937 0.49344672276930984 0.48669092551359655
0.17425531914893616 0.4925732745395382 0.4860509230452623
0.17446808510638298 0.4951052984038274 0.4835172091273487
0.17468085106382977 0.4930744490945594 0.4785241795282226
0.1748936170212766 0.49608423547247077 0.4751719817579718
0.1751063829787234 0.49709738131942244 0.47274517700797336
0.1753191489361702 0.49158472803995357 0.47075572503609786
0.17553191489361702 0.4944273858197765 0.4733102459532747
0.17574468085106382 0.4953046716523634 0.47225359110553733
0.17595744680851064 0.49325799819350674 0.4697614828508954
0.17617021276595746 0.4929164631167562 0.4737221782954298
0.17638297872340425 0.49148454274779785 0.47461379067043036
0.17659574468085107 0.4985285294777931 0.469308614283979
0.17680851063829786 0.4948853787344501 0.4684904738641915
0.17702127659574468 0.4882913981114226 0.4778040956854734
0.1772340425531915 0.48894440117472127 0.4806715166596616
0.1774468085106383 0.4878522330056862 0.4785278903834608
0.1776595744680851 0.49010837676108826 0.4806998588569659
0.1778723404255319 0.48900830483634583 0.4851001465559355
0.17808510638297873 0.4903971362268446 0.4892666407274316
0.17829787234042552 0.4909623839765511 0.4893071689168707
0.17851063829787234 0.4948023340600226 0.4755684795441958
0.17872340425531916 0.48878430133679207 0.47510574735535593
0.17893617021276595 0.48655940581143314 0.4733756717147044
0.17914893617021277 0.4858045980699333 0.47408012322870224
0.17936170212765956 0.487889443061508 0.4765825769029605
0.17957446808510638 0.48900830483634583 0.48135704072154073
0.1797872340425532 0.48900830483634583 0.48538034411910863
0.18 0.4904944386603843 0.4927647883342108
0.1802127659574468 0.4909623839765511 0.49316221287760054
0.1804255319148936 0.48999811369387597 0.49195219283408126
0.18063829787234043 0.4874794068598055 0.49894877300283774
0.18085106382978725 0.4914050700002108 0.5011602625147312
0.18106382978723404 0.4868157532810424 0.5034485758824956
0.18127659574468086 0.4879398558201759 0.500873341923957
0.18148936170212765 0.4904568119316534 0.5036980029075774
0.18170212765957447 0.48683038492685066 0.5059029217498264
0.18191489361702126 0.4851001465559355 0.5094704606695831
0.18212765957446808 0.4887646975973026 0.5178322774613372
0.1823404255319149 0.4854283504278221 0.5111595831223761
0.1825531914893617 0.4849132574670716 0.5204013534569779
0.1827659574468085 0.4827931959965613 0.5185907886711881
0.1829787234042553 0.48930517027112297 0.5205140712250965
0.18319148936170213 0.482144002908201 0.5150777439018863
0.18340425531914895 0.48223275641386565 0.5128501814515024
0.18361702127659574 0.48337446281338003 0.5111376218522308
0.18382978723404256 0.4845161692128946 0.5094250622529589
0.18404255319148935 0.4858390870801848 0.508179625976273
0.18425531914893617 0.48735174473286386 0.5074232971499335
0.184468085106383 0.48886440238554285 0.506666968323594
0.18468085106382978 0.48841418960564414 0.5030303257139823
0.1848936170212766 0.4877576127765206 0.4990908647392405
0.1851063829787234 0.48710103594739707 0.4951514037644993
0.1853191489361702 0.4896949285578796 0.493990307969715
0.185531914893617 0.4884318161649805 0.4869026256002528
0.18574468085106383 0.48669342739214205 0.4844312276188849
0.18595744680851065 0.4869300598308703 0.4829859420460566
0.18617021276595744 0.48825027855069913 0.4812256504196181
0.18638297872340426 0.48991469811170457 0.48202773525613996
0.18659574468085105 0.49001422472471323 0.48175270885623844
0.18680851063829787 0.4875215889023327 0.47973348111332437
0.1870212765957447 0.4866843561606401 0.4820364588092285
0.18723404255319148 0.4858479054348572 0.4843523876770139
0.1874468085106383 0.48698647750254853 0.48761525448475285
0.1876595744680851 0.4886772667330731 0.48642429896902645
0.18787234042553191 0.4882850379487467 0.4858234134435346
0.18808510638297873 0.4871804688180897 0.4852263896778844
0.18829787234042553 0.48805488830144456 0.484087672433031
0.18851063829787235 0.49166780438800683 0.47758182166860036
0.18872340425531914 0.4915886419189198 0.47364288796678294
0.18893617021276596 0.4930446150647463 0.4723505921688657
0.18914893617021278 0.4932798385806711 0.47106933858841604
0.18936170212765957 0.49682462139716654 0.4730647162602696
0.1895744680851064 0.4944252726638247 0.4741754546258183
0.18978723404255318 0.4957544535761406 0.49110126928834297
0.19 0.49674536494860577 0.48385937545277713
0.1902127659574468 0.49682462139716654 0.4851661421645946
0.19042553191489361 0.49715331308128113 0.48721857153819803
0.19063829787234043 0.49877870053737183 0.48773573878102644
0.19085106382978723 0.49877870053737183 0.4874838127605556
0.19106382978723405 0.49877870053737183 0.4852119718965012
0.19127659574468084 0.5001590651143658 0.4845264319927243
0.19148936170212766 0.5007327796775769 0.4883434283741546
0.19170212765957448 0.5063742120913789 0.48430711115817765
0.19191489361702127 0.5009215277718764 0.4906792618351019
0.1921276595744681 0.5020053930123604 0.4880312652662433
0.19234042553191488 0.5004732669534859 0.49161889949630155
0.1925531914893617 0.5031791280927292 0.49829143058228575
0.19276595744680852 0.5046409379579873 0.4938179540932674
0.19297872340425531 0.49864223830163085 0.49246205889064015
0.19319148936170213 0.49331262905373957 0.4929164631167562
0.19340425531914893 0.49385995025762075 0.49753324153336537
0.19361702127659575 0.4940364223591639 0.48982535022896156
0.19382978723404254 0.49766373594564745 0.48900830483634583
0.19404255319148936 0.49193942354665365 0.48900830483634583
0.19425531914893618 0.4924672845196444 0.4932311926202719
0.19446808510638297 0.4923335132241614 0.4974075712897613
0.1946808510638298 0.4906182593044195 0.4931775861194498
0.19489361702127658 0.4923589046909722 0.49570950454559864
0.1951063829787234 0.4901413254909832 0.49404948377139357
0.19531914893617022 0.48840168912023263 0.4998298248782722
0.19553191489361701 0.4919837550300757 0.5007327796775769
0.19574468085106383 0.4891038531866092 0.5012690736377599
0.19595744680851063 0.4915404237643568 0.5018888592531885
0.19617021276595745 0.4904389779133128 0.5017795918040534
0.19638297872340427 0.4919333163443751 0.5000895629005466
0.19659574468085106 0.4944734324633722 0.49566476184413993
0.19680851063829788 0.4885063239632257 0.49305219417303686
0.19702127659574467 0.48992038226359114 0.4918744614037964
0.1972340425531915 0.4886242498354127 0.4909623839765511
0.19744680851063828 0.4864329592346251 0.4915836504380667
0.1976595744680851 0.48687775153515717 0.4951384693407833
0.19787234042553192 0.4866951090214975 0.49664506305984496
0.19808510638297872 0.4830673494230257 0.4972027799156704
0.19829787234042554 0.48453609661803887 0.4993797068155433
0.19851063829787233 0.4869412865686823 0.4923911800564874
0.19872340425531915 0.4852572566501081 0.48916541493051846
0.19893617021276597 0.487267954864653 0.4911761131450634
0.19914893617021276 0.487057270223613 0.4906407634898132
0.19936170212765958 0.48632552660517825 0.4880312652662433
0.19957446808510637 0.48749499262326046 0.48749499262326046
0.1997872340425532 0.487715886575188 0.48639256481709336
0.2 0.4925499664264373 0.4898427704261999
0.2002127659574468 0.49251377413767966 0.49418175059130237
0.20042553191489362 0.49074658421233 0.4978016609672691
0.20063829787234042 0.48867493554024766 0.49833505184102617
0.20085106382978724 0.48471744284001694 0.5046670401613954
0.20106382978723403 0.48412310698583294 0.49328933363177113
0.20127659574468085 0.4849950078871339 0.492706185779153
0.20148936170212767 0.4860347703526167 0.4910472155233937
0.20170212765957446 0.4888434015849486 0.4909623839765511
0.20191489361702128 0.4823798960017577 0.489305281767904
0.20212765957446807 0.48265272773502754 0.4882779351065947
0.2023404255319149 0.48247370183939775 0.4839970718082479
0.2025531914893617 0.4828695190370311 0.4828695190370311
0.2027659574468085 0.4839411386012405 0.48235099623022015
0.20297872340425532 0.48043130362690206 0.4784772244866968
0.20319148936170212 0.4861840574674131 0.48124542394621267
0.20340425531914894 0.48779257480633226 0.48204968261567216
0.20361702127659576 0.4853655873613918 0.47861479063915907
0.20382978723404255 0.4860666449284948 0.48019386631033606
0.20404255319148937 0.48555134420016083 0.491037583583922
0.20425531914893616 0.4909370761635751 0.4919267696401657
0.20446808510638298 0.4886290184969371 0.4918473854351714
0.20468085106382977 0.486077186126038 0.49882797322485434
0.2048936170212766 0.48685001714436116 0.5017098192476794
0.2051063829787234 0.4880312652662433 0.5043087857065667
0.2053191489361702 0.48999057206894625 0.5079012216333277
0.20553191489361702 0.48468731443529867 0.5061959451604279
0.20574468085106382 0.48556891671831615 0.508848443264871
0.20595744680851064 0.4879132767583073 0.5104441811246349
0.20617021276595746 0.4852435640130582 0.5140527900162065
0.20638297872340425 0.48684964135800485 0.5089123827940925
0.20659574468085107 0.486077186126038 0.5075937569742597
0.20680851063829786 0.48790155275711006 0.5118065940973403
0.20702127659574468 0.48998534440644836 0.5103050969761352
0.2072340425531915 0.48998534440644836 0.5103059281645772
0.2074468085106383 0.4875910182743929 0.5170669759235019
0.2076595744680851 0.48705422569614076 0.5127555884000875
0.2078723404255319 0.4883632039344188 0.5158675047969551
0.20808510638297872 0.49150633831585916 0.5109362606093973
0.20829787234042554 0.4892885543204291 0.511412069389779
0.20851063829787234 0.4880312652662433 0.51095803953119
0.20872340425531916 0.4886395356670969 0.5100241729153935
0.20893617021276595 0.48975008215322546 0.5048402096539992
0.20914893617021277 0.490860767529825 0.5010376290177552
0.20936170212765956 0.48900830483634583 0.500579978978328
0.20957446808510638 0.48870112686891326 0.49471695327324516
0.2097872340425532 0.48789804204106163 0.49276841422696416
0.21 0.4891567679749275 0.4870853268961254
0.2102127659574468 0.4891243019351127 0.4836925857501651
0.2104255319148936 0.488626282254101 0.4861617002143542
0.21063829787234042 0.49046560259770133 0.4797512137017666
0.21085106382978724 0.49629884023975457 0.47737146018801674
0.21106382978723404 0.49877870053737183 0.47835350215522826
0.21127659574468086 0.49819904132545634 0.4817716474874406
0.21148936170212765 0.4957222218337551 0.48441880289450057
0.21170212765957447 0.4991593304954993 0.4814901930815126
0.2119148936170213 0.49651758487932884 0.4808849517576874
0.21212765957446808 0.49599341416952825 0.4769921653101864
0.2123404255319149 0.49682462139716654 0.47400460613818557
0.2125531914893617 0.49760312074399093 0.47259717236788
0.2127659574468085 0.49415354563834685 0.47148660331237136
0.2129787234042553 0.49662043047547905 0.47601038726053474
0.21319148936170212 0.49430011349906616 0.4846935357437281
0.21340425531914894 0.4951676438275083 0.48416597441506387
0.21361702127659574 0.4943693926329798 0.4865530760721591
0.21382978723404256 0.4973184703067348 0.491338099783244
0.21404255319148935 0.4973083712328649 0.48801218546883135
0.21425531914893617 0.49917428187580454 0.48999328692376803
0.214468085106383 0.4939088717581513 0.48678604944132026
0.21468085106382978 0.4937492465452582 0.4902411032685484
0.2148936170212766 0.49476472128027776 0.49270482116338876
0.2151063829787234 0.4948705422569615 0.48635384822374395
0.2153191489361702 0.4948705422569615 0.4841879900812684
0.21553191489361703 0.49292602135593483 0.4908476851064072
0.21574468085106382 0.4940987994252647 0.47908393658151555
0.21595744680851064 0.4976322635174047 0.4764338385124105
0.21617021276595744 0.4920410042195407 0.4763067904250122
0.21638297872340426 0.48766786318108524 0.4746595300272792
0.21659574468085105 0.4885195888164996 0.47526856323503125
0.21680851063829787 0.4902497675588186 0.47634992494898065
0.2170212765957447 0.49197994630113767 0.4774312866629301
0.21723404255319148 0.49371012504345646 0.4785126483768794
0.2174468085106383 0.4944132216666091 0.4795808995780843
0.2176595744680851 0.4930244891463573 0.48062244896827305
0.2178723404255319 0.49163575662610537 0.48166399835846196
0.21808510638297873 0.4946906874499947 0.4812369519772668
0.21829787234042553 0.49489907590027465 0.4828013651301539
0.21851063829787234 0.4892083013053674 0.4849116214744166
0.21872340425531914 0.49049706625498524 0.4831460674157304
0.21893617021276596 0.49290176547512465 0.4819677408749547
0.21914893617021278 0.4865419556369453 0.4790055243798664
0.21936170212765957 0.48805759393500714 0.4783398555715088
0.2195744680851064 0.48848110571985776 0.4796103909260607
0.21978723404255318 0.4889046175047083 0.4808809262806125
0.22 0.48932812928955893 0.4821514616351645
0.2202127659574468 0.4897516410744095 0.4834219969897163
0.2204255319148936 0.4901722306790756 0.4839362207132057
0.22063829787234043 0.4905892223236098 0.4835192290686715
0.22085106382978723 0.4910062139681439 0.4831022374241374
0.22106382978723405 0.4914232056126781 0.4826852457796032
0.22127659574468084 0.49184019725721223 0.4822682541350691
0.22148936170212766 0.48983825668020675 0.48637136157852146
0.22170212765957448 0.48960913314650295 0.4898337501967147
0.22191489361702127 0.49133831284433854 0.49547227876951827
0.2221276595744681 0.4918665331596171 0.4982829431109191
0.22234042553191488 0.48914552378951154 0.4943134129953272
0.2225531914893617 0.48533276042423057 0.4937911403201563
0.22276595744680852 0.48514278149431866 0.4962443199144034
0.2229787234042553 0.48527889915886574 0.4970033740000968
0.22319148936170213 0.4869579989303795 0.5005403261460544
0.22340425531914893 0.48705422569614076 0.4992244378973398
0.22361702127659575 0.4839138870507232 0.5042742931668525
0.22382978723404254 0.48677767261022964 0.5056179775280898
0.22404255319148936 0.4853369489613356 0.5039007007932849
0.22425531914893618 0.4851001465559355 0.5065145927260427
0.22446808510638297 0.4853895817644427 0.5083561394327262
0.2246808510638298 0.4880312652662433 0.5065950170981925
0.22489361702127658 0.49057447590758824 0.5062317012922861
0.2251063829787234 0.490911629022103 0.5051231133737325
0.22531914893617022 0.49018911216439814 0.5040139606643358
0.225531914893617 0.4866111207413362 0.5051862706179753
0.22574468085106383 0.4877880442107805 0.5100978069528315
0.22595744680851063 0.48885618307432316 0.5075213494142875
0.22617021276595745 0.48624918919301013 0.5060790078972762
0.22638297872340427 0.48652666660091226 0.503927677935499
0.22659574468085106 0.48618229952772685 0.5039195026434597
0.22680851063829788 0.48935415584341824 0.5018049317663322
0.22702127659574467 0.4909623839765511 0.5047432049239581
0.2272340425531915 0.49448600392327646 0.5061626086896048
0.22744680851063828 0.49085192472352573 0.508115806079859
0.2276595744680851 0.4938531689284121 0.5066151839774159
0.22787234042553192 0.49426020604104737 0.5065941810571254
0.22808510638297871 0.4955545709386429 0.5002637602908838
0.22829787234042553 0.4927117582942329 0.5005513171263105
0.22851063829787233 0.4954503646610076 0.4951460225976912
0.22872340425531915 0.49682462139716654 0.48934259614809944
0.22893617021276597 0.4960440116384062 0.48490882623120185
0.22914893617021276 0.495847581827064 0.48139986815373376
0.22936170212765958 0.4978016609672691 0.47709555246480045
0.22957446808510637 0.49760801843714103 0.47454635381493504
0.2297872340425532 0.49747645533089385 0.4746779169211824
0.23 0.49647395252194165 0.4752194701270485
0.2302127659574468 0.4956797802195387 0.47668840415088815
0.23042553191489362 0.49682462139716654 0.4806830359769013
0.23063829787234041 0.4943057591347978 0.48048978633738193
0.23085106382978723 0.49581110830405084 0.48117375151401853
0.23106382978723405 0.4966092818479905 0.48596951635144997
0.23127659574468085 0.4948705422569615 0.4857888179404137
0.23148936170212767 0.4948705422569615 0.4892427992494191
0.23170212765957446 0.49523454353546215 0.4896213431279477
0.23191489361702128 0.49676403399431746 0.4899247570035994
0.23212765957446807 0.4955868396230299 0.49040867864049126
0.2323404255319149 0.4938935026868587 0.48861357405463146
0.2325531914893617 0.4980000369553321 0.4896738789736325
0.2327659574468085 0.5016530964539487 0.4909434763786409
0.23297872340425532 0.503634202478936 0.49413837099946967
0.23319148936170211 0.4943273786076357 0.4887897293792487
0.23340425531914893 0.4971450863031984 0.4942217900188942
0.23361702127659575 0.49897299461802996 0.4936992086062006
0.23382978723404255 0.49981221775565476 0.49688109904534705
0.23404255319148937 0.501445104100618 0.49975574010747437
0.23425531914893616 0.5007918646712463 0.5028641137987903
0.23446808510638298 0.501060948757468 0.5030224955672439
0.2346808510638298 0.5007327796775769 0.5048360388046416
0.2348936170212766 0.4998228328647704 0.5047080307152833
0.2351063829787234 0.4956250353444262 0.5007884162982363
0.2353191489361702 0.4920847892009392 0.5014190879391083
0.23553191489361702 0.49369811926731433 0.49741089412818035
0.23574468085106381 0.4929164631167562 0.49519613692434084
0.23595744680851063 0.4929164631167562 0.4948072766802864
0.23617021276595745 0.4964507352229024 0.49643662717808834
0.23638297872340425 0.4980570388390371 0.49177298950882425
0.23659574468085107 0.4943853788480963 0.492547555995828
0.23680851063829786 0.4948529364626026 0.49193062064947424
0.23702127659574468 0.4926503520797155 0.49069627293951046
0.2372340425531915 0.49175055843715926 0.486906506274724
0.2374468085106383 0.491915519102287 0.4811919882755251
0.2376595744680851 0.488360678401179 0.48053316200565366
0.2378723404255319 0.48855835856099855 0.4774381240339309
0.23808510638297872 0.48860674945710547 0.47130136151887414
0.23829787234042554 0.4875996086868018 0.46637742963987533
0.23851063829787233 0.48635016327589803 0.4634471678931559
0.23872340425531915 0.4852985453324529 0.4634068772371611
0.23893617021276595 0.4851001465559355 0.4645141031466019
0.23914893617021277 0.4830834346017157 0.46580988640994236
0.23936170212765956 0.4823535773261498 0.4702057113563825
0.23957446808510638 0.4831460674157304 0.4736847389925276
0.2397872340425532 0.48270796097935836 0.4761051370302948
0.24 0.4827017946752223 0.4798591700540009
0.2402127659574468 0.4844150887500262 0.482461009609821
0.2404255319148936 0.4835668039430312 0.4808460534963739
0.24063829787234042 0.4912432432186639 0.4874124383080302
0.24085106382978724 0.4852125207049765 0.4911871322746331
0.24106382978723404 0.48743377110089414 0.4948705422569615
0.24127659574468086 0.48900830483634583 0.4955139126133891
0.24148936170212765 0.487180187026493 0.497738680302093
0.24170212765957447 0.4851001465559355 0.49877870053737183
0.2419148936170213 0.4851001465559355 0.49877870053737183
0.24212765957446808 0.4851001465559355 0.49877870053737183
0.2423404255319149 0.4860728523010891 0.497805994792218
0.2425531914893617 0.4897260620548544 0.4992371754042864
0.2427659574468085 0.48725021326930457 0.495847581827064
0.2429787234042553 0.4898126579681669 0.4962402911114166
0.24319148936170212 0.4929262661015034 0.49828650463304025
0.24340425531914894 0.48670324923833497 0.5014845318059825
0.24361702127659574 0.4851001465559355 0.5026868588177822
0.24382978723404256 0.4859396719795656 0.5018473333941519
0.24404255319148935 0.48510676937965047 0.5085027364723927
0.24425531914893617 0.4882926364125217 0.508742022369665
0.244468085106383 0.48867584404614417 0.5044495986040672
0.24468085106382978 0.4847073639346548 0.5042383213705083
0.2448936170212766 0.48361918211870136 0.5007327796775769
0.2451063829787234 0.4878353260300774 0.4995604650239902
0.2453191489361702 0.4867961883681808 0.5008617983415569
0.24553191489361703 0.4859244305551727 0.49676411525225594
0.24574468085106382 0.4870316166963112 0.498710873537883
0.24595744680851064 0.48900830483634583 0.5040859110808458
0.24617021276595744 0.4887645167830471 0.4999995281607731
0.24638297872340426 0.4891685396311252 0.5007327796775769
0.24659574468085105 0.4919885763563977 0.5032982606271935
0.24680851063829787 0.4929164631167562 0.49850036210258203
0.2470212765957447 0.4921349140196069 0.4925258949655135
0.24723404255319148 0.4901296892745938 0.48922482213856405
0.2474468085106383 0.48998534440644836 0.4871881117291247
0.2476595744680851 0.48900830483634583 0.48412310698583294
0.2478723404255319 0.48900830483634583 0.48412310698583294
0.24808510638297873 0.48997104198828567 0.48123489553001325
0.24829787234042552 0.48907230195985096 0.48575720050851234
0.24851063829787234 0.48618423517194775 0.4823117599068406
0.24872340425531914 0.4880392983133611 0.48313000132149475
0.24893617021276596 0.4882111204742668 0.48278635699968336
0.24914893617021278 0.48838294263517246 0.482442712677872
0.24936170212765957 0.4885547647960781 0.48209906835606064
0.2495744680851064 0.4887265869569838 0.48175542403424926
0.24978723404255318 0.48889840911788945 0.4814117797124379
0.25 0.4904840485071673 0.4794210958705394
0.2502127659574468 0.4940253428445327 0.4757252713279315
0.25042553191489364 0.49481322956464574 0.4780889314882701
0.25063829787234043 0.4964440019096757 0.4814077888706459
0.2508510638297872 0.4932005810825076 0.48216902784562765
0.251063829787234 0.4926040502964666 0.4828336545954406
0.25127659574468086 0.4935144238203223 0.4837440281192963
0.25148936170212766 0.49442479734417777 0.48465440164315177
0.25170212765957445 0.4947166642923813 0.48494626859135537
0.2519148936170213 0.49441516235831956 0.48464476665729367
0.2521276595744681 0.49411366042425786 0.484343264723232
0.2523404255319149 0.49451660592185737 0.4839154059075001
0.2525531914893617 0.49682406603532175 0.48314273524466156
0.2527659574468085 0.495976963079435 0.47806011750934074
0.2529787234042553 0.49506250183377526 0.47492859001524823
0.2531914893617021 0.4948705422569615 0.4798801852766179
0.25340425531914895 0.4942075659084576 0.4844371702074316
0.25361702127659574 0.49260284490532236 0.4830535896571859
0.25382978723404254 0.49732950238999996 0.4893557996367562
0.2540425531914894 0.4985825920385392 0.5009183794042289
0.2542553191489362 0.49784164465451813 0.5074121219192994
0.25446808510638297 0.49663092151442245 0.5122550144796822
0.25468085106382976 0.49549424379259194 0.5146816971601715
0.2548936170212766 0.4940984632959669 0.512662215127916
0.2551063829787234 0.49383635602796694 0.5133200007711268
0.2553191489361702 0.4943586423890187 0.5153883732291158
0.25553191489361704 0.4927397139385091 0.5136576901065912
0.25574468085106383 0.4933535740029528 0.5209421572566034
0.2559574468085106 0.4938935026868587 0.5125820758155261
0.2561702127659574 0.49101165462180213 0.5133850234436594
0.25638297872340426 0.4911760547899675 0.5092056295883756
0.25659574468085106 0.4919755582569046 0.5051836598084151
0.25680851063829785 0.4901003367827925 0.5000047583799458
0.2570212765957447 0.49193942354665365 0.4977980668468552
0.2572340425531915 0.4937962446667902 0.495586740650409
0.2574468085106383 0.49188186188491106 0.49038752169888583
0.25765957446808513 0.4927173183411177 0.4925181735654792
0.2578723404255319 0.49187115317580193 0.4926775168187752
0.2580851063829787 0.489661748225825 0.4862389842163497
0.2582978723404255 0.4880312652662433 0.4864677109007312
0.25851063829787235 0.48972566623499203 0.48764174800905863
0.25872340425531914 0.48860900680461156 0.484856619949474
0.25893617021276594 0.48882481859432375 0.480901856822494
0.2591489361702128 0.48917146003477613 0.47956421953218065
0.2593617021276596 0.48900830483634583 0.47650742584758327
0.25957446808510637 0.49077095026737877 0.48600134029569303
0.2597872340425532 0.4899575775347839 0.48031213275624807
0.26 0.48861222432819756 0.4861827871032094
0.2602127659574468 0.4905530205064846 0.4817465494915928
0.2604255319148936 0.48787763700514586 0.48438118437923805
0.26063829787234044 0.49173820897344733 0.4828013011615162
0.26085106382978723 0.48913962493007385 0.4836105756745547
0.261063829787234 0.4829909424003304 0.4834748332376115
0.2612765957446809 0.48216902784562765 0.48598421573577
0.26148936170212767 0.4802149487054226 0.4889590349142852
0.26170212765957446 0.48114074979358146 0.4961302705810474
0.26191489361702125 0.48267482236561066 0.49316936037674763
0.2621276595744681 0.48169903731005503 0.49292881594974186
0.2623404255319149 0.4850320287965571 0.49452215648046777
0.2625531914893617 0.4807423509996702 0.48953570713059347
0.26276595744680853 0.48185741199434695 0.4923971033646217
0.2629787234042553 0.47828385936812295 0.4891462436537797
0.2631914893617021 0.4799262499540169 0.49445753776574336
0.26340425531914896 0.48412310698583294 0.49244926551832063
0.26361702127659575 0.4832080322879933 0.4942604924584017
0.26382978723404255 0.4824987273220907 0.49509436152769876
0.26404255319148934 0.4846889736788433 0.4989333943532899
0.2642553191489362 0.4906211728667031 0.5004458683963203
0.264468085106383 0.4863909892180144 0.5056268851016333
0.26468085106382977 0.48794272043974174 0.5046999678423216
0.2648936170212766 0.4916535978499907 0.5117903278932611
0.2651063829787234 0.4901545262231946 0.5056179775280898
0.2653191489361702 0.4920698642604811 0.5067121605839164
0.265531914893617 0.4895066978814874 0.5055587379675484
0.26574468085106384 0.4912457028072995 0.5020566796173566
0.26595744680851063 0.4883891188508301 0.49886957549102057
0.2661702127659574 0.48867767603125567 0.4978016609672691
0.2663829787234043 0.4918296373974066 0.49498032840620854
0.26659574468085107 0.49193942354665365 0.49333509859143226
0.26680851063829786 0.4910678485322169 0.48890284028068004
0.2670212765957447 0.487913542788518 0.49229259097982964
0.2672340425531915 0.4875112702714842 0.493499408530931
0.2674468085106383 0.48710899775445043 0.4947062260820324
0.2676595744680851 0.49047570654226935 0.49059369119930063
0.26787234042553193 0.4909623839765511 0.49242197989119313
0.2680851063829787 0.4909623839765511 0.49111454437757945
0.2682978723404255 0.4945728447617104 0.4908631514781341
0.26851063829787236 0.4895463375787392 0.48972568182620363
0.26872340425531915 0.49256106138011985 0.49447055770042175
0.26893617021276595 0.49521998859104766 0.4973594989992061
0.26914893617021274 0.4951875056288807 0.49573321088497607
0.2693617021276596 0.4958627031483513 0.4974961428722849
0.2695744680851064 0.5014629924331447 0.49491339134072326
0.26978723404255317 0.4954814396421188 0.4956948574807747
0.27 0.49475492151363304 0.49768604022394064
0.2702127659574468 0.4929164631167562 0.49565808424385516
0.2704255319148936 0.49356119456805375 0.49551527370825893
0.27063829787234045 0.4957841308034657 0.4945406500309059
0.27085106382978724 0.49682462139716654 0.49606246635515727
0.27106382978723403 0.4953838134274308 0.4958970845979003
0.2712765957446808 0.497360392119978 0.497360392119978
0.2714893617021277 0.4978016609672691 0.4978016609672691
0.27170212765957447 0.4929164631167562 0.4944406174614176
0.27191489361702126 0.4934029075043478 0.4902327173951638
0.2721276595744681 0.494118830520854 0.48615198592597464
0.2723404255319149 0.4959281987290238 0.48164019960959664
0.2725531914893617 0.49564491988977594 0.477707924187346
0.2727659574468085 0.49540409681364683 0.4747961962982241
0.27297872340425533 0.49318155948532344 0.47168668894306653
0.2731914893617021 0.5022301675110418 0.47691017347141806
0.2734042553191489 0.49211622274841077 0.46919767067122004
0.27361702127659576 0.4935328802455501 0.4730150492733957
0.27382978723404255 0.49443331433820625 0.47741330671609294
0.27404255319148935 0.4955913924064229 0.47892813531610623
0.2742553191489362 0.5009918270247711 0.48214556989398666
0.274468085106383 0.4944517304525694 0.487417158331918
0.2746808510638298 0.4938752879862047 0.48899009013569184
0.27489361702127657 0.494643524154666 0.49193942354665365
0.2751063829787234 0.49193729395011326 0.49169463125499296
0.2753191489361702 0.4920162704006026 0.4933019127487508
0.275531914893617 0.4966687686100931 0.4947806146814664
0.27574468085106385 0.4944239033865487 0.4895387055360357
0.27595744680851064 0.4949110134478032 0.4900258155972903
0.27617021276595743 0.49460044839257433 0.4909623839765511
0.2763829787234042 0.49758469565628805 0.49760653132152366
0.2765957446808511 0.497071467404417 0.4980485069745195
0.27680851063829787 0.5026470528654214 0.5084761186590696
0.27702127659574466 0.4966094502728941 0.4999709112317468
0.2772340425531915 0.49531204492604713 0.5014890679131366
0.2774468085106383 0.4952151685875668 0.5016984513633368
0.2776595744680851 0.49193942354665365 0.5021483319968628
0.27787234042553194 0.49320176044785896 0.499334961140406
0.27808510638297873 0.4968309194049916 0.49877870053737183
0.2782978723404255 0.4937824438554674 0.5009992590626626
0.2785106382978723 0.48998534440644836 0.5001080661014123
0.27872340425531916 0.48998534440644836 0.49877870053737183
0.27893617021276595 0.48561830230357805 0.4944116584345013
0.27914893617021275 0.48903208832257733 0.49682462139716654
0.2793617021276596 0.49185390097314086 0.4966108149633846
0.2795744680851064 0.4901270516943149 0.49222283812238665
0.2797872340425532 0.49122224759913796 0.4925941845739245
0.27999999999999997 0.49269110558095053 0.48900830483634583
0.2802127659574468 0.491441953567997 0.48606644589371184
0.2804255319148936 0.48961251116503296 0.4849586864017918
0.2806382978723404 0.48784567899019343 0.481797855293528
0.28085106382978725 0.4878243441616842 0.48714601489531356
0.28106382978723404 0.4880312652662433 0.4857128372245642
0.28127659574468084 0.48631009444712225 0.4859607319654959
0.2814893617021277 0.49347975465524424 0.4852546785116818
0.2817021276595745 0.4888568850512946 0.4825228648963639
0.28191489361702127 0.4898534253004557 0.4839911878798403
0.28212765957446806 0.4870177114408618 0.4804135657788498
0.2823404255319149 0.48665684524248654 0.4769192726695263
0.2825531914893617 0.48617815922850455 0.473869640075516
0.2827659574468085 0.48448624687094294 0.47104978614624665
0.28297872340425534 0.4852463095221999 0.47194215638621917
0.28319148936170213 0.48667647178904533 0.4738490394086797
0.2834042553191489 0.48870307120359985 0.4764137681691309
0.2836170212765957 0.49094375715670824 0.4792146256105165
0.28382978723404256 0.48472570153783123 0.48636554620814276
0.28404255319148936 0.48624835713994025 0.4856373922600692
0.28425531914893615 0.48767833647682696 0.48634836811730797
0.284468085106383 0.48566309053069634 0.49001444411557443
0.2846808510638298 0.4846200453862522 0.490945546745815
0.2848936170212766 0.4840702965412867 0.4913584777593134
0.2851063829787234 0.4826466887763834 0.49405272299711067
0.2853191489361702 0.4849364270632458 0.49481596909273157
0.285531914893617 0.4858974541005131 0.4980597724352722
0.2857446808510638 0.4832331658384193 0.4973566903935624
0.28595744680851065 0.48329368280749707 0.4962622939162319
0.28617021276595744 0.48412310698583294 0.4964539654331207
0.28638297872340424 0.48412310698583294 0.49771543521961964
0.2865957446808511 0.48645226701210786 0.5012954010066816
0.2868085106382979 0.4887670276129814 0.5029281360411465
0.28702127659574467 0.491269741128613 0.501281687006958
0.28723404255319146 0.489704610156154 0.5039446326381792
0.2874468085106383 0.4889688080472068 0.5046804347471263
0.2876595744680851 0.4907476180582188 0.5074752666467363
0.2878723404255319 0.4909623839765511 0.5023068907077582
0.28808510638297874 0.49082446434760024 0.504457045119386
0.28829787234042553 0.4891085993032718 0.5000145569862245
0.2885106382978723 0.4929517876035907 0.4958829063138985
0.28872340425531917 0.4909623839765511 0.4912016448833487
0.28893617021276596 0.49212316827260105 0.49151361815439315
0.28914893617021276 0.4929164631167562 0.4903216781804278
0.28936170212765955 0.4912158296182704 0.48560703783937414
0.2895744680851064 0.49490585772165707 0.4890012417434067
0.2897872340425532 0.4987903151691254 0.4887208545079211
0.29 0.49343564788795 0.49135890880317484
0.2902127659574468 0.49408432498866955 0.48980598613516224
0.2904255319148936 0.493966620778555 0.4917931873632612
0.2906382978723404 0.49289210927862326 0.49130429972534057
0.2908510638297872 0.4959133697793256 0.4911446343001193
0.29106382978723405 0.4986740799288077 0.4946613010398332
0.29127659574468084 0.500613571770237 0.49580784585795074
0.29148936170212764 0.49472933616465825 0.4941759148714651
0.2917021276595745 0.49443965255840705 0.49857833118480543
0.2919148936170213 0.4962513001238472 0.5044068226377402
0.29212765957446807 0.4972895552179485 0.5003621897138723
0.2923404255319149 0.4978016609672691 0.4978016609672691
0.2925531914893617 0.4984508701864086 0.4971524517481297
0.2927659574468085 0.5003367439565981 0.49994070823561926
0.2929787234042553 0.5043736495900025 0.49163060489651306
0.29319148936170214 0.49859733695181613 0.4925537359456448
0.29340425531914893 0.49603770850337403 0.48781473240138085
0.2936170212765957 0.49682462139716654 0.4909623839765511
0.29382978723404257 0.4959747109195386 0.48883760778248103
0.29404255319148936 0.4953876862895168 0.48711147419114875
0.29425531914893616 0.495847581827064 0.4873842645603792
0.29446808510638295 0.4997545779515667 0.48861702414594177
0.2946808510638298 0.5016484249156383 0.49175524055053044
0.2948936170212766 0.4974365721277461 0.4828539963441121
0.2951063829787234 0.49373846229752566 0.47964890872570476
0.29531914893617023 0.49555299131067865 0.48023826571065914
0.295531914893617 0.49332768027766766 0.47702721808248294
0.2957446808510638 0.4955212714736167 0.4775001092372536
0.29595744680851066 0.49479587713378154 0.48194290148650004
0.29617021276595745 0.49632795429308435 0.484769035153214
0.29638297872340424 0.49398855280535475 0.4832094341613944
0.29659574468085104 0.49456201417375806 0.48587150073723573
0.2968085106382979 0.491705954588903 0.48529045177458635
0.2970212765957447 0.4905931661953642 0.4871622159304114
0.29723404255319147 0.48998534440644836 0.48412310698583294
0.2974468085106383 0.4938000946674404 0.486030482116329
0.2976595744680851 0.49045550936159715 0.48705422569614076
0.2978723404255319 0.48900830483634583 0.49065820693875284
0.29808510638297875 0.48618148714679504 0.48900830483634583
0.29829787234042554 0.4880312652662433 0.48900830483634583
0.29851063829787233 0.48834242737094474 0.48900830483634583
0.2987234042553191 0.4873043117886981 0.48943430309825775
0.298936170212766 0.48613332373081203 0.4920516987562013
0.29914893617021276 0.4887374448909533 0.4910881373621711
0.29936170212765956 0.4876430535221116 0.4885398466594785
0.2995744680851064 0.48770988000786863 0.4902681796536145
0.2997872340425532 0.48907191670814826 0.49635136569129196
0.3 0.4864807310562444 0.49837515560716544
0.3002127659574468 0.4880312652662433 0.49628438625317756
0.30042553191489363 0.4893354824173194 0.49780390755367826
0.3006382978723404 0.48998534440644836 0.4965390111265009
0.3008510638297872 0.48826930818741254 0.4984216361556179
0.30106382978723406 0.4860839493456967 0.4958523160808251
0.30127659574468085 0.49469403439677345 0.5031482777898985
0.30148936170212765 0.4858491740859488 0.5065950170981925
0.3017021276595745 0.48712946758206654 0.5052421364141052
0.3019148936170213 0.4905847202655304 0.5023091951067615
0.3021276595744681 0.4911191233932715 0.5032215245634436
0.30234042553191487 0.4924262977272646 0.5061081429175814
0.3025531914893617 0.49253909810408314 0.5017976206387564
0.3027659574468085 0.48862487964176143 0.4959176448873753
0.3029787234042553 0.4862262244261507 0.4915585371770018
0.30319148936170215 0.49171504338278554 0.48908309822430185
0.30340425531914894 0.4879885074673097 0.49066307938401604
0.30361702127659573 0.48673907265893945 0.48412310698583294
0.3038297872340425 0.4861936122954128 0.4835763741160942
0.3040425531914894 0.4878416387437036 0.48216902784562765
0.30425531914893617 0.4886021915731696 0.48368403111390657
0.30446808510638296 0.48622708514433377 0.4839163218478812
0.3046808510638298 0.4845201918980452 0.4817719429334155
0.3048936170212766 0.4834975018258324 0.4811919882755251
0.3051063829787234 0.48670164692654383 0.4811919882755251
0.30531914893617024 0.48890487013530876 0.4782608695652173
0.30553191489361703 0.4851001465559355 0.4785443324055708
0.3057446808510638 0.4861165511109805 0.48072315098294505
0.3059574468085106 0.48863943021708783 0.4799557801300797
0.30617021276595746 0.4904428485966752 0.4801653237537033
0.30638297872340425 0.4923203319730103 0.48471923812957884
0.30659574468085105 0.4876787220244913 0.4858102634762958
0.3068085106382979 0.49018611023769804 0.4918296798823619
0.3070212765957447 0.48629390856295096 0.4957175483649162
0.3072340425531915 0.48900830483634583 0.49812225767740004
0.30744680851063827 0.48883159472861504 0.5037471194641668
0.3076595744680851 0.4889038343412743 0.5085490962383976
0.3078723404255319 0.49258087272454515 0.5073352296774021
0.3080851063829787 0.49173838525147734 0.5071840560308318
0.30829787234042555 0.48964698588599453 0.5072717341391002
0.30851063829787234 0.49224757735657465 0.5073490947482345
0.30872340425531913 0.49031430832761314 0.5084394415980094
0.308936170212766 0.4909623839765511 0.5085287179506714
0.3091489361702128 0.4909623839765511 0.5050036294435739
0.30936170212765957 0.49239919085242445 0.5007327796775769
0.30957446808510636 0.49540156246951694 0.49788666182227764
0.3097872340425532 0.49197709731486755 0.4929164631167562
0.31 0.4898751327101458 0.4929164631167562
0.3102127659574468 0.4896332375210471 0.48916686700854844
0.31042553191489364 0.49146207776013484 0.4892693257266702
0.31063829787234043 0.49108519933815514 0.49083956861494704
0.3108510638297872 0.48809644192533247 0.48809644192533247
0.311063829787234 0.48998534440644836 0.4937341843501683
0.31127659574468086 0.48998534440644836 0.4884696032389382
0.31148936170212765 0.496400684304966 0.4916971737796819
0.31170212765957445 0.4919872684668786 0.4830503775752805
0.3119148936170213 0.4929164631167562 0.4795497789341519
0.3121276595744681 0.4929164631167562 0.4703025812304998
0.3123404255319149 0.4929164631167562 0.46631741271543337
0.3125531914893617 0.4939481606617361 0.46406646681129127
0.3127659574468085 0.4986601126087254 0.4629736809550512
0.3129787234042553 0.4970008794872414 0.4663601366339115
0.3131914893617021 0.4949944364017121 0.47177916142084886
0.31340425531914895 0.49778096503474134 0.4772493367742352
0.31361702127659574 0.4941138385663373 0.4836969071144267
0.31382978723404253 0.4951747915360232 0.4882555286965902
0.3140425531914894 0.4941024832534581 0.4907873350413987
0.3142553191489362 0.4959255492300859 0.4966686865911226
0.31446808510638297 0.49355540993194225 0.49904231590299447
0.31468085106382976 0.495836490412537 0.49949761594679
0.3148936170212766 0.4979989099179941 0.5042510426482985
0.3151063829787234 0.4929164631167562 0.5007455123754815
0.3153191489361702 0.4940962226577942 0.4999584600784098
0.31553191489361704 0.49682462139716654 0.5029420328292821
0.31574468085106383 0.495445172569808 0.5022844495605261
0.3159574468085106 0.4906167286571024 0.49745600564782033
0.31617021276595747 0.4885419668489604 0.4953812438396785
0.31638297872340426 0.4870390528928775 0.4953666484436443
0.31659574468085105 0.48696996233319206 0.49517799967169845
0.31680851063829785 0.4901705380251995 0.49171270459487393
0.3170212765957447 0.491427943870166 0.4797034690289349
0.3172340425531915 0.48835441646790845 0.47703388062875884
0.3174468085106383 0.49115248038392517 0.48332952443979643
0.3176595744680851 0.49125529423092024 0.4789429827143344
0.3178723404255319 0.4885013776731393 0.4756915388491593
0.3180851063829787 0.48705422569614076 0.47339301372985654
0.3182978723404255 0.487625797947644 0.47199316482600256
0.31851063829787235 0.4891482629418111 0.4734316549568905
0.31872340425531914 0.4925568371346264 0.4747950846340167
0.31893617021276593 0.49475187619861055 0.477904871390165
0.3191489361702128 0.49543822264901416 0.48214715969097477
0.3193617021276596 0.4936114007731867 0.4864097440679054
0.31957446808510637 0.4929164631167562 0.49126443508137985
0.3197872340425532 0.4929164631167562 0.49648265903515587
0.32 0.4964095659875459 0.5046005386553545
0.3202127659574468 0.49809559719751645 0.5078659928985424
0.3204255319148936 0.5018276870232872 0.5067668514570915
0.32063829787234044 0.4942976875128167 0.5065950170981925
0.32085106382978723 0.4921177128905104 0.504819227301844
0.321063829787234 0.4941036907330728 0.5068052051444065
0.32127659574468087 0.4932001924748721 0.5069039167554593
0.32148936170212766 0.4941540509948454 0.5065443567699558
0.32170212765957445 0.4964075363568447 0.510536011893954
0.32191489361702125 0.4934171600029755 0.5080971077568504
0.3221276595744681 0.49119290376446506 0.5031478983936101
0.3223404255319149 0.49002452509355643 0.50571592924586
0.3225531914893617 0.4915018782756278 0.5091905395655254
0.3227659574468085 0.49084079778501805 0.5014807576290954
0.3229787234042553 0.49682462139716654 0.4998612363529957
0.3231914893617021 0.49446075480690044 0.4966197276721361
0.32340425531914896 0.4904687577015389 0.49684504735701
0.32361702127659575 0.4941939933036957 0.4993799360941214
0.32382978723404254 0.48952269938686044 0.5063274699167499
0.32404255319148934 0.48791682135151604 0.5059613092722717
0.3242553191489362 0.4871487461712044 0.5133870338513786
0.324468085106383 0.49231561924141903 0.5121554960357801
0.32468085106382977 0.4887276801248052 0.5181637388227843
0.3248936170212766 0.49008479423968243 0.5141995275307933
0.3251063829787234 0.4929164631167562 0.5154845595949736
0.3253191489361702 0.4908820431221048 0.5111009745223738
0.325531914893617 0.48917455340772537 0.5064492203849874
0.32574468085106384 0.4880638364650986 0.4971177621868644
0.32595744680851063 0.49582600644062347 0.5017665299704528
0.3261702127659574 0.48869501992811665 0.4843969490279458
0.32638297872340427 0.4913173956299138 0.4810649819640799
0.32659574468085106 0.4860525830318864 0.47923790913532005
0.32680851063829786 0.4882694708009819 0.4805056388333385
0.3270212765957447 0.488445923010065 0.47811314548275824
0.3272340425531915 0.48893303063445237 0.4790873607315331
0.3274468085106383 0.4870638930331043 0.48216902784562765
0.3276595744680851 0.4892770719955589 0.48190026068641456
0.3278723404255319 0.4907366624697873 0.48066639171895004
0.3280851063829787 0.4922397466250604 0.48284534851121125
0.3282978723404255 0.49655043575398067 0.4851001465559355
0.32851063829787236 0.49145064678552003 0.48851798621871795
0.32872340425531915 0.4906963274930902 0.4882101353859635
0.32893617021276594 0.4929890039376917 0.4920845051885247
0.32914893617021274 0.4930095001815013 0.4885894876547138
0.3293617021276596 0.4937677892339305 0.4880312652662433
0.3295744680851064 0.4920287029534145 0.48963074373153836
0.32978723404255317 0.4977724427854647 0.4958768000088684
0.33 0.4974954168728962 0.49796208450909957
0.3302127659574468 0.49542952796554257 0.5015688874006199
0.3304255319148936 0.49187791389165547 0.5033792249678493
0.33063829787234045 0.4923531308784031 0.49990536501407795
0.33085106382978724 0.49015618751708395 0.5006188842704865
0.33106382978723403 0.4963242926699983 0.4984927984075614
0.3312765957446808 0.4918422706110259 0.4944578919892776
0.33148936170212767 0.4971229896323276 0.49424103184079154
0.33170212765957446 0.494816241603197 0.4954405130226592
0.33191489361702126 0.4946651055359233 0.4938935026868587
0.3321276595744681 0.493195986747223 0.4945910186264946
0.3323404255319149 0.4951874883693704 0.48957148333419515
0.3325531914893617 0.4941925194965982 0.49134138992717474
0.3327659574468085 0.4938935026868587 0.4819836798695896
0.33297872340425533 0.4987060995300879 0.48108308676459915
0.3331914893617021 0.4969938215754971 0.47910687045687006
0.3334042553191489 0.49870224889945075 0.4825456754609426
0.33361702127659576 0.49855252755589236 0.47857568572950365
0.33382978723404255 0.5009951907442965 0.4810493163185014
0.33404255319148934 0.4996995074071975 0.49004157710672525
0.3342553191489362 0.4953100326552005 0.48944779523458487
0.334468085106383 0.4939198569195625 0.4918603608485423
0.3346808510638298 0.4934601115832475 0.49975574010747437
0.33489361702127657 0.4909657648207535 0.4995106350038981
0.3351063829787234 0.4950298454332548 0.4999150432837678
0.3353191489361702 0.49485365473471155 0.5022025609132933
0.335531914893617 0.4917032910470926 0.5026868588177822
0.33574468085106385 0.4946588668024039 0.5019475622526115
0.33595744680851064 0.49437095732944253 0.5039247559941116
0.33617021276595743 0.4921057971706577 0.4957024103769816
0.3363829787234042 0.49047368969492244 0.48998534440644836
0.33659574468085107 0.4910075256701911 0.4864077099833489
0.33680851063829786 0.4898313657771071 0.4863081540700501
0.33702127659574466 0.49461041277224765 0.48698395175757525
0.3372340425531915 0.49507031030369614 0.4822689118689951
0.3374468085106383 0.4909623839765511 0.47952719501747265
0.3376595744680851 0.49177555475620705 0.47679839679635205
0.33787234042553194 0.4881621455626084 0.47536247092900097
0.33808510638297873 0.48711674663123455 0.47776846721493293
0.3382978723404255 0.48617442974170766 0.48028131225367127
0.3385106382978723 0.48523211285218076 0.4827941572924096
0.33872340425531916 0.4867514857599445 0.4905770938337705
0.33893617021276595 0.4898258885821602 0.48639609777461434
0.33914893617021274 0.4833923506385218 0.48052280273391185
0.3393617021276596 0.4873994525456153 0.48492753313119824
0.3395744680851064 0.48780370967850745 0.48502655335421174
0.3397872340425532 0.4868433273659148 0.48356786407618213
0.34 0.49015177399273224 0.4820965820262859
0.3402127659574468 0.487440746347091 0.4770798317269129
0.3404255319148936 0.486077186126038 0.47435271128480694
0.3406382978723404 0.4851049574981002 0.4714360254009934
0.34085106382978725 0.4868081119088414 0.47496058017396064
0.34106382978723404 0.4851001465559355 0.47239863214460187
0.34127659574468083 0.4847129572870264 0.47123706433787454
0.3414893617021277 0.4836027413026984 0.46894714775115953
0.3417021276595745 0.48510913888448676 0.47110790248920015
0.34191489361702126 0.48528707551097455 0.47634918521991937
0.34212765957446806 0.4832598671832572 0.47728382999511476
0.3423404255319149 0.48697475885998587 0.4922572908912731
0.3425531914893617 0.48759710869229433 0.49541331823670504
0.3427659574468085 0.4908128178177253 0.49739957818524366
0.34297872340425534 0.48925308860682526 0.5036638983878847
0.34319148936170213 0.48988657573136707 0.5052035342493497
0.3434042553191489 0.48615740013681613 0.5103427473570468
0.34361702127659577 0.48359356372300966 0.5139638373517339
0.34382978723404256 0.4884608072121918 0.5135255436929362
0.34404255319148935 0.4889676873365763 0.5153883732291158
0.34425531914893615 0.4875859247389893 0.5160118499672715
0.344468085106383 0.48454731874514606 0.520265898358652
0.3446808510638298 0.485726276292912 0.517583274240907
0.3448936170212766 0.48689193019580623 0.5145736291593476
0.3451063829787234 0.484683499371448 0.5139946864745256
0.3453191489361702 0.48329256254646624 0.5192481051644778
0.345531914893617 0.4850406509295596 0.5108006535104822
0.3457446808510638 0.4805231633311282 0.5132801867760577
0.34595744680851065 0.48412310698583294 0.5110644547600004
0.34617021276595744 0.4848057120255158 0.5095261358085001
0.34638297872340423 0.48512248262086216 0.5104808393136762
0.3465957446808511 0.4877937405387547 0.5096448981722445
0.3468085106382979 0.4870025742155822 0.5107861738815472
0.34702127659574467 0.49136420176951756 0.5097178764008788
0.3472340425531915 0.4870593173168484 0.5007302338672232
0.3474468085106383 0.48900830483634583 0.49908252422097343
0.3476595744680851 0.48954317348814275 0.49192514754978556
0.3478723404255319 0.4925952169838432 0.49829516869158186
0.34808510638297874 0.4867966464267634 0.49000310357558396
0.34829787234042553 0.4880975333287167 0.4877373043268626
0.3485106382978723 0.4852629465202377 0.48994464441537283
0.34872340425531917 0.4894745974487765 0.4889150463138597
0.34893617021276596 0.4933009711255375 0.48814977157850753
0.34914893617021275 0.4963029141904605 0.4904406767698451
0.34936170212765955 0.4899313187704718 0.4918240468048879
0.3495744680851064 0.48900830483634583 0.4891053260046166
0.3497872340425532 0.48900830483634583 0.4832757942801058
0.35 0.48816116721285874 0.48471044071608904
0.3502127659574468 0.4916846340819407 0.4777934089245407
0.3504255319148936 0.4929054665312158 0.4821140449179258
0.3506382978723404 0.4992671938409532 0.4829628691861524
0.35085106382978726 0.49813696642907085 0.48833769391274245
0.35106382978723405 0.4999018439698784 0.48911605043292394
0.35127659574468084 0.500647050219028 0.4869684962375918
0.35148936170212763 0.4978312691620342 0.4875205393351182
0.3517021276595745 0.49749945577221594 0.48680580624280995
0.3519148936170213 0.5015623988612954 0.48732710521507433
0.35212765957446807 0.4990592500514184 0.48555481858399613
0.3523404255319149 0.4964717157734936 0.480649531630012
0.3525531914893617 0.49567384838692974 0.47808713612508313
0.3527659574468085 0.4957157562678169 0.4751707949679762
0.3529787234042553 0.49756173358602074 0.47239863214460187
0.35319148936170214 0.5000251135679201 0.47239863214460187
0.35340425531914893 0.5017098192476794 0.4725776327970376
0.3536170212765957 0.5017098192476794 0.47584189973479496
0.35382978723404257 0.5051321649096181 0.48178254348411387
0.35404255319148936 0.5052590247983526 0.48479110313575285
0.35425531914893615 0.5016694711732727 0.48212867977122087
0.354468085106383 0.49752271412629584 0.483599537438986
0.3546808510638298 0.495109810297972 0.47983607923784644
0.3548936170212766 0.5001521808517274 0.47923790913532005
0.3551063829787234 0.4941247130154194 0.4839579567511467
0.3553191489361702 0.49849643975865493 0.47952016991403695
0.355531914893617 0.4902529009862022 0.47838532918020293
0.3557446808510638 0.4936871147570536 0.47982047287211993
0.35595744680851066 0.4894484454192135 0.48089271081014107
0.35617021276595745 0.4883201302130613 0.4875215108601284
0.35638297872340424 0.4857138880500458 0.49425680076285117
0.35659574468085103 0.48739055235319984 0.5017289834883245
0.3568085106382979 0.49352925337943226 0.5091618865010737
0.3570212765957447 0.4929071429004061 0.5114778848946179
0.35723404255319147 0.48952587897209493 0.5115383236501011
0.3574468085106383 0.48875152418221024 0.512457254518808
0.3576595744680851 0.4880312652662433 0.5152900977204158
0.3578723404255319 0.4863844974315918 0.5163654127992183
0.35808510638297875 0.4963052101398649 0.5172952331641116
0.35829787234042554 0.4880007614669378 0.5094651282098892
0.35851063829787233 0.48705422569614076 0.5072934867265714
0.3587234042553191 0.4873942640123013 0.503790842167586
0.35893617021276597 0.48772909649027335 0.49868973315241394
0.35914893617021276 0.4832204550617253 0.49249013758512444
0.35936170212765955 0.48395092233581544 0.4691151848142399
0.3595744680851064 0.48431940709435356 0.46478307666480245
0.3597872340425532 0.4845762497740139 0.4663241327427646
0.36 0.4848330924536743 0.46786518882072675
0.3602127659574468 0.4850899351333346 0.4694062448986889
0.3604255319148936 0.48910560326235936 0.4758762441645723
0.3606382978723404 0.48563630004925384 0.47510930781651745
0.3608510638297872 0.48412310698583294 0.47236061211215535
0.36106382978723406 0.4836084875747207 0.47142159257449934
0.36127659574468085 0.4828264458785442 0.47142159257449934
0.36148936170212764 0.4820444041823676 0.47142159257449934
0.3617021276595745 0.4812623624861908 0.47142159257449934
0.3619148936170213 0.4804803207900143 0.47142159257449934
0.3621276595744681 0.4812951333979288 0.47223173109387895
0.36234042553191487 0.48293012305122046 0.47345797333384765
0.3625531914893617 0.48388213477025294 0.474593683500387
0.3627659574468085 0.48361943068838664 0.47564532637001383
0.3629787234042553 0.4857208963970456 0.47790733702085153
0.36319148936170215 0.4821341328382937 0.48429758202250256
0.36340425531914894 0.4814182012508451 0.4878772399597459
0.36361702127659573 0.4838437359665564 0.49099711560461934
0.3638297872340425 0.48650369682721756 0.49193942354665365
0.36404255319148937 0.4854493919102653 0.495951508011342
0.36425531914893616 0.48602917096519926 0.494037548169375
0.36446808510638296 0.4854962980087574 0.49975574010747437
0.3646808510638298 0.4897784596070111 0.5007705324242229
0.3648936170212766 0.4849917916005131 0.5061391882968979
0.3651063829787234 0.48779607050204227 0.5094582719891253
0.36531914893617023 0.48638411497252587 0.5131921728374925
0.365531914893617 0.4880312652662433 0.5181455169400738
0.3657446808510638 0.48871661282579065 0.5243856564369133
0.3659574468085106 0.48659655976484906 0.525331893476412
0.36617021276595746 0.486077186126038 0.5225717027966571
0.36638297872340425 0.4922354105298998 0.526626381936878
0.36659574468085104 0.48720790719015766 0.5261614220825804
0.3668085106382979 0.4916367056510083 0.531291704164354
0.3670212765957447 0.48923790423370195 0.52584756712221
0.3672340425531915 0.4912531760662665 0.5268220559806313
0.36744680851063827 0.49283349222641054 0.5224150452592919
0.3676595744680851 0.4909623839765511 0.5207511431951232
0.3678723404255319 0.4903437688567052 0.5203718048602965
0.3680851063829787 0.4885062059980526 0.5192965315095261
0.36829787234042555 0.4923620382270687 0.5218949952860215
0.36851063829787234 0.49099904908364717 0.5084574334706575
0.36872340425531913 0.4927704164864221 0.5030797118665484
0.368936170212766 0.49193942354665365 0.49947844776911365
0.36914893617021277 0.493572984779065 0.4983703102292689
0.36936170212765956 0.49422703416390174 0.49402038308655727
0.36957446808510636 0.492246931559723 0.4889537893054514
0.3697872340425532 0.4951443422727275 0.482422657495614
0.37 0.4921127644786529 0.4783908752642167
0.3702127659574468 0.4954016811237543 0.47452712958895227
0.37042553191489364 0.49163312912162255 0.4665363947239862
0.3706382978723404 0.4946073648810203 0.4643948081415017
0.3708510638297872 0.4948657618095704 0.4596923372858772
0.371063829787234 0.4938935026868587 0.45684842867299513
0.37127659574468086 0.49510661019909824 0.4606413895018157
0.37148936170212765 0.497743143390395 0.4642371298681222
0.37170212765957444 0.49578494546648094 0.46533075435150384
0.3719148936170213 0.49134905963690056 0.47260232039400557
0.3721276595744681 0.491109226739508 0.46885758077158385
0.3723404255319149 0.49453358009941556 0.4787663128015362
0.3725531914893617 0.4929164631167562 0.4838667983675308
0.3727659574468085 0.49489386045111766 0.4911717828070653
0.3729787234042553 0.4973110222661958 0.4948790179210495
0.3731914893617021 0.4930860684834998 0.4999400821585555
0.37340425531914895 0.49470759517673313 0.5002117347676067
0.37361702127659574 0.49408320259999294 0.4979913608804033
0.37382978723404253 0.4976924905854408 0.49306202362586055
0.3740425531914894 0.4952057911507509 0.4954836258220087
0.37425531914893617 0.49743027186901123 0.48900830483634583
0.37446808510638296 0.49789966976290256 0.4898873356108151
0.37468085106382976 0.49452290369241486 0.4909623839765511
0.3748936170212766 0.4943330143392158 0.4888375571428618
0.3751063829787234 0.4940329039537073 0.4863559886597351
0.3753191489361702 0.4938935026868587 0.486077186126038
0.37553191489361704 0.4938935026868587 0.48900830483634583
0.37574468085106383 0.494603273280707 0.48900830483634583
0.3759574468085106 0.49645710224586265 0.48753822823113013
0.37617021276595747 0.4973433726366428 0.4851001465559355
0.37638297872340426 0.49751428946565385 0.4851001465559355
0.37659574468085105 0.4998846641233194 0.4851001465559355
0.37680851063829784 0.4962668190564966 0.4851001465559355
0.3770212765957447 0.4949650109893005 0.48910277356868487
0.3772340425531915 0.4959232629607885 0.4915031990383779
0.3774468085106383 0.4938179620815333 0.49358041293104543
0.3776595744680851 0.49558163625500967 0.49202845323185246
0.3778723404255319 0.4940386851494787 0.4915234949929123
0.3780851063829787 0.49216315844724823 0.4892320397369404
0.37829787234042556 0.49254346559126133 0.4864501836515329
0.37851063829787235 0.4896306681976385 0.4867343451098617
0.37872340425531914 0.4895668080400214 0.49166085401747495
0.37893617021276593 0.4909623839765511 0.4948602899427337
0.3791489361702128 0.48793586864175365 0.4938935026868587
0.3793617021276596 0.4889065663944782 0.4924788125526387
0.37957446808510636 0.49079939954586965 0.49193942354665365
0.3797872340425532 0.48446679817748284 0.49193942354665365
0.38 0.4911198957814471 0.4880837692012086
0.3802127659574468 0.4938935026868587 0.4896890034062505
0.3804255319148936 0.4938935026868587 0.4909346054428975
0.38063829787234044 0.49048670896783253 0.48569865349059066
0.38085106382978723 0.48547976447544067 0.48661861823395625
0.381063829787234 0.486077186126038 0.49000520808334147
0.38127659574468087 0.4878614510707009 0.4912257175687885
0.38148936170212766 0.4888889576006088 0.4906764865317625
0.38170212765957445 0.48755590926651643 0.49369353976849717
0.3819148936170213 0.48998706792883484 0.49370085240865635
0.3821276595744681 0.49034732831024636 0.492771850681038
0.3823404255319149 0.4888014031345021 0.4982133758205366
0.3825531914893617 0.4850467237212397 0.5005160026296781
0.3827659574468085 0.4869878322784916 0.5017098192476794
0.3829787234042553 0.4851001465559355 0.5053754224888831
0.3831914893617021 0.4851001465559355 0.5120405821788419
0.38340425531914896 0.4851001465559355 0.5106574076379881
0.38361702127659575 0.48569746818571646 0.514087105157289
0.38382978723404254 0.486077186126038 0.5156607022534784
0.38404255319148933 0.486077186126038 0.5140413611141035
0.3842553191489362 0.4875803827020234 0.5104279009369398
0.384468085106383 0.4877455490631608 0.5042047079398018
0.38468085106382977 0.48703209307747924 0.4959361123017097
0.3848936170212766 0.4880312652662433 0.49107823384607335
0.3851063829787234 0.4887948230734182 0.48960356550286094
0.3853191489361702 0.48904391877149966 0.48806687920139713
0.38553191489361704 0.4863469361409859 0.48705422569614076
0.38574468085106384 0.48718214955604244 0.4835842206959624
0.38595744680851063 0.4880312652662433 0.48134108138201825
0.3861702127659574 0.4880312652662433 0.4811919882755251
0.38638297872340427 0.48853051003907244 0.47166048997313603
0.38659574468085106 0.4861112681248753 0.4731228913224695
0.38680851063829785 0.48900830483634583 0.47162428463828554
0.3870212765957447 0.48796715072707497 0.47460916944148024
0.3872340425531915 0.49001100695477545 0.4770781570617635
0.3874468085106383 0.49058790756591053 0.4776583064057552
0.3876595744680851 0.494808094046326 0.4790646611718637
0.3878723404255319 0.48555050626889806 0.48859888691547076
0.3880851063829787 0.4909623839765511 0.48645688868791725
0.3882978723404255 0.4911882998188538 0.48975942856414567
0.38851063829787236 0.493744856568471 0.4882861316276189
0.38872340425531915 0.4978109413530843 0.48853370563001725
0.38893617021276594 0.49634298428564955 0.4887674862805873
0.3891489361702128 0.49356527090798397 0.4860733582427771
0.3893617021276596 0.49355688851871693 0.4831788703500531
0.3895744680851064 0.494485501677965 0.4809850298634153
0.38978723404255317 0.4970620196851265 0.485693642275835
0.39 0.49746806365217583 0.4882378285595204
0.3902127659574468 0.49613200312978556 0.48493950091515176
0.3904255319148936 0.49626322382723775 0.48291755793886604
0.39063829787234045 0.4944342649449106 0.4858608812228173
0.39085106382978724 0.4985668362463729 0.4843349712768319
0.39106382978723403 0.4949224429855003 0.48849837182309286
0.3912765957446808 0.49616312774148125 0.49682462139716654
0.39148936170212767 0.49905608554693937 0.49700954473687825
0.39170212765957446 0.5043704314071048 0.5008409822979298
0.39191489361702125 0.4996256323106986 0.5030771822081095
0.3921276595744681 0.4968198078567863 0.5114657743275648
0.3923404255319149 0.4958763833503435 0.508635500808236
0.3925531914893617 0.49815675273372395 0.5089339580561743
0.39276595744680853 0.5005386395472103 0.5093309391917553
0.3929787234042553 0.5024770189951722 0.5125949347984711
0.3931914893617021 0.50249804526126 0.5159434286173712
0.3934042553191489 0.4991321462272592 0.5107733235689306
0.39361702127659576 0.49975574010747437 0.5090380490618858
0.39382978723404255 0.49852500624091994 0.5103951970382291
0.39404255319148934 0.5007725251996313 0.5040530543677997
0.3942553191489362 0.49821794281443893 0.5034557574642998
0.394468085106383 0.5043795325835433 0.4947834071321468
0.3946808510638298 0.4961707300977838 0.49242414595273337
0.39489361702127657 0.497509234623119 0.4939932632245112
0.3951063829787234 0.4951203515600936 0.4898090862503125
0.3953191489361702 0.49556264759024565 0.4865249888014428
0.395531914893617 0.5003645051521881 0.4879993192647273
0.39574468085106385 0.49474778811068454 0.4874611868059026
0.39595744680851064 0.4983527545559125 0.4861481771229479
0.39617021276595743 0.4900474331042565 0.48815544266185956
0.3963829787234043 0.4907662980178633 0.4897892584477606
0.39659574468085107 0.49030502818434724 0.48836893728054825
0.39680851063829786 0.48964573898964364 0.48880975234535073
0.39702127659574465 0.4886053284374996 0.48751800494901293
0.3972340425531915 0.4914468686284685 0.4814423008677516
0.3974468085106383 0.49156032326363175 0.4772036993556332
0.3976595744680851 0.49501442347530855 0.4763067904250122
0.39787234042553193 0.49395705020051567 0.4791425878648346
0.3980851063829787 0.4928197432246795 0.48079526805788286
0.3982978723404255 0.4914842063425374 0.4863047947280961
0.3985106382978723 0.4903474930856065 0.4877785230544569
0.39872340425531916 0.48998119150938224 0.4899894973035147
0.39893617021276595 0.48900830483634583 0.49039117994541387
0.39914893617021274 0.4864029640589852 0.4938933555724894
0.3993617021276596 0.4880885337463266 0.4973417754222595
0.3995744680851064 0.48734697019078427 0.5027856649039542
0.3997872340425532 0.4888597262671885 0.500052897245789
0.4 0.4806785087411373 0.5043834046048125
0.4002127659574468 0.48313814470885746 0.5027027042315281
0.4004255319148936 0.48278181648935387 0.504518380229242
0.4006382978723404 0.4868013418592017 0.5044225498987017
0.40085106382978725 0.486077186126038 0.5062126581014194
0.40106382978723404 0.4855621795828214 0.5045879644416565
0.40127659574468083 0.4851001465559355 0.5049625611359685
0.4014893617021277 0.4866713516260823 0.5001187597825762
0.40170212765957447 0.4842868456606008 0.5015460805729115
0.40191489361702126 0.48419289539297666 0.5039430520164596
0.40212765957446805 0.4863170659277157 0.5081805163541852
0.4023404255319149 0.4902905694733253 0.5105031753786029
0.4025531914893617 0.48854184199258704 0.5086373240035676
0.4027659574468085 0.48503356187144875 0.5065950170981925
0.40297872340425533 0.48461428317133015 0.5043926934647928
0.4031914893617021 0.4816324861002072 0.5027969832739527
0.4034042553191489 0.4860262641378424 0.4978525829554647
0.40361702127659577 0.48692431033982114 0.5022027878384776
0.40382978723404256 0.4903817884806462 0.4972578957557058
0.40404255319148935 0.4850830556153858 0.4925290654768251
0.40425531914893614 0.4875092718477441 0.49089543670965513
0.404468085106383 0.48967645747959104 0.49326313413576134
0.4046808510638298 0.48703219375352397 0.49172639007853985
0.4048936170212766 0.48699780373316565 0.4955654720121886
0.4051063829787234 0.48705422569614076 0.48900830483634583
0.4053191489361702 0.4872666776429793 0.4898581126237
0.405531914893617 0.4880312652662433 0.49428682987700095
0.4057446808510638 0.487554531821964 0.49682462139716654
0.40595744680851065 0.4876641171874757 0.4962147299058316
0.40617021276595744 0.4880312652662433 0.49659519710316874
0.40638297872340423 0.490672686603542 0.49770509517626604
0.4065957446808511 0.4967878489173166 0.4940773650861085
0.40680851063829787 0.4955462489060481 0.49727203593229247
0.40702127659574466 0.49351438578174933 0.4880605125735723
0.4072340425531915 0.49281678351341296 0.4835382003413267
0.4074468085106383 0.49342934148682377 0.4825293280381621
0.4076595744680851 0.49441452967017385 0.4836392310862479
0.4078723404255319 0.4934362702878088 0.48412310698583294
0.40808510638297874 0.4909623839765511 0.48488065242774386
0.4082978723404255 0.4909623839765511 0.4904452202907973
0.4085106382978723 0.496040126875441 0.4919875598087479
0.40872340425531917 0.4984547663619765 0.4912437825868304
0.40893617021276596 0.4932400756371168 0.48412310698583294
0.40914893617021275 0.49435500343456984 0.48458460773354395
0.40936170212765954 0.4948705422569615 0.48281849462685333
0.4095744680851064 0.4948705422569615 0.47919107214048257
0.4097872340425532 0.49407928618676045 0.4719308210036102
0.41 0.4938935026868587 0.4685977270770272
0.4102127659574468 0.4938935026868587 0.4662305752760735
0.4104255319148936 0.4959729500028617 0.46262823644357587
0.4106382978723404 0.5009443706994745 0.4629681774046272
0.41085106382978726 0.49394886727174253 0.46170656145835715
0.41106382978723405 0.49193942354665365 0.4625964277201507
0.41127659574468084 0.49136877198857515 0.46800622493225236
0.41148936170212763 0.49421626700160115 0.4736984360294467
0.4117021276595745 0.4956771158478363 0.4777087390190013
0.41191489361702127 0.4929164631167562 0.48044782600311636
0.41212765957446806 0.4929164631167562 0.48623889732640996
0.4123404255319149 0.4896705017335917 0.4880312652662433
0.4125531914893617 0.4927234457654003 0.4889600504985069
0.4127659574468085 0.4929164631167562 0.4909623839765511
0.4129787234042553 0.49378194717732166 0.490313270931127
0.41319148936170214 0.49682462139716654 0.48872528694632145
0.41340425531914893 0.49538066897936944 0.49191061429684446
0.4136170212765957 0.49573531482788774 0.49143775316548677
0.41382978723404257 0.49831927556727573 0.4892380173213939
0.41404255319148936 0.49260977122578076 0.48988958045228737
0.41425531914893615 0.4997538941000855 0.489006458828957
0.414468085106383 0.4991814148286301 0.4884339795575016
0.4146808510638298 0.5003688747013268 0.48935325052092804
0.4148936170212766 0.49571970575351537 0.4851001465559355
0.4151063829787234 0.4934627597637026 0.48596163240224793
0.4153191489361702 0.49344671351341807 0.4881147264894646
0.415531914893617 0.49323819471350405 0.49031892078305533
0.4157446808510638 0.49446784066707095 0.4917380727517084
0.41595744680851066 0.4939697106485007 0.4955427499804962
0.41617021276595745 0.4933014817342829 0.49726464267433995
0.41638297872340424 0.4990651467037684 0.5041229929052078
0.4165957446808511 0.4943286909422462 0.5026211537785702
0.4168085106382979 0.4926829164482787 0.5037806717221235
0.41702127659574467 0.4965517314417642 0.5032472552127164
0.41723404255319146 0.49571268668743845 0.4987896250682796
0.4174468085106383 0.4948705422569615 0.5051401731001667
0.4176595744680851 0.4919744652307049 0.5027335810631839
0.4178723404255319 0.5011608892964846 0.49660504941668865
0.41808510638297874 0.49610001421341854 0.49414593507321347
0.41829787234042554 0.49426431885188166 0.49193942354665365
0.41851063829787233 0.49185639791936436 0.4914370661570542
0.4187234042553191 0.4896358105434015 0.489079866855384
0.41893617021276597 0.4877148552303447 0.48500394636477157
0.41914893617021276 0.48705422569614076 0.49391558032646427
0.41936170212765955 0.48705422569614076 0.48229701665283564
0.4195744680851064 0.48701277094319056 0.4849343275441346
0.4197872340425532 0.4867737856671364 0.4804953887344267
0.42 0.4908929989314727 0.4787965875368219
0.42021276595744683 0.491618128561629 0.47957235873537335
0.4204255319148936 0.48942779312753676 0.47742189298283544
0.4206382978723404 0.4883221735847048 0.4782608695652173
0.4208510638297872 0.4872110428198519 0.48072153690439173
0.42106382978723406 0.48991950301066983 0.4878776353427601
0.42127659574468085 0.48412310698583294 0.4907421633926079
0.42148936170212764 0.48412310698583294 0.4966038855663552
0.4217021276595745 0.4835711515268472 0.4955716040975712
0.4219148936170213 0.483358185291731 0.49447415644159365
0.4221276595744681 0.48404415941389617 0.49758945768399643
0.42234042553191486 0.48842332852747433 0.5007327796775769
0.4225531914893617 0.4877901824141444 0.5015258300681785
0.4227659574468085 0.4852024622647148 0.4970804106691148
0.4229787234042553 0.4871305923644228 0.4990841672105001
0.42319148936170214 0.48816452045383124 0.5020205828798423
0.42340425531914894 0.48813911607617444 0.4979754987193034
0.42361702127659573 0.4849803914663517 0.4982071775503593
0.4238297872340426 0.48545159616520134 0.49602330663169686
0.42404255319148937 0.48366054871624425 0.49589950485798917
0.42425531914893616 0.48727035152785464 0.4949362746719535
0.42446808510638295 0.4823312076205409 0.49686110144943874
0.4246808510638298 0.4819293534288073 0.4978016609672691
0.4248936170212766 0.4811946010242148 0.5046226487171596
0.4251063829787234 0.48130652109353433 0.5011909109496138
0.42531914893617023 0.48216902784562765 0.5048747921217256
0.425531914893617 0.48321731418659564 0.5066662638690578
0.4257446808510638 0.48323912382041423 0.5071533291867567
0.4259574468085106 0.4823576680636884 0.5056179775280898
0.42617021276595746 0.4838426322075727 0.5070111071117744
0.42638297872340425 0.48655538757565187 0.5067612964716889
0.42659574468085104 0.48890613614330974 0.515854569334038
0.4268085106382979 0.4916823829161733 0.5112231743182251
0.4270212765957447 0.4882118538800502 0.5073914680544882
0.4272340425531915 0.48985714232683314 0.5077268004188422
0.4274468085106383 0.4937621767125468 0.5112322766449602
0.4276595744680851 0.4949088149464533 0.5086256416173814
0.4278723404255319 0.4929164631167562 0.504045449058931
0.4280851063829787 0.49220394878663415 0.5022388697276404
0.42829787234042555 0.49359644916912965 0.49922428081396547
0.42851063829787234 0.4986161593890578 0.49972323187781154
0.42872340425531913 0.4998409388160573 0.5008179783861598
0.428936170212766 0.5007327796775769 0.5013026742738915
0.42914893617021277 0.5000862217142676 0.4978160662175464
0.42936170212765956 0.4956782823909136 0.49477933644298966
0.42957446808510635 0.49362896834021874 0.49303167383778895
0.4297872340425532 0.4935060453168618 0.4930091293867004
0.43 0.4905157921597407 0.4906926080775048
0.4302127659574468 0.49182205070536994 0.49182205070536994
0.43042553191489363 0.49682462139716654 0.48900830483634583
0.4306382978723404 0.4966552101932043 0.4879918376125723
0.4308510638297872 0.49609257517212796 0.4831460674157304
0.43106382978723407 0.49593024753844267 0.48254981817658116
0.43127659574468086 0.49488217749131275 0.4811919882755251
0.43148936170212765 0.49777304794383037 0.4811919882755251
0.43170212765957444 0.49676272592395987 0.4832079628889371
0.4319148936170213 0.495847581827064 0.4812714588958181
0.4321276595744681 0.495847581827064 0.48256521110021333
0.4323404255319149 0.4966953120804228 0.4831460674157304
0.4325531914893617 0.498554608113323 0.481416080699574
0.4327659574468085 0.49948214220525866 0.4811919882755251
0.4329787234042553 0.49708325157679234 0.48439897451234365
0.4331914893617021 0.49554183947493274 0.4860472798691838
0.43340425531914895 0.4963487656838094 0.4849955091269877
0.43361702127659574 0.4925617940334424 0.4919382904859941
0.43382978723404253 0.4918328049474249 0.49225927934434005
0.4340425531914894 0.49320269498121383 0.4870046817851421
0.43425531914893617 0.4938935026868587 0.4816418048366717
0.43446808510638296 0.49376444338580167 0.48008588940436553
0.4346808510638298 0.4930535796079547 0.47910079264412153
0.4348936170212766 0.49382832590965864 0.4781956927880172
0.4351063829787234 0.4910565208505619 0.47542388772892047
0.4353191489361702 0.49182994973276783 0.4753297508549097
0.43553191489361703 0.48945477913920954 0.4786426100648351
0.4357446808510638 0.49059436366786363 0.4832030562141143
0.4359574468085106 0.4909623839765511 0.48412310698583294
0.43617021276595747 0.49022984277652937 0.48705327178591945
0.43638297872340426 0.48998534440644836 0.4901461847073996
0.43659574468085105 0.4906728664192344 0.4923374280021229
0.43680851063829784 0.4909623839765511 0.49098188767798795
0.4370212765957447 0.48859633239212136 0.48939383151034094
0.4372340425531915 0.4886235010857671 0.48900830483634583
0.4374468085106383 0.49181316548643655 0.48992221537633995
0.4376595744680851 0.49146648567625245 0.48893986980104576
0.4378723404255319 0.48839797808796903 0.48681061176948953
0.4380851063829787 0.49198054601934976 0.4891458557098698
0.43829787234042555 0.4943442863217556 0.48930882725961045
0.43851063829787235 0.489038593311606 0.4865732780299044
0.43872340425531914 0.4881902444250921 0.48891723294841666
0.43893617021276593 0.48900830483634583 0.4896814415631307
0.4391489361702128 0.48593102637377655 0.4877773934513182
0.43936170212765957 0.48412310698583294 0.4892847623579359
