0.0 0.4704445530043966 0.4909623839765511
0.0002127659574468085 0.4704445530043966 0.4898100260552303
0.000425531914893617 0.4707465364790177 0.48870632136172476
0.0006382978723404255 0.4724118883939305 0.48836136387272033
0.000851063829787234 0.4768386712648462 0.4872326191363178
0.0010638297872340426 0.48189589668281874 0.48412310698583294
0.001276595744680851 0.48563129830497054 0.48370890183762627
0.0014893617021276596 0.49425157679865617 0.4800001042383442
0.001702127659574468 0.4981404770354892 0.47600738299134976
0.0019148936170212765 0.4985523192988237 0.4783323841811277
0.002127659574468085 0.49619088580247794 0.4783753042236886
0.002340425531914894 0.49877398668574136 0.47435271128480694
0.002553191489361702 0.49687278028724907 0.47435271128480694
0.0027659574468085106 0.49157974029736445 0.47248855295692416
0.0029787234042553193 0.486785434660549 0.4742062254518339
0.0031914893617021275 0.4808300774906801 0.4769490924063779
0.003404255319148936 0.4778047544854635 0.4772190205845198
0.003617021276595745 0.47844212591132823 0.4747859818165771
0.003829787234042553 0.4813642109863668 0.47239863214460187
0.004042553191489362 0.48552621808144014 0.47239863214460187
0.00425531914893617 0.49385170104738163 0.46851137468393006
0.004468085106382979 0.5026626887565117 0.47227952345599783
0.004680851063829788 0.5108866552529296 0.4709680860930228
0.004893617021276595 0.517821611712553 0.46946751343429405
0.005106382978723404 0.526478486082861 0.47230140400964543
0.005319148936170213 0.535222094432591 0.47472959541464765
0.005531914893617021 0.5356678367928555 0.4721602647361872
0.00574468085106383 0.5331975956061563 0.47228737708700486
0.005957446808510639 0.5359062042012701 0.4793104924933265
0.006170212765957446 0.5356043133325702 0.4835989037187803
0.006382978723404255 0.5344478750682587 0.4875644361476194
0.006595744680851064 0.5337885039199113 0.4934218137436049
0.006808510638297872 0.5252574149552123 0.4991080981167588
0.007021276595744681 0.5165238058550754 0.5035055053320276
0.00723404255319149 0.5074602165830535 0.5109357751210334
0.007446808510638298 0.5014045358141682 0.5113241369995108
0.007659574468085106 0.49545552618235505 0.5151954449484312
0.007872340425531916 0.49447483998259006 0.5143869014273615
0.008085106382978723 0.49460436412945236 0.5143236607190798
0.008297872340425531 0.49778769984459875 0.5171408448233764
0.00851063829787234 0.5054976255259098 0.5092405732858594
0.008723404255319148 0.507965264502571 0.5089423040726735
0.008936170212765958 0.5070746605459518 0.5080517001160546
0.009148936170212766 0.5050024811221114 0.5090570027221063
0.009361702127659575 0.4994730661161322 0.5105031753786029
0.009574468085106383 0.49365202916540996 0.5129929544597183
0.00978723404255319 0.493863244756696 0.5124875124489707
0.01 0.4889069281353889 0.510300421976689
0.010212765957446808 0.48826456146398006 0.5094822810293447
0.010425531914893617 0.49063150058846244 0.5111045913920442
0.010638297872340425 0.49415833893310834 0.5074296160035244
0.010851063829787235 0.49114947006154225 0.5075263176222676
0.011063829787234043 0.4955662494795534 0.5091117609334189
0.01127659574468085 0.49682462139716654 0.5085350520404528
0.01148936170212766 0.49374567125574725 0.5111189654068867
0.011702127659574468 0.49418119636823543 0.5092384421271237
0.011914893617021277 0.4904789488093309 0.5094274149279236
0.012127659574468085 0.49207891430338374 0.5132948033321805
0.012340425531914893 0.495847581827064 0.5100284186870684
0.012553191489361702 0.49323015103090234 0.5114102822003433
0.01276595744680851 0.4858014639879996 0.5082733741003592
0.01297872340425532 0.4843294832871279 0.5102693781091219
0.013191489361702127 0.4821123188712682 0.5107932137533958
0.013404255319148937 0.47664899812000616 0.5114660482301684
0.013617021276595745 0.4696575071629897 0.5087390899670933
0.013829787234042552 0.4758233778693424 0.5103218956702267
0.014042553191489362 0.46765637818921724 0.5074291127731668
0.01425531914893617 0.46946751343429405 0.506235015493483
0.01446808510638298 0.46915795399132465 0.5070012990235506
0.014680851063829787 0.4734625731667478 0.5048113059192438
0.014893617021276596 0.47704184027708835 0.5055574800985833
0.015106382978723404 0.47592924451572066 0.5040025447577332
0.015319148936170212 0.47728382999511476 0.5028995411487863
0.015531914893617021 0.4790741253533972 0.5044771541760644
0.01574468085106383 0.48602915263583635 0.4988267340275735
0.015957446808510637 0.48545150832348 0.4999899812858374
0.016170212765957447 0.48959641915221824 0.5001446653617045
0.016382978723404256 0.49546271732130936 0.49368619212826564
0.016595744680851062 0.49724247981352115 0.4909623839765511
0.01680851063829787 0.500528200191086 0.48932646044226097
0.01702127659574468 0.5067358107902992 0.4914053919100075
0.01723404255319149 0.5093515499594721 0.4905091019535325
0.017446808510638297 0.5132482444835006 0.4844021813939478
0.017659574468085106 0.5154713963319253 0.4807768727614776
0.017872340425531916 0.5157877237582918 0.4755365383704436
0.018085106382978722 0.5161437172464275 0.47390386723211125
0.01829787234042553 0.5213837848648519 0.47390836857518676
0.01851063829787234 0.5182572948891978 0.47047565152950954
0.01872340425531915 0.5163654127992183 0.4696493971173963
0.018936170212765956 0.5127546983858448 0.4713790453948904
0.019148936170212766 0.5080747865151447 0.4758040605781626
0.019361702127659575 0.5036165985392996 0.4782946551713495
0.01957446808510638 0.4891804611093303 0.48736052918531153
0.01978723404255319 0.48306012035989726 0.48447480069814997
0.02 0.47786163488938116 0.48646238938888237
0.02021276595744681 0.4696490285263315 0.48778152690909166
0.020425531914893616 0.4675156144506607 0.4890061246797741
0.020638297872340425 0.46614977287238185 0.48647079793837017
0.020851063829787235 0.46631089918994284 0.48532564208997886
0.02106382978723404 0.47070213530981264 0.4834338503216051
0.02127659574468085 0.46854472556902005 0.48410502308422343
0.02148936170212766 0.4713073988939526 0.48809475539197217
0.02170212765957447 0.4706905035042182 0.4834055427739193
0.021914893617021276 0.4702911451450374 0.4873476337377039
0.022127659574468085 0.4715262549026963 0.4856758849478177
0.022340425531914895 0.48007311834649546 0.4829464589891869
0.0225531914893617 0.4873291238720592 0.4816093008575321
0.02276595744680851 0.4930155498993774 0.4861762729086594
0.02297872340425532 0.49763436400312316 0.4805077183926779
0.023191489361702126 0.5005584038373146 0.4815407399560496
0.023404255319148935 0.49687652521453574 0.4859455578105293
0.023617021276595745 0.48733600561139556 0.48735246808943783
0.023829787234042554 0.48078858908023786 0.48366296073070303
0.02404255319148936 0.48277700359357717 0.4831460674157304
0.02425531914893617 0.4851001465559355 0.4824237036759513
0.02446808510638298 0.48766609386604626 0.4830243436156647
0.024680851063829785 0.49294244883249855 0.48022794156329374
0.024893617021276595 0.4951042655273839 0.4811919882755251
0.025106382978723404 0.4977982804842789 0.48094857350374703
0.025319148936170214 0.5029387055713481 0.4813179116523082
0.02553191489361702 0.5051144710092625 0.48413309814168365
0.02574468085106383 0.505464513153854 0.48630055639991504
0.02595744680851064 0.5158884757067618 0.48562446283328387
0.026170212765957445 0.5125396062507542 0.48678937787062854
0.026382978723404255 0.509524723900046 0.48803408908315166
0.026595744680851064 0.508382247298927 0.491823682027992
0.026808510638297874 0.5124617629472075 0.4914497766545025
0.02702127659574468 0.5058465127562536 0.49216795877481734
0.02723404255319149 0.507679690156795 0.49197530137615364
0.0274468085106383 0.504777548552145 0.4910079208412702
0.027659574468085105 0.5001751413820903 0.48845066654085917
0.027872340425531914 0.5024521378204722 0.49432285992990466
0.028085106382978724 0.5007327796775769 0.492965472481353
0.028297872340425533 0.5005528205405031 0.49443338009808013
0.02851063829787234 0.4991318561156503 0.4974485053889906
0.02872340425531915 0.49691619093597694 0.5014351106312483
0.02893617021276596 0.49239587390375417 0.5017645146885625
0.029148936170212764 0.48998534440644836 0.5018787295066408
0.029361702127659574 0.49672772164736484 0.5043724531280113
0.029574468085106383 0.4968123561307538 0.5036638983878847
0.029787234042553193 0.48928196360743936 0.504074386544525
0.03 0.4912297901434113 0.5068624232650527
0.03021276595744681 0.49313596715466207 0.5079709045376312
0.030425531914893618 0.49385689114878956 0.512603700671085
0.030638297872340424 0.49414409730251607 0.512068693149059
0.030851063829787233 0.4874212444151774 0.5117609251610354
0.031063829787234043 0.48158143672550036 0.5133369319764167
0.03127659574468085 0.4775026515991646 0.5162560019971935
0.03148936170212766 0.4812892748120185 0.5136030934165207
0.03170212765957447 0.47270144618725035 0.5141085196163647
0.031914893617021274 0.4725021047296969 0.5121239436113992
0.03212765957446809 0.47142159257449934 0.5105031753786029
0.03234042553191489 0.47002176216086083 0.5098032601717836
0.0325531914893617 0.47113755668101914 0.5111961790552253
0.03276595744680851 0.47142159257449934 0.5095472916847977
0.03297872340425532 0.4727734277063642 0.5124036062940641
0.033191489361702124 0.4754126072943418 0.5029104046004498
0.03340425531914894 0.4734515441673184 0.502961957039407
0.03361702127659574 0.47579866674552745 0.5012409033570617
0.033829787234042556 0.47689095207601284 0.5036535879325801
0.03404255319148936 0.4779964841365111 0.4984914361141262
0.03425531914893617 0.4732093355754858 0.4924798925005763
0.03446808510638298 0.4704614059042841 0.4967824891474478
0.03468085106382979 0.46847993062391563 0.49976628334775025
0.03489361702127659 0.47457225086858607 0.4916539631395502
0.035106382978723406 0.4739454638521907 0.4876445573393461
0.03531914893617021 0.4783874187958928 0.4860139115107004
0.03553191489361702 0.4874069338983802 0.4844463297202121
0.03574468085106383 0.49331966677543776 0.4794085413880593
0.03595744680851064 0.4948130529770252 0.4865368221767145
0.036170212765957444 0.4979573978677908 0.4804485540562052
0.036382978723404256 0.49933262657701183 0.4829345106504991
0.03659574468085106 0.4978016609672691 0.48148293828416056
0.03680851063829787 0.5001721877904921 0.4806890540700671
0.03702127659574468 0.49723353186962155 0.4793742126261382
0.03723404255319149 0.4909364046607971 0.47678232055218656
0.0374468085106383 0.4891148025678186 0.4806594996181612
0.03765957446808511 0.48893146108239366 0.4771557570718611
0.03787234042553191 0.4862368325406717 0.47255827855923555
0.038085106382978726 0.4873447180028033 0.4719232101813916
0.03829787234042553 0.48930596181810565 0.46891537271481226
0.03851063829787234 0.49306359945329 0.46999281730347875
0.03872340425531915 0.4973863415884548 0.4735893021687633
0.03893617021276596 0.5056344726444268 0.47761500822392794
0.03914893617021276 0.5012994861795603 0.4800530325619987
0.039361702127659576 0.5005157449183997 0.4812462469653194
0.03957446808510638 0.49645695270693224 0.48290436522609637
0.03978723404255319 0.49456115281099505 0.48669596501797074
0.04 0.49432140559169724 0.4884591681710817
0.04021276595744681 0.49543303007048434 0.4867583535822543
0.04042553191489362 0.49793914568845493 0.4851001465559355
0.040638297872340426 0.5037398519793432 0.48261957083494966
0.04085106382978723 0.5075227417124746 0.48024782534263627
0.041063829787234045 0.5114802149487054 0.48303171183366556
0.04127659574468085 0.5112325227811232 0.4829121043483743
0.04148936170212766 0.5078478099712309 0.4873761740479687
0.04170212765957447 0.5011726332624296 0.489965877926369
0.041914893617021276 0.4981612393851298 0.48715592137962
0.04212765957446808 0.49480204066081807 0.4875769962792636
0.042340425531914895 0.4965455718480483 0.4853791961050537
0.0425531914893617 0.4988008731634093 0.4841452796118704
0.04276595744680851 0.4999079944965236 0.4846433833887876
0.04297872340425532 0.5015782730622708 0.482450858973859
0.043191489361702126 0.5032497993945828 0.4823178694291264
0.04340425531914894 0.5021394841179077 0.48173936297539954
0.043617021276595745 0.5010293119490058 0.4828495351443014
0.04382978723404255 0.4958483522333917 0.4831460674157304
0.044042553191489364 0.4863648026330571 0.48598131395703165
0.04425531914893617 0.4819132134871031 0.4853056222107067
0.044468085106382976 0.47001468348143166 0.48752319539382993
0.04468085106382979 0.46301332390213673 0.4908268985875936
0.044893617021276595 0.4573230710755356 0.49342783365764875
0.0451063829787234 0.45805460361031897 0.49518210727421724
0.045319148936170214 0.4617931494803772 0.49892065314427564
0.04553191489361702 0.4667823196779283 0.5055714566355677
0.045744680851063826 0.4713692148855545 0.5008113462109942
0.04595744680851064 0.4672833619199115 0.5030319673790483
0.046170212765957445 0.46506455615539577 0.5058653770273338
0.04638297872340425 0.4632439259503531 0.5065950170981925
0.046595744680851064 0.46217825476857904 0.5061450354231957
0.04680851063829787 0.46276562162946333 0.5056179775280898
0.047021276595744683 0.46494039912301716 0.5062855390827592
0.04723404255319149 0.4655593551538837 0.5097187214757626
0.047446808510638296 0.4646637273669041 0.5105031753786029
0.04765957446808511 0.46467826394813444 0.5084531478740444
0.047872340425531915 0.4672228573562727 0.505763265996998
0.04808510638297872 0.4678762048406586 0.5081395835560425
0.048297872340425534 0.4736088419594399 0.5094817772173397
0.04851063829787234 0.48212902900804727 0.5056139776443318
0.048723404255319146 0.5043653838300443 0.5006778931537208
0.04893617021276596 0.5277515956012928 0.494043832109442
0.049148936170212765 0.5444192359331598 0.4913061383672032
0.04936170212765957 0.5521488928684316 0.4918782595425566
0.049574468085106384 0.5544197455449315 0.488857673371482
0.04978723404255319 0.5517767340155696 0.4868572690567413
0.05 0.5399713760553994 0.4909623839765511
0.05021276595744681 0.5293184548585131 0.49164340457344874
0.050425531914893615 0.52265741336291 0.4929164631167562
0.05063829787234043 0.5125617494889009 0.49343989424862184
0.050851063829787234 0.5031079747844386 0.49708213260389916
0.05106382978723404 0.49772483046088783 0.5002826751457162
0.05127659574468085 0.49250700121799224 0.49727868353423743
0.05148936170212766 0.4841232012321053 0.5007327325544407
0.051702127659574465 0.4868299495554019 0.49911511474848014
0.05191489361702128 0.48419391540431683 0.5014832614597747
0.052127659574468084 0.4811919882755251 0.5010730707009745
0.05234042553191489 0.4807385013223174 0.5039772540137183
0.0525531914893617 0.48361738969638496 0.5071620905966863
0.05276595744680851 0.4894843397981784 0.5075720566682951
0.05297872340425532 0.49336154260679843 0.5099712152985426
0.05319148936170213 0.5003109011577871 0.5095864041684701
0.053404255319148934 0.5027421808757844 0.5135449382049149
0.05361702127659575 0.5046917081579261 0.515559674857456
0.05382978723404255 0.5092423603261105 0.5152303108696596
0.05404255319148936 0.5109134194000712 0.5128513083790869
0.05425531914893617 0.5133962847898514 0.5103891474814252
0.05446808510638298 0.5050108434581181 0.5069515224132376
0.054680851063829784 0.498527153882271 0.5065950170981925
0.0548936170212766 0.49610392784540286 0.5031995508544599
0.0551063829787234 0.495847581827064 0.5017236661758194
0.05531914893617021 0.4921404810615443 0.5001296071329049
0.05553191489361702 0.49236617444470826 0.4946523525080828
0.05574468085106383 0.48772285391167897 0.4932248744713205
0.055957446808510634 0.48765369618313475 0.49103635111117955
0.05617021276595745 0.48436218089851335 0.49055701281562336
0.05638297872340425 0.4831460674157304 0.4882042843065908
0.056595744680851066 0.4823427736780926 0.4886608131714161
0.05680851063829787 0.4803284805508948 0.48900830483634583
0.05702127659574468 0.4811919882755251 0.4833701872778528
0.05723404255319149 0.48090893795224743 0.4859220244030299
0.0574468085106383 0.47898705410550907 0.48074303931418577
0.057659574468085104 0.47789336788101916 0.4832626381349448
0.05787234042553192 0.47822145053648707 0.4802149487054226
0.05808510638297872 0.4752482601589514 0.48192479826672346
0.05829787234042553 0.4737681410274185 0.4831460674157304
0.05851063829787234 0.47276114312758627 0.48155449925850957
0.05872340425531915 0.47239863214460187 0.48027986041795784
0.058936170212765954 0.4765705731790098 0.4802677052562221
0.05914893617021277 0.481944332266801 0.48091840864233387
0.05936170212765957 0.486947687303063 0.4790990068109659
0.059574468085106386 0.4919344229171821 0.47728382999511476
0.05978723404255319 0.49039782723690495 0.47728382999511476
0.06 0.4938935026868587 0.47728382999511476
0.06021276595744681 0.4945452729933571 0.4776097151483639
0.06042553191489362 0.4993702787552983 0.4773801953331588
0.06063829787234042 0.502007893012474 0.4774107940086193
0.060851063829787236 0.5066033845336749 0.4730425541375746
0.06106382978723404 0.5131944594872824 0.4704445530043966
0.06127659574468085 0.521106539069777 0.46877075165170573
0.06148936170212766 0.5212764435226789 0.4694416805613464
0.06170212765957447 0.530404020010103 0.4704445530043966
0.06191489361702127 0.533952125061065 0.46942489879770494
0.062127659574468086 0.5352087243867587 0.46461690565961344
0.06234042553191489 0.5325015821351559 0.46551369093928635
0.0625531914893617 0.5231127445615924 0.4715135378028432
0.0627659574468085 0.5181305203254848 0.4752477259092523
0.06297872340425532 0.5112108342589057 0.477043158787914
0.06319148936170213 0.5061247940928856 0.48068517171072933
0.06340425531914894 0.5027189481274058 0.4850573608097707
0.06361702127659574 0.4981529493096238 0.48485315008487234
0.06382978723404255 0.49313519869702377 0.4922747974581566
0.06404255319148935 0.4928914476185249 0.49448649290438745
0.06425531914893617 0.48871305064248327 0.4922346777405162
0.06446808510638298 0.4843791460492991 0.4960025689747874
0.06468085106382979 0.4804231438862533 0.4961438905147973
0.06489361702127659 0.474461595853651 0.49982784289512144
0.0651063829787234 0.4706454669923974 0.5071032573629598
0.06531914893617022 0.4681161899330945 0.5122701125532595
0.06553191489361702 0.4603540373329931 0.5085490962383976
0.06574468085106383 0.4565271669685152 0.5082749823390663
0.06595744680851064 0.44934811731647883 0.509905523097094
0.06617021276595744 0.44604446549720583 0.5086786049652673
0.06638297872340425 0.4439239993514355 0.5036638983878847
0.06659574468085107 0.4451059277435985 0.5016454156858103
0.06680851063829787 0.44522881110645757 0.49994302703220256
0.06702127659574468 0.4423254698684137 0.50247179442079
0.06723404255319149 0.43926339830911465 0.5047250495059882
0.06744680851063829 0.44175123397896704 0.5064405500787805
0.06765957446808511 0.4461024786077977 0.5085356021997779
0.06787234042553192 0.45194863662977214 0.5133664586315859
0.06808510638297872 0.45822970519379386 0.5085490962383976
0.06829787234042553 0.46572692127913917 0.5055341944654622
0.06851063829787234 0.47882378329917824 0.5029441853213552
0.06872340425531914 0.4913473227503814 0.49851490658834857
0.06893617021276596 0.505288994523613 0.4968499277821263
0.06914893617021277 0.5110514837841829 0.4946877727884348
0.06936170212765957 0.5171680815352001 0.491913127196779
0.06957446808510638 0.5194010797772722 0.48890375656859975
0.06978723404255319 0.5157260576122483 0.4933869761121599
0.06999999999999999 0.5129139862833815 0.493182466758463
0.07021276595744681 0.5061154174942627 0.4912537118113575
0.07042553191489362 0.4959670491003127 0.49567265116746995
0.07063829787234042 0.4930304464937614 0.4976876775902639
0.07085106382978723 0.49291409011353665 0.49878581954703044
0.07106382978723404 0.4923017531584993 0.5018305957849614
0.07127659574468086 0.49439535915431376 0.5031620419204299
0.07148936170212766 0.4929164631167562 0.5039329531047261
0.07170212765957447 0.49527390336555505 0.5026868588177822
0.07191489361702127 0.49603471760175677 0.5026868588177822
0.07212765957446808 0.49698787464287975 0.5097446334375102
0.07234042553191489 0.5019221166337263 0.5033922520526023
0.0725531914893617 0.5064440771349864 0.4979526009304753
0.07276595744680851 0.5100838275088709 0.49877870053737183
0.07297872340425532 0.5171464665658456 0.49897396397902866
0.07319148936170213 0.5202735710796287 0.5003714319147259
0.07340425531914893 0.5181700651005419 0.5029719228351316
0.07361702127659574 0.5132417459141363 0.5008843401567732
0.07382978723404256 0.5075530837938353 0.4991107046855592
0.07404255319148936 0.5025348301150298 0.49821416640094424
0.07425531914893617 0.4975038810594508 0.5062135373437265
0.07446808510638298 0.49544930968416245 0.5041337773857847
0.07468085106382978 0.49607883677827436 0.49966612251449977
0.0748936170212766 0.49155441166372993 0.4978016609672691
0.07510638297872341 0.4880312652662433 0.4960266315890946
0.07531914893617021 0.48683629178663307 0.49188310855793593
0.07553191489361702 0.4843293323877352 0.4876548727553778
0.07574468085106383 0.4816347185091488 0.4865809690948986
0.07595744680851063 0.47931814676908296 0.4857090227916314
0.07617021276595745 0.4772674381360066 0.48114281269820064
0.07638297872340426 0.4722605430895207 0.4805730108997839
0.07659574468085106 0.46818553912234795 0.4853739636254932
0.07680851063829787 0.4640917630484937 0.4808952174540693
0.07702127659574468 0.4648101842332053 0.484079397004229
0.0772340425531915 0.46403354491608273 0.4853142810071375
0.0774468085106383 0.46440158319206076 0.4851001465559355
0.07765957446808511 0.4670988724747115 0.4851001465559355
0.07787234042553191 0.467513434294089 0.4851001465559355
0.07808510638297872 0.46848044650575665 0.4851001465559355
0.07829787234042553 0.4702068350989934 0.48757720508802777
0.07851063829787235 0.4660872938711512 0.4968337733189453
0.07872340425531915 0.4712629161260389 0.48721290214460117
0.07893617021276596 0.46964269571499434 0.4888331225556456
0.07914893617021276 0.45974201907069195 0.4863558972826361
0.07936170212765957 0.4577679345277772 0.4898857606675914
0.07957446808510638 0.45948686703713576 0.49284675503730435
0.0797872340425532 0.47016193104189086 0.49246023675235123
0.08 0.47473986931629486 0.4932335051350529
0.08021276595744681 0.48379926522300254 0.48900830483634583
0.08042553191489361 0.49673984428212886 0.4861619632410757
0.08063829787234042 0.505903302340199 0.4854593604491144
0.08085106382978724 0.5157584748694928 0.4831256974452632
0.08106382978723405 0.5246734328871405 0.47766343607881573
0.08127659574468085 0.5326763343030475 0.4766286233290294
0.08148936170212766 0.5305363271988711 0.47442414581117087
0.08170212765957446 0.5275357002096379 0.47448404657632753
0.08191489361702127 0.5315078334302149 0.47581808256156166
0.08212765957446809 0.5320236472429236 0.4767381856426063
0.0823404255319149 0.5247577328820748 0.4823305053985549
0.0825531914893617 0.5192688938720516 0.490733810897561
0.08276595744680851 0.5159709793378071 0.486077186126038
0.08297872340425531 0.5187567001495839 0.486077186126038
0.08319148936170212 0.5081480897587766 0.4864781926056591
0.08340425531914894 0.5063167042697926 0.4887753959224449
0.08361702127659575 0.5134901734192275 0.48638423953929993
0.08382978723404255 0.5152286591738214 0.49098113921488734
0.08404255319148936 0.5179294043506891 0.48939839242508026
0.08425531914893616 0.5146960845328977 0.48900830483634583
0.08446808510638298 0.511489060928047 0.49290466847763403
0.08468085106382979 0.5105132924825881 0.4890487732522868
0.0848936170212766 0.5028974908645921 0.48309277243655974
0.0851063829787234 0.5017098192476794 0.4777992943352987
0.08531914893617021 0.4980751901832792 0.47728382999511476
0.08553191489361701 0.4968562144978947 0.47633838352574037
0.08574468085106383 0.4887827617047493 0.47559288450843895
0.08595744680851064 0.4819323591285892 0.48216902784562765
0.08617021276595745 0.47002222640493074 0.48216902784562765
0.08638297872340425 0.46262823644357587 0.48315544281136874
0.08659574468085106 0.46279437809405677 0.48705422569614076
0.08680851063829788 0.46405699873467665 0.4875059484171388
0.08702127659574468 0.46752816811863074 0.4887622032157525
0.08723404255319149 0.4757780642804446 0.4885651302808522
0.0874468085106383 0.48597703184685437 0.48998534440644836
0.0876595744680851 0.49560523560519415 0.49095472929392786
0.08787234042553191 0.4951860418205175 0.4942090022504148
0.08808510638297873 0.4954599469706111 0.49448290740050843
0.08829787234042553 0.49572816403019054 0.49432231357347334
0.08851063829787234 0.49682462139716654 0.49659838719478683
0.08872340425531915 0.4955182911688374 0.49921414394681485
0.08893617021276595 0.49205280245186256 0.5002159151662233
0.08914893617021276 0.49047382009919527 0.5021982067558173
0.08936170212765958 0.49725453375931405 0.5026958753443826
0.08957446808510638 0.49988388091610664 0.502654823615624
0.08978723404255319 0.49885294913931605 0.5046656874919687
0.09 0.50227165726371 0.5089890056242728
0.0902127659574468 0.5039646809938998 0.5089245705964702
0.09042553191489362 0.500381158386606 0.5089919831920887
0.09063829787234043 0.49389789736098566 0.511153070200629
0.09085106382978723 0.485446180044321 0.5142815711008687
0.09106382978723404 0.47562731423814236 0.5143263991356545
0.09127659574468085 0.4670113683951881 0.513856895651483
0.09148936170212765 0.46097340724491387 0.5140327939719967
0.09170212765957447 0.45831433049898007 0.5105583567925133
0.09191489361702128 0.45564639682939545 0.5084065336149353
0.09212765957446808 0.45481191988275516 0.5088960929922399
0.09234042553191489 0.4539747908500563 0.5085498743023055
0.0925531914893617 0.4539057219462391 0.5040013851835167
0.0927659574468085 0.45671305816742697 0.5032676307238059
0.09297872340425532 0.45679317483359055 0.5007327796775769
0.09319148936170213 0.4603377071435732 0.4983776285589936
0.09340425531914893 0.46127713878550536 0.4942095068973062
0.09361702127659574 0.46600461655955194 0.4937327014763448
0.09382978723404255 0.46946751343429405 0.49225276550272135
0.09404255319148937 0.47056919018427057 0.49540691112707336
0.09425531914893617 0.47742855649181487 0.4935517421083023
0.09446808510638298 0.49141695139493513 0.49199747600795574
0.09468085106382979 0.49681412709381245 0.4935643247290398
0.09489361702127659 0.5043477474843713 0.4880747591161013
0.0951063829787234 0.5135853892022447 0.48480620937984675
0.09531914893617022 0.523547204405198 0.48355903861893507
0.09553191489361702 0.5354508600037403 0.4835790657900416
0.09574468085106383 0.5427332447329716 0.48440400921429316
0.09595744680851064 0.5383073764450346 0.48577078621127434
0.09617021276595744 0.5403467032155463 0.48767637144366605
0.09638297872340426 0.541891137999648 0.486077186126038
0.09659574468085107 0.5370062129727435 0.4864188142735308
0.09680851063829787 0.5317784119451546 0.48827059997540484
0.09702127659574468 0.5252570820066517 0.48900830483634583
0.09723404255319149 0.5161614464252975 0.4894001904718744
0.09744680851063829 0.505857963361607 0.4881112605440822
0.09765957446808511 0.4932725235848202 0.4876979902567016
0.09787234042553192 0.4810934238315335 0.48900830483634583
0.09808510638297872 0.4673438070372296 0.4925583130355905
0.09829787234042553 0.4580443553037791 0.4938935026868587
0.09851063829787234 0.45609770320696885 0.4912203194228922
0.09872340425531914 0.4557889594528579 0.4936645626001916
0.09893617021276596 0.45645212076587655 0.4985002270791387
0.09914893617021277 0.46199279520192904 0.4952756290969298
0.09936170212765957 0.46760046945662087 0.5074771603928627
0.09957446808510638 0.47682982487459535 0.4921566031557142
0.09978723404255319 0.48090346675011614 0.486365707651447
0.1 0.4830072575779306 0.48516955147483537
0.10021276595744681 0.48689212116708797 0.4794810659288993
0.10042553191489362 0.49310436307711764 0.47145916107406377
0.10063829787234042 0.5000621307256923 0.4678008552734681
0.10085106382978723 0.49797544860069193 0.4661347687556464
0.10106382978723404 0.4940031117847788 0.46950946861122667
0.10127659574468086 0.490167570471438 0.4710697423381901
0.10148936170212766 0.48692573042007 0.46909900181890296
0.10170212765957447 0.4855750031920343 0.47086475704468567
0.10191489361702127 0.4872685876822249 0.472779970936611
0.10212765957446808 0.4851372743951477 0.4745691252979236
0.10234042553191489 0.48495949647744563 0.4795116983129734
0.1025531914893617 0.49094300349806896 0.4818843364031749
0.10276595744680851 0.5003364602638324 0.4849680400846873
0.10297872340425532 0.5042922280221378 0.48795272406196166
0.10319148936170212 0.5133250822338992 0.4888990929813345
0.10340425531914893 0.5199429668220107 0.49419456053897387
0.10361702127659575 0.5179318070358597 0.49505655739755033
0.10382978723404256 0.5128815978689973 0.49511065353384637
0.10404255319148936 0.508375551800207 0.4926486314061189
0.10425531914893617 0.5084095117693324 0.49375391821779346
0.10446808510638297 0.5017638015897136 0.4929241748799039
0.10468085106382978 0.5007327796775769 0.4909623839765511
0.1048936170212766 0.5014879266848529 0.49020723696927515
0.1051063829787234 0.504808905066937 0.486886258587191
0.10531914893617021 0.5071058271487257 0.4851001465559355
0.10553191489361702 0.5075720566682951 0.4870137021890135
0.10574468085106382 0.509870761118299 0.48879750008291123
0.10595744680851064 0.507812044798958 0.4908023918894425
0.10617021276595745 0.5065950170981925 0.4948183750395449
0.10638297872340426 0.5055543276126303 0.4950828620989299
0.10659574468085106 0.49956086468417854 0.5012226306894398
0.10680851063829787 0.4978016609672691 0.49747801658965846
0.10702127659574467 0.4978016609672691 0.5011413242727475
0.1072340425531915 0.49541775476185806 0.5031871171468025
0.1074468085106383 0.4898689115117835 0.5014678381757931
0.1076595744680851 0.48944533603070883 0.5021468504420427
0.10787234042553191 0.4914442665232239 0.5070636251681085
0.10808510638297872 0.493413278546669 0.5033906037383435
0.10829787234042552 0.49468497220342084 0.5025012887642415
0.10851063829787234 0.4922498295551985 0.5000661461160193
0.10872340425531915 0.49476143362302255 0.5025777501838432
0.10893617021276596 0.4868776319089683 0.49647015076934314
0.10914893617021276 0.48449306932809905 0.49822375702397265
0.10936170212765957 0.4848126119320774 0.49739969064488276
0.10957446808510639 0.48237904434246737 0.49478379473706546
0.1097872340425532 0.47804147660635193 0.49893432135753585
0.11 0.47450973961920434 0.5011108023124102
0.1102127659574468 0.47272787186169596 0.5000849798245685
0.11042553191489361 0.4744074663693475 0.5024341857404685
0.11063829787234042 0.4753297508549097 0.5022899074705688
0.11085106382978724 0.4745829612123824 0.5061905571028423
0.11106382978723404 0.48126360440042076 0.5052684256297572
0.11127659574468085 0.48543400251827074 0.5076915180947079
0.11148936170212766 0.4869014248111598 0.5027794254425461
0.11170212765957446 0.4905986000012283 0.5043680999764951
0.11191489361702127 0.4928794186430468 0.5017653859582435
0.11212765957446809 0.49127367182431686 0.4941529092266635
0.1123404255319149 0.4960249922704193 0.4981123429317491
0.1125531914893617 0.4912959284795005 0.4938935026868587
0.1127659574468085 0.4933749671204145 0.4936642506850296
0.11297872340425531 0.4928861175519763 0.4935779380184179
0.11319148936170213 0.48900830483634583 0.49578708729410537
0.11340425531914894 0.488430655029963 0.5031787692673778
0.11361702127659574 0.4859236237692359 0.5075720566682951
0.11382978723404255 0.4851001465559355 0.5117362967429135
0.11404255319148936 0.4822099775804656 0.5153474234942779
0.11425531914893616 0.4847915964662458 0.5145141836889098
0.11446808510638298 0.49057041925045797 0.5207933184692892
0.11468085106382979 0.48337349806283597 0.5172413720817184
0.1148936170212766 0.49072421028214974 0.5131304907727845
0.1151063829787234 0.4866104186260068 0.5114802149487054
0.11531914893617021 0.49089215885379966 0.5074316064227923
0.11553191489361703 0.48856086689692757 0.5022394208783638
0.11574468085106383 0.4902792936266552 0.5001448812371636
0.11595744680851064 0.4916889822294073 0.49732550403165926
0.11617021276595745 0.4871480394515516 0.4936303653337652
0.11638297872340425 0.49059081474667193 0.4920137373926295
0.11659574468085106 0.49310451149083984 0.4900323564999693
0.11680851063829788 0.4972775861703297 0.49141534874971426
0.11702127659574468 0.4991979383196736 0.49361460179295835
0.11723404255319149 0.4978016609672691 0.4892430222389075
0.1174468085106383 0.4967276940790081 0.48466009042996344
0.1176595744680851 0.49323047007545545 0.4824830348043269
0.11787234042553191 0.48885824456508015 0.4788811040393449
0.11808510638297873 0.4880312652662433 0.47915405369715497
0.11829787234042553 0.4889390578925047 0.4756067386302743
0.11851063829787234 0.4880825924082404 0.47070118871438227
0.11872340425531915 0.49137388155322315 0.47596387577778554
0.11893617021276595 0.497618158498619 0.47122320829913616
0.11914893617021277 0.4980979080767158 0.4687977582538584
0.11936170212765958 0.4979681149432543 0.46923328375497325
0.11957446808510638 0.5007084491378044 0.47160240216465615
0.11978723404255319 0.49877870053737183 0.4697222670951623
0.12 0.4970674273151383 0.4703231500454107
0.1202127659574468 0.4938935026868587 0.47531774893672224
0.12042553191489362 0.49417458405072723 0.47407162992093843
0.12063829787234043 0.495847581827064 0.47294556951036076
0.12085106382978723 0.4962554568829264 0.47394483622894457
0.12106382978723404 0.4962831752270064 0.47445856405502485
0.12127659574468085 0.495847581827064 0.47349111532976074
0.12148936170212765 0.4951391355300817 0.4738155247385665
0.12170212765957447 0.49403033930662316 0.47435271128480694
0.12191489361702128 0.48905359686670113 0.4753206924488386
0.12212765957446808 0.486077186126038 0.4782608695652173
0.12234042553191489 0.48589073298438895 0.47872700241934
0.1225531914893617 0.4842504334148652 0.4831460674157304
0.12276595744680852 0.4856048520356746 0.48440783111507807
0.12297872340425532 0.4878187596707649 0.4876489982789312
0.12319148936170213 0.49105531708145206 0.4880777318186938
0.12340425531914893 0.49420172579922467 0.4941493555662195
0.12361702127659574 0.49796830753514526 0.49372685611898276
0.12382978723404255 0.49787023474066405 0.4901910657266332
0.12404255319148937 0.5028806446342114 0.49200401881879674
0.12425531914893617 0.5091466743923823 0.4944057125331313
0.12446808510638298 0.5131846726524214 0.498339075451028
0.12468085106382978 0.5014617215158932 0.49170667717190986
0.12489361702127659 0.4991921202024187 0.4926609751067322
0.1251063829787234 0.49400255753017897 0.49146136384395644
0.12531914893617022 0.49013997815997074 0.4938935026868587
0.125531914893617 0.4857260103848101 0.49717579713839455
0.12574468085106383 0.4787624225662936 0.502977364045608
0.12595744680851065 0.47339843123124603 0.5010888055563332
0.12617021276595744 0.46720820654947365 0.500742746744175
0.12638297872340426 0.4633516727858629 0.5085490962383976
0.12659574468085105 0.4627422430185677 0.5085490962383976
0.12680851063829787 0.46262823644357587 0.5077273330200797
0.1270212765957447 0.4674260985636673 0.5043734819215675
0.12723404255319148 0.4626349011921493 0.5029319518038795
0.1274468085106383 0.4624973056399161 0.5099794521639631
0.1276595744680851 0.4641451727990836 0.5144113336590133
0.12787234042553192 0.46810883819479493 0.5126480723535063
0.1280851063829787 0.46911707289672044 0.509488994787191
0.12829787234042553 0.4743799114647233 0.5063405571381981
0.12851063829787235 0.4792340652204915 0.5063497962269597
0.12872340425531914 0.4802149487054226 0.5031463961481771
0.12893617021276596 0.48380552657841414 0.5017098192476794
0.12914893617021275 0.4882717439678394 0.4985382218357755
0.12936170212765957 0.4916363558838943 0.4960496269355702
0.1295744680851064 0.5014576625178127 0.5015585252097594
0.12978723404255318 0.4999554726435794 0.49395056912574586
0.13 0.5066931738741497 0.4954549547232352
0.1302127659574468 0.5071622043496692 0.4923492758652795
0.13042553191489362 0.504822991644587 0.4943243811971623
0.13063829787234044 0.5061919505453856 0.49136545052935793
0.13085106382978723 0.5091650966393723 0.48857282401993524
0.13106382978723405 0.5083435609478845 0.49121955206974754
0.13127659574468084 0.5072784261902488 0.4938742730596661
0.13148936170212766 0.5018780650145875 0.4962746138512549
0.13170212765957448 0.5032236062696398 0.4982964238693077
0.13191489361702127 0.5042375193125272 0.5005625773983944
0.1321276595744681 0.5031034386104329 0.5003161998849259
0.13234042553191488 0.5030056207698748 0.5010619184865819
0.1325531914893617 0.5015643781400709 0.5014326197601815
0.1327659574468085 0.49510047676202695 0.502514433949901
0.13297872340425532 0.4902039255627548 0.5063764359418861
0.13319148936170214 0.4918634431462134 0.5098953321750809
0.13340425531914893 0.4905620136531081 0.5012855626857317
0.13361702127659575 0.48867782727632486 0.496839014507127
0.13382978723404254 0.48940587350821607 0.49557128130610206
0.13404255319148936 0.4909623839765511 0.4913491211732698
0.13425531914893618 0.4871058188712043 0.4909623839765511
0.13446808510638297 0.4851001465559355 0.4935080354340578
0.1346808510638298 0.48367360202771514 0.493443997728741
0.13489361702127659 0.48565459325413074 0.4996058653524908
0.1351063829787234 0.48977963043111966 0.49332789106741365
0.13531914893617022 0.49838676571885715 0.4917931473587566
0.13553191489361702 0.5060195594485781 0.4897845534462042
0.13574468085106384 0.5101735834397373 0.48803273229705496
0.13595744680851063 0.5144782696038809 0.4878973933765077
0.13617021276595745 0.5157768429677049 0.4864715210882568
0.13638297872340424 0.5144714100856946 0.48412310698583294
0.13659574468085106 0.5049348616455723 0.48497305023016674
0.13680851063829788 0.4977932135114185 0.48218169902940355
0.13702127659574467 0.4959668364348123 0.48545791037918046
0.1372340425531915 0.49753006456140714 0.48826641298765683
0.13744680851063829 0.5045147369558249 0.48900830483634583
0.1376595744680851 0.5139513997203453 0.49100049843839566
0.13787234042553193 0.5153883732291158 0.49416281394084766
0.13808510638297872 0.5161352876386579 0.48889522698062404
0.13829787234042554 0.5146209318921857 0.48269302342855874
0.13851063829787233 0.5162070959583239 0.4848626712945938
0.13872340425531915 0.5074900725128605 0.48515480265955857
0.13893617021276597 0.5044838139131774 0.48705422569614076
0.13914893617021276 0.5022132215714213 0.4861838196062627
0.13936170212765958 0.4979360461981584 0.48496576132504626
0.13957446808510637 0.49627151376752404 0.484970970866753
0.1397872340425532 0.4944779799699136 0.4834383060572578
0.13999999999999999 0.49067918566444685 0.48796754294934813
0.1402127659574468 0.4847724320238343 0.4907459422972173
0.14042553191489363 0.48223885856432236 0.4871938871335302
0.14063829787234042 0.4781300004407833 0.49024708265531636
0.14085106382978724 0.47606461693915536 0.4936513292010019
0.14106382978723403 0.4736634180761622 0.4911122716962799
0.14127659574468085 0.4703599270026928 0.4863746573155043
0.14148936170212767 0.4758686155834373 0.4876271167198476
0.14170212765957446 0.4791377437363835 0.48499998115699894
0.14191489361702128 0.4753311130815068 0.4811933505021222
0.14212765957446807 0.4762920514562713 0.4821542888768867
0.1423404255319149 0.48764666320974187 0.4746091126558079
0.1425531914893617 0.4880312652662433 0.4762742248316448
0.1427659574468085 0.48942234594304673 0.4777475235540492
0.14297872340425533 0.492562327093043 0.47906084112346325
0.14319148936170212 0.49607730972750946 0.48081833244069655
0.14340425531914894 0.4960290649454206 0.4815897665013981
0.14361702127659573 0.4950186966075004 0.4820949506703582
0.14382978723404255 0.49368882000238573 0.48216902784562765
0.14404255319148937 0.48808566288497995 0.48439862795260136
0.14425531914893616 0.4804979694411811 0.4857670993801749
0.14446808510638298 0.4821361865718013 0.483047543594251
0.14468085106382977 0.4817031716461805 0.4869340745452152
0.1448936170212766 0.47655101081686846 0.4846117057722231
0.1451063829787234 0.47599403367342674 0.48838279133317497
0.1453191489361702 0.47515484394731117 0.4925591235124038
0.14553191489361703 0.4692744581019881 0.49605240006794277
0.14574468085106382 0.4679406216677397 0.4929164631167562
0.14595744680851064 0.4671986218256488 0.494321548835412
0.14617021276595746 0.471481532241265 0.4984730005695928
0.14638297872340425 0.4730047107476138 0.4992754931811524
0.14659574468085107 0.4807962849391826 0.5024890071496109
0.14680851063829786 0.479700496767509 0.500553350167207
0.14702127659574468 0.48279598836207543 0.4989632881792336
0.14723404255319147 0.4876978170724424 0.5043191422698364
0.1474468085106383 0.4885953846995043 0.5040768185247263
0.14765957446808511 0.48946094962028486 0.5060706223120288
0.1478723404255319 0.4904117571663138 0.5037176689966343
0.14808510638297873 0.492017926410358 0.4993777250083039
0.14829787234042552 0.49453190318367607 0.5028173007046713
0.14851063829787234 0.4892565265278513 0.4971142133705896
0.14872340425531916 0.49007355556071164 0.49628863759838027
0.14893617021276595 0.48963503417829957 0.5007327796775769
0.14914893617021277 0.4837017391399209 0.49828556669955143
0.14936170212765956 0.4792766434074265 0.49341466646983406
0.14957446808510638 0.4760659997282662 0.4959610387838778
0.1497872340425532 0.47901086252305497 0.4926481046318657
0.15 0.4741350512154102 0.4892252704079761
0.15021276595744681 0.476393334222838 0.4880961731146127
0.1504255319148936 0.48127453002578224 0.4900541714162428
0.15063829787234043 0.48552063967910014 0.4851001465559355
0.15085106382978725 0.4815702128694516 0.4851001465559355
0.15106382978723404 0.48094728170992807 0.4855073952678353
0.15127659574468086 0.4768711924430048 0.48804945003630074
0.15148936170212765 0.4723285485027719 0.49305663040041625
0.15170212765957447 0.4707666600214481 0.49618040736306357
0.15191489361702126 0.47434627182038247 0.49604427763396947
0.15212765957446808 0.47805711400757633 0.49766582392884173
0.1523404255319149 0.48630474673316737 0.5025161883624352
0.1525531914893617 0.49082046613043284 0.4995887157626775
0.15276595744680851 0.49636812679870496 0.49877870053737183
0.1529787234042553 0.5080548398051924 0.49877870053737183
0.15319148936170213 0.519345959324639 0.49738728290488726
0.15340425531914895 0.5289744486714645 0.4952556397863951
0.15361702127659574 0.5366257225334875 0.4955900605891789
0.15382978723404256 0.5326375500143917 0.49330016557287537
0.15404255319148935 0.5339438899111136 0.4929137180667724
0.15425531914893617 0.5310210063507572 0.492063947241429
0.154468085106383 0.5312248555035813 0.4929164631167562
0.15468085106382978 0.5326499197844853 0.49454614777582
0.1548936170212766 0.5330402052884791 0.49643378130839033
0.1551063829787234 0.5331691430904324 0.496041639426534
0.15531914893617021 0.5382448693356551 0.5018328230508551
0.155531914893617 0.5389754668420916 0.4986305245503511
0.15574468085106383 0.5339818610313867 0.5055703999755753
0.15595744680851065 0.5293174322517429 0.5067127754403896
0.15617021276595744 0.5356065276755307 0.5007327796775769
0.15638297872340426 0.5313128008241761 0.49773828152607813
0.15659574468085105 0.5341060850699137 0.4920933835555025
0.15680851063829787 0.5318288710609357 0.4898161695465244
0.1570212765957447 0.526066112599925 0.4892246215204622
0.15723404255319148 0.5152766779825478 0.4901295684603709
0.1574468085106383 0.5081208015889195 0.4877234208879112
0.1576595744680851 0.5040165162640201 0.4856327435755037
0.15787234042553192 0.4967528809138294 0.48409919349138725
0.15808510638297874 0.4955849912943058 0.48427372648736167
0.15829787234042553 0.4961981304947427 0.4788352375316969
0.15851063829787235 0.49990186728176517 0.478225669036839
0.15872340425531914 0.5041975796718414 0.4776970806153238
0.15893617021276596 0.5064421019227003 0.4753297508549097
0.15914893617021275 0.5095934418668034 0.475040981540837
0.15936170212765957 0.5150023261170821 0.47632268614503637
0.1595744680851064 0.516949941666581 0.48490812839131253
0.15978723404255318 0.5144780545884409 0.4898519025475932
0.16 0.5112347515027229 0.48601461671108553
0.1602127659574468 0.5073626789485114 0.4851001465559355
0.16042553191489362 0.5016346527925456 0.4886432639171118
0.16063829787234044 0.4977947162654023 0.4847559474942562
0.16085106382978723 0.49682462139716654 0.481485782172391
0.16106382978723405 0.49049877182216206 0.48277345066927635
0.16127659574468084 0.4849270362919542 0.48477857483348696
0.16148936170212766 0.4801761466507477 0.4898364989580379
0.16170212765957448 0.47748230118139334 0.4839399521608447
0.16191489361702127 0.47538294345400367 0.48517993545457644
0.1621276595744681 0.477744640396197 0.4871096444640788
0.16234042553191488 0.47942342678681943 0.48348823104329963
0.1625531914893617 0.47488682777560154 0.486369367919137
0.1627659574468085 0.4718486849457763 0.4865042784973152
0.16297872340425532 0.4727830478927519 0.4874386414442908
0.16319148936170214 0.4731181222526044 0.48633473558813806
0.16340425531914893 0.47083064513364076 0.48777387051341387
0.16361702127659575 0.4645831324076986 0.48803208209016075
0.16382978723404254 0.4660675413323085 0.4913567184206731
0.16404255319148936 0.45597930754222743 0.49415573318043643
0.16425531914893618 0.45344367130960894 0.4956529602630488
0.16446808510638297 0.4549490312416669 0.4947334308980497
0.1646808510638298 0.45295097834860504 0.49863899412828916
0.16489361702127658 0.45462289376939313 0.49650303421381203
0.1651063829787234 0.4583954077405379 0.4992146227364283
0.16531914893617022 0.4556924142601451 0.5007134706390344
0.16553191489361702 0.4504603897337395 0.5001991119760797
0.16574468085106384 0.447412555808069 0.5018467281918298
0.16595744680851063 0.4476685733605912 0.5001682425096642
0.16617021276595745 0.4537332011355484 0.5012765624066206
0.16638297872340424 0.46565463990901107 0.5010749163272473
0.16659574468085106 0.4733849077827068 0.4999976909829994
0.16680851063829788 0.4829520043743584 0.5006156694164294
0.16702127659574467 0.4890863758714247 0.5016317482126006
0.1672340425531915 0.49375175391475873 0.4979586115739664
0.16744680851063828 0.4940017616082975 0.5040982887122166
0.1676595744680851 0.4976221492968328 0.5018893309181159
0.16787234042553192 0.49877870053737183 0.4980672576578464
0.16808510638297872 0.49677838059747503 0.495847581827064
0.16829787234042554 0.49263692855374 0.4974529084637259
0.16851063829787233 0.496615305964833 0.49873683745090513
0.16872340425531915 0.48642322414961603 0.49629829721743884
0.16893617021276597 0.4806570512489382 0.49962752331878785
0.16914893617021276 0.47939990958197687 0.4970783010553533
0.16936170212765958 0.47105011731795937 0.4984268518807629
0.16957446808510637 0.4648792841182181 0.49626185947850604
0.1697872340425532 0.45595676247884726 0.49785100200712484
0.17 0.4438196215075679 0.5012215407472416
0.1702127659574468 0.4360272680148084 0.4958050949571021
0.17042553191489362 0.4291795992806463 0.49583902861958734
0.17063829787234042 0.4258549720761253 0.5024240608503174
0.17085106382978724 0.4316058691448405 0.4949422750090805
0.17106382978723403 0.4413120346728875 0.49464117142873315
0.17127659574468085 0.4542775324811645 0.49705905251471943
0.17148936170212767 0.4665312177729632 0.4992663574972525
0.17170212765957446 0.47100798289493856 0.5005259748377965
0.17191489361702128 0.4722485922324857 0.5065217772834821
0.17212765957446807 0.47483386723503507 0.5027015864874287
0.1723404255319149 0.46566803603953444 0.5000995334451169
0.1725531914893617 0.4644672399378692 0.4988937761832838
0.1727659574468085 0.47159867670684524 0.4970246102566057
0.17297872340425532 0.4799697048477756 0.5006101577487534
0.17319148936170212 0.4932774684680913 0.491007509645468
0.17340425531914894 0.5248839070699789 0.4947200756048315
0.17361702127659576 0.5401448211260466 0.4894791520863462
0.17382978723404255 0.5571961707399627 0.4779593071567103
0.17404255319148937 0.5746373717978727 0.47900429899698593
0.17425531914893616 0.58516870411265 0.48063431147575836
0.17446808510638298 0.5953283527298281 0.4825689150068291
0.17468085106382977 0.5997434135054759 0.4847764453946529
0.1748936170212766 0.6003908158280411 0.48824045096803637
0.1751063829787234 0.5913311555204824 0.4853844407133224
0.1753191489361702 0.5851663539535343 0.48412310698583294
0.17553191489361702 0.5735054724309265 0.4845049285096832
0.17574468085106382 0.5560736516614104 0.48673348657050236
0.17595744680851064 0.5446860087434576 0.4889879774532422
0.17617021276595746 0.5419955010320556 0.4863896778593433
0.17638297872340425 0.5290383572409975 0.490047315156662
0.17659574468085107 0.5173797330409249 0.4855700260051849
0.17680851063829786 0.5147112992533102 0.48645429450754685
0.17702127659574468 0.5134468703346505 0.4851001465559355
0.1772340425531915 0.5142779242299056 0.4851001465559355
0.1774468085106383 0.5148932092442045 0.48738433501941486
0.1776595744680851 0.5131007230822471 0.4870778991460284
0.1778723404255319 0.519819229041723 0.484603739598466
0.17808510638297873 0.5261358085002443 0.4837264926148189
0.17829787234042552 0.5258269109223742 0.4858723905006107
0.17851063829787234 0.5243699746995293 0.4895147310577228
0.17872340425531916 0.5257160613541751 0.49075251040351653
0.17893617021276595 0.5253461230529968 0.4901726985293035
0.17914893617021277 0.5233710670598842 0.49087919534157726
0.17936170212765956 0.5221417297771618 0.49499942292096966
0.17957446808510638 0.5204461814472615 0.4972838298643705
0.1797872340425532 0.5188634968859716 0.49218503927273183
0.18 0.5095605002018004 0.48736845075507473
0.1802127659574468 0.5035222823685581 0.48733032145220206
0.1804255319148936 0.49856020750569763 0.48676496134471886
0.18063829787234043 0.49354548075389626 0.48623444053532305
0.18085106382978725 0.4929164631167562 0.4851498006342982
0.18106382978723404 0.4922630160080759 0.4831460674157304
0.18127659574468086 0.49668439578450596 0.4831460674157304
0.18148936170212765 0.501481509383401 0.4852169905468423
0.18170212765957447 0.5046409379579873 0.48654858312383376
0.18191489361702126 0.5064090236445 0.48270404599410216
0.18212765957446808 0.509118079939779 0.48558293005391606
0.1823404255319149 0.5088212762773695 0.488736124797374
0.1825531914893617 0.506897055447626 0.48405218246403087
0.1827659574468085 0.5046848501113839 0.48219098392232596
0.1829787234042553 0.49757753851241593 0.48490753557781907
0.18319148936170213 0.49486373277791534 0.48924064814054097
0.18340425531914895 0.48930096920856253 0.48412310698583294
0.18361702127659574 0.4825701799011287 0.48412310698583294
0.18382978723404256 0.4776763499236604 0.48412310698583294
0.18404255319148935 0.4717127154857438 0.48335742782928826
0.18425531914893617 0.4677463759118925 0.490341206329075
0.184468085106383 0.46487746374525635 0.4831460674157304
0.18468085106382978 0.452508900553926 0.4829566417359123
0.1848936170212766 0.44796133883389605 0.4824909396829482
0.1851063829787234 0.44490519405908463 0.484059072501759
0.1853191489361702 0.43755951118184144 0.48725984732829863
0.185531914893617 0.4330850582938023 0.49153879264194883
0.18574468085106383 0.43289372094140527 0.4952125892284245
0.18595744680851065 0.43062544411801307 0.49674478356789237
0.18617021276595744 0.42638120084206443 0.501854676509253
0.18638297872340426 0.42491623035232345 0.5038558636724905
0.18659574468085105 0.4271987630225819 0.4990347494346726
0.18680851063829787 0.42958666498299164 0.5001443516866257
0.1870212765957447 0.43637771931608327 0.5002118720762063
0.18723404255319148 0.4440962235600093 0.5017203988971405
0.1874468085106383 0.4533070331773675 0.5018979300858529
0.1876595744680851 0.4621999429276534 0.5017098192476794
0.18787234042553191 0.47099440039841106 0.5039780968987502
0.18808510638297873 0.4777017598469282 0.5075720566682951
0.18829787234042553 0.47788553081815394 0.5048673000339629
0.18851063829787235 0.4767510509718575 0.5011770402244222
0.18872340425531914 0.48008762426775964 0.5020779405836013
0.18893617021276596 0.48641160262310756 0.503201137632703
0.18914893617021278 0.4880312652662433 0.5063113018373375
0.18936170212765957 0.487151258322725 0.505715010154674
0.1895744680851064 0.4840812005271362 0.5085595728530719
0.18978723404255318 0.47960928481027204 0.5101317997036507
0.19 0.47391777490061815 0.5134311595002662
0.1902127659574468 0.4709662385377887 0.5065950170981925
0.19042553191489361 0.46556054817882153 0.50594405505977
0.19063829787234043 0.46070859656006946 0.5043267378535193
0.19085106382978723 0.4606101634855769 0.504041915452367
0.19106382978723405 0.4640241584428102 0.5058975852453821
0.19127659574468084 0.4669532808616276 0.5023559330570329
0.19148936170212766 0.47103964060025333 0.49525249423120726
0.19170212765957448 0.4768223250754213 0.495552387535916
0.19191489361702127 0.47903525047490614 0.49682462139716654
0.1921276595744681 0.4801452603130631 0.49870901214501234
0.19234042553191488 0.4836723514123356 0.5016160124600823
0.1925531914893617 0.48806747310651044 0.4997195322672071
0.19276595744680852 0.48998534440644836 0.5011079778501446
0.19297872340425531 0.4890198993283606 0.5036638983878847
0.19319148936170213 0.4894551071949048 0.5022400564592232
0.19340425531914893 0.49272410061133015 0.49877489377662876
0.19361702127659575 0.4961993812947516 0.4946360092785031
0.19382978723404254 0.49915547247971087 0.4926766991534495
0.19404255319148936 0.5093423326155354 0.48632225704999094
0.19425531914893618 0.5072913989577624 0.48942823891879245
0.19446808510638297 0.5147197177872309 0.4834855838552176
0.1946808510638298 0.528347542419882 0.4791734954404617
0.19489361702127658 0.5301136472656351 0.47951713533536705
0.1951063829787234 0.5352574169423788 0.4750562072622334
0.19531914893617022 0.5399332037287894 0.4704445530043966
0.19553191489361701 0.5399121366485143 0.4704445530043966
0.19574468085106383 0.5392466677492292 0.472651105142971
0.19595744680851063 0.533952125061065 0.4768358730103227
0.19617021276595745 0.534071993851711 0.4753297508549097
0.19638297872340427 0.5363202770349264 0.4753297508549097
0.19659574468085106 0.5381284958274885 0.4815560111354885
0.19680851063829788 0.5410832883563135 0.4811697070276482
0.19702127659574467 0.5397521203381846 0.48065555824826023
0.1972340425531915 0.536521223759438 0.48417761721868374
0.19744680851063828 0.5320916092934516 0.4904405794268816
0.1976595744680851 0.5183724702595238 0.49362589502548465
0.19787234042553192 0.5163654127992183 0.5009255304141242
0.19808510638297872 0.5010343361320743 0.5017098192476794
0.19829787234042554 0.4971986765176044 0.5052439224076521
0.19851063829787233 0.495847581827064 0.5062091794130955
0.19872340425531915 0.4958128287480188 0.5058264960023612
0.19893617021276597 0.49500702378104167 0.5106613258042243
0.19914893617021276 0.49406155718192457 0.5074352895735216
0.19936170212765958 0.4938935026868587 0.5023160758166386
0.19957446808510637 0.4938935026868587 0.5044848439620426
0.1997872340425532 0.49843222697391854 0.5060010624179869
0.2 0.49230095451216466 0.49390645968226554
0.2002127659574468 0.49632354723538197 0.48656989070333395
0.20042553191489362 0.5045922523706823 0.48381365565823375
0.20063829787234042 0.512457254518808 0.4808826925576829
0.20085106382978724 0.512457254518808 0.4745476512731162
0.20106382978723403 0.5197711098509168 0.4670388559526981
0.20127659574468085 0.5286755411976487 0.47213770813599976
0.20148936170212767 0.5230962116954553 0.4689243862421166
0.20170212765957446 0.5209728520224716 0.47714006630679123
0.20191489361702128 0.5190397419958126 0.48216902784562765
0.20212765957446807 0.5148284162007226 0.4823556801884254
0.2023404255319149 0.5122099989353891 0.483887834165987
0.2025531914893617 0.5121379313346283 0.486077186126038
0.2027659574468085 0.5135362517431277 0.4866063636934632
0.20297872340425532 0.5077646490960912 0.4876390416950901
0.20319148936170212 0.5008588428716 0.48757569608037643
0.20340425531914894 0.4913139761927149 0.4886789232140074
0.20361702127659576 0.4817671346831552 0.4875600708057078
0.20382978723404255 0.4758836045753805 0.4878928018361256
0.20404255319148937 0.4695554385758088 0.48995603602594345
0.20425531914893616 0.468569208075768 0.4881887336893963
0.20446808510638298 0.47155989069644655 0.48900830483634583
0.20468085106382977 0.4763381201070937 0.48934442792040717
0.2048936170212766 0.48179953913395485 0.49005105768890656
0.2051063829787234 0.4827093918478171 0.49108799424163607
0.2053191489361702 0.48501112399050195 0.4931652845700369
0.20553191489361702 0.4898575458749587 0.4891361033678357
0.20574468085106382 0.49013160684633444 0.4930159280475423
0.20595744680851064 0.4861330856340681 0.4890781792213834
0.20617021276595746 0.48682020781557694 0.49193942354665365
0.20638297872340425 0.48379648550466586 0.49346036143980154
0.20659574468085107 0.47881538633754767 0.498989961936258
0.20680851063829786 0.47673400177674036 0.49948082599828714
0.20702127659574468 0.4737046523404082 0.5004037990518734
0.2072340425531915 0.47142159257449934 0.5016089683778581
0.2074468085106383 0.4660522721011776 0.5007327796775769
0.2076595744680851 0.4644085794697841 0.5015360831336824
0.2078723404255319 0.46271019536389585 0.49983769902779435
0.20808510638297872 0.4656125511060657 0.49682462139716654
0.20829787234042554 0.4553165326045692 0.4965096701649741
0.20851063829787234 0.4522990369963512 0.49514994413006086
0.20872340425531916 0.45172485200476814 0.495847581827064
0.20893617021276595 0.4550336170380706 0.49475969367930367
0.20914893617021277 0.45744274658958667 0.4972772405199902
0.20936170212765956 0.45533357688764886 0.49717239273376235
0.20957446808510638 0.45481191988275516 0.5022849104154233
0.2097872340425532 0.4587194524645354 0.4978024430905567
0.21 0.45859916313983395 0.501216439770903
0.2102127659574468 0.45662885786194873 0.507863390433339
0.2104255319148936 0.4562685965670957 0.5036638983878847
0.21063829787234042 0.459811828114385 0.5033191001343311
0.21085106382978724 0.46407564316086974 0.5031572259649733
0.21106382978723404 0.46940119356834925 0.5030615386398137
0.21127659574468086 0.47239863214460187 0.4975452545165714
0.21148936170212765 0.4749866992347282 0.5010237160073164
0.21170212765957447 0.47962953155740773 0.49826999468568095
0.2119148936170213 0.49267464435854624 0.4987600990944326
0.21212765957446808 0.50137105558194 0.4932356010689377
0.2123404255319149 0.5090647786936294 0.495847581827064
0.2125531914893617 0.5173424523693209 0.4929109747170002
0.2127659574468085 0.5231021229810079 0.4910416899657702
0.2129787234042553 0.5283779078988099 0.49529222886644914
0.21319148936170212 0.5230213000313595 0.4921428435643033
0.21340425531914894 0.5180068297309627 0.4942061648953197
0.21361702127659574 0.5182799488918521 0.490183059644306
0.21382978723404256 0.5167269337444984 0.4930068433530762
0.21404255319148935 0.518043883846792 0.4934475652402914
0.21425531914893617 0.5065974127097178 0.49051914621251363
0.214468085106383 0.49975574010747437 0.4880312652662433
0.21468085106382978 0.49975574010747437 0.4886235739163524
0.2148936170212766 0.49903143051541743 0.49118123361251675
0.2151063829787234 0.5073579068211693 0.4893656616615143
0.2153191489361702 0.5045856389018328 0.48994387011433255
0.21553191489361703 0.500440240613002 0.48705422569614076
0.21574468085106382 0.49849982343409965 0.48761197990268496
0.21595744680851064 0.4973875855841418 0.48983645560260053
0.21617021276595744 0.49627481192352013 0.4909623839765511
0.21638297872340426 0.49790807387155034 0.49370970670253284
0.21659574468085105 0.497953352526942 0.49734658628825046
0.21680851063829787 0.5045368790988729 0.5035747050800724
0.2170212765957447 0.5126960777228361 0.5080497030763513
0.21723404255319148 0.5144113336590133 0.5109876868190979
0.2174468085106383 0.5162887648844181 0.5121545395240671
0.2176595744680851 0.5192965315095261 0.5173774787681706
0.2178723404255319 0.5161138754734583 0.5119541798672878
0.21808510638297873 0.5159454957239301 0.5131515824331484
0.21829787234042553 0.5082589922266105 0.5081063398803182
0.21851063829787234 0.4946099574018793 0.5038685997350335
0.21872340425531914 0.4853320416675149 0.4959049006315658
0.21893617021276596 0.471692304765497 0.4947671729036908
0.21914893617021278 0.46140910976169236 0.49083699485917115
0.21936170212765957 0.4485334379770886 0.49310890879212466
0.2195744680851064 0.43881996335823736 0.48412310698583294
0.21978723404255318 0.4329680006528716 0.4834135724911601
0.22 0.431362970200293 0.48482946578316405
0.2202127659574468 0.44379403856847266 0.48892509066922146
0.2204255319148936 0.4507703969852312 0.4899250819098063
0.22063829787234043 0.4639747291501091 0.48893441420905975
0.22085106382978723 0.47354223115118216 0.48871982006091863
0.22106382978723405 0.4764062441666796 0.4941843648347589
0.22127659574468084 0.48463557939907126 0.48917912897409205
0.22148936170212766 0.49207537619532343 0.4892903585454511
0.22170212765957448 0.49241411250814127 0.48459779594732055
0.22191489361702127 0.49244663245376086 0.4840149938811121
0.2221276595744681 0.49314897115252343 0.4821220204185941
0.22234042553191488 0.4964355419031166 0.4829515276687054
0.2225531914893617 0.49682462139716654 0.4753386971969035
0.22276595744680852 0.5006902377164446 0.4733756717147044
0.2229787234042553 0.5085627765780185 0.4733756717147044
0.22319148936170213 0.5114802149487054 0.4723667533692094
0.22340425531914893 0.512609303160384 0.47119727847884896
0.22361702127659575 0.5135621542106491 0.47239863214460187
0.22382978723404254 0.5137864783285256 0.4732847813510802
0.22404255319148936 0.5164152705756379 0.4733258139382848
0.22425531914893618 0.5173424523693209 0.4753133291383903
0.22446808510638297 0.5166922952200179 0.47273272994999377
0.2246808510638298 0.5199599115148585 0.47619575094942107
0.22489361702127658 0.5184358429061097 0.4712239502061636
0.2251063829787234 0.5228231450299624 0.47214426897128575
0.22531914893617022 0.5215892353832283 0.47435271128480694
0.225531914893617 0.5140500168116361 0.47652754046321144
0.22574468085106383 0.5079453704479062 0.48644759080427263
0.22595744680851063 0.4994605910433041 0.4797539066336488
0.22617021276595745 0.4978016609672691 0.4854089215278967
0.22638297872340427 0.4968233483218671 0.4909649301271499
0.22659574468085106 0.4954764168193277 0.4955146181709105
0.22680851063829788 0.4969030978468273 0.5004332586374296
0.22702127659574467 0.49881383237871646 0.4994070824890469
0.2272340425531915 0.49541196716238356 0.495847581827064
0.22744680851063828 0.49442059980448344 0.495847581827064
0.2276595744680851 0.49304058901668324 0.4992592365077661
0.22787234042553192 0.49352634882098995 0.5044573610250528
0.22808510638297871 0.4937124050975678 0.5059738403163392
0.22829787234042553 0.48714127323099127 0.5046989696478877
0.22851063829787233 0.4800605281189442 0.5007327796775769
0.22872340425531915 0.47636800163683213 0.5027933934837129
0.22893617021276597 0.4728836616455774 0.5088701223829974
0.22914893617021276 0.46925228588368034 0.5059160443082689
0.22936170212765958 0.46262823644357587 0.5076591227384242
0.22957446808510637 0.46262823644357587 0.5084263774527542
0.2297872340425532 0.45916443111967314 0.5085490962383976
0.23 0.4587200781631655 0.5066470964865202
0.2302127659574468 0.4532232916035332 0.5084272792847366
0.23042553191489362 0.4565883211438762 0.5107873844791934
0.23063829787234041 0.4551861146964487 0.5102017530003983
0.23085106382978723 0.4538348803126526 0.5107999654961513
0.23106382978723405 0.45602610525482 0.5103846024776216
0.23127659574468085 0.4581275545378841 0.5122177474222482
0.23148936170212767 0.4622677123758225 0.5152738330414778
0.23170212765957446 0.4717713169565365 0.5149053251930682
0.23191489361702128 0.4797537443073041 0.5151592809180061
0.23212765957446807 0.48456491896453757 0.5093477266113676
0.2323404255319149 0.49140638113335045 0.5085490962383976
0.2325531914893617 0.49570996394420724 0.5051914094894143
0.2327659574468085 0.5084460501655588 0.5162702933473671
0.23297872340425532 0.5062447648360011 0.5028122162793645
0.23319148936170211 0.5112788100746419 0.5039224432865644
0.23340425531914893 0.5184936161552576 0.5026950448555462
0.23361702127659575 0.5245764019603959 0.5023547510072216
0.23382978723404255 0.5225530836025973 0.49617005752257815
0.23404255319148937 0.522227650219834 0.49272477827800876
0.23425531914893616 0.5194682905743269 0.4929164631167562
0.23446808510638298 0.5192965315095261 0.4947074599557821
0.2346808510638298 0.5173424523693209 0.48699933730384565
0.2348936170212766 0.5173424523693209 0.48421151118165506
0.2351063829787234 0.5171669004975744 0.4861649620619113
0.2353191489361702 0.5151675449866497 0.48793753866600514
0.23553191489361702 0.5126528555259625 0.4877971233370598
0.23574468085106381 0.5080786429419973 0.48361652071213057
0.23595744680851063 0.5065950170981925 0.483252855318144
0.23617021276595745 0.5021001143270991 0.4851656296930232
0.23638297872340425 0.49459272758520245 0.4869543364249488
0.23659574468085107 0.49921443145639643 0.484964819393166
0.23680851063829786 0.48444923392049344 0.48184424214484617
0.23702127659574468 0.487379713163819 0.4840581249257107
0.2372340425531915 0.48920579050812607 0.4835341129000918
0.2374468085106383 0.4825591930121364 0.48604385903524683
0.2376595744680851 0.47592687474743806 0.4827208669102747
0.2378723404255319 0.4688920125202991 0.4825055446736724
0.23808510638297872 0.46432930870942063 0.48216902784562765
0.23829787234042554 0.4576551431259795 0.48471908479749876
0.23851063829787233 0.45327085208668666 0.4798574261515249
0.23872340425531915 0.45181716980542225 0.4813192510095757
0.23893617021276595 0.44856930220588664 0.4888591400078835
0.23914893617021277 0.45188080117244755 0.4863396902106255
0.23936170212765956 0.45271002112220815 0.48465668769490966
0.23957446808510638 0.4538348803126526 0.4885797861209833
0.2397872340425532 0.4597890866343975 0.48966988331653966
0.24 0.46032681895035493 0.4930539010640764
0.2402127659574468 0.46238650291457845 0.49299704095975533
0.2404255319148936 0.4608362857856837 0.49313263442650673
0.24063829787234042 0.464551001723707 0.4956897505451325
0.24085106382978724 0.46944554884709067 0.490325667321285
0.24106382978723404 0.4754867280533377 0.487653259676733
0.24127659574468086 0.4831351461620739 0.4854931466347078
0.24148936170212765 0.4930066593633258 0.4886940160138401
0.24170212765957447 0.505247225837653 0.4771676480283726
0.2419148936170213 0.5164401486282617 0.47628187848199777
0.24212765957446808 0.5260024966420724 0.4719694588614863
0.2423404255319149 0.5326216498032541 0.4657394672836745
0.2425531914893617 0.5350113444900992 0.47029845300573525
0.2427659574468085 0.533864575927661 0.46895710636589183
0.2429787234042553 0.537442131030756 0.47100344026377994
0.24319148936170212 0.5457623416252616 0.47399671338622124
0.24340425531914894 0.5485326534298459 0.47833593474797537
0.24361702127659574 0.5480986382533901 0.4773249511434394
0.24382978723404256 0.556281633199706 0.4780121047777015
0.24404255319148935 0.555424742368067 0.48020382208779516
0.24425531914893617 0.5500939880819167 0.47753844494471986
0.244468085106383 0.5361276599997532 0.4744001660987676
0.24468085106382978 0.5246277201030409 0.48130494863767537
0.2448936170212766 0.5024404559819359 0.48363557625154485
0.2451063829787234 0.4862468772908826 0.48840179781212517
0.2453191489361702 0.46839791184071633 0.48900830483634583
0.24553191489361703 0.4604051330146488 0.49150043255399506
0.24574468085106382 0.45969711773326827 0.49366604400862685
0.24595744680851064 0.46584184761023956 0.496526958348418
0.24617021276595744 0.4710155781411099 0.49861629476401603
0.24638297872340426 0.4715541405364201 0.4979342089291898
0.24659574468085105 0.4761651130204891 0.5026868588177822
0.24680851063829787 0.47587099126433696 0.5016043779989277
0.2470212765957447 0.47926263547464565 0.5003617449209965
0.24723404255319148 0.4805956664036664 0.5000645897478465
0.2474468085106383 0.4805333082312662 0.5016878582551079
0.2476595744680851 0.48041703327895086 0.5059887633776078
0.2478723404255319 0.47749761469504537 0.5056892390947333
0.24808510638297873 0.48264921527574106 0.5067150639557209
0.24829787234042552 0.4905632520535202 0.5085490962383976
0.24851063829787234 0.4948638066118433 0.5088736534875787
0.24872340425531914 0.4992156180962468 0.5095261358085001
0.24893617021276596 0.502447810143612 0.5089877218012726
0.24914893617021278 0.5086180643987039 0.510537659458756
0.24936170212765957 0.5127494885182935 0.5107314439021419
0.2495744680851064 0.5203819257521998 0.5105031753786029
0.24978723404255318 0.5213073121026747 0.5075531561839807
0.25 0.524793108775559 0.5061364825365525
0.2502127659574468 0.5292143651521803 0.5050694952775484
0.25042553191489364 0.5251991870200202 0.5089268106217776
0.25063829787234043 0.5098579383973249 0.5113474939131755
0.2508510638297872 0.4958783113057573 0.5186918700802485
0.251063829787234 0.47709539487850117 0.5207954336056175
0.25127659574468086 0.4647330897487359 0.5236804788111247
0.25148936170212766 0.4547943822498788 0.5300264291477783
0.25170212765957445 0.4490831092725143 0.5237814489289152
0.2519148936170213 0.45045957002904724 0.5212506106497312
0.2521276595744681 0.45028752563760516 0.5204539728823101
0.2523404255319149 0.4495639547341421 0.5177052196674211
0.2525531914893617 0.45289449188607034 0.5150382592767347
0.2527659574468085 0.4586272301155378 0.5120151587575706
0.2529787234042553 0.4615609402860238 0.5105483036723276
0.2531914893617021 0.4692102305261659 0.5064150779326989
0.25340425531914895 0.47762402377845264 0.5028846268200666
0.25361702127659574 0.48567698998676867 0.49682462139716654
0.25382978723404254 0.49525367896886885 0.4977715515177995
0.2540425531914894 0.4982297120071848 0.4954847693562501
0.2542553191489362 0.5000726093809765 0.4929164631167562
0.25446808510638297 0.5007262573777665 0.4919329012468433
0.25468085106382976 0.5002246020122614 0.49049352207176405
0.2548936170212766 0.5013268417244892 0.49057940645336073
0.2551063829787234 0.5067773635930536 0.4873427094441409
0.2553191489361702 0.5025662803749275 0.4852224981455423
0.25553191489361704 0.4978016609672691 0.48219186838328804
0.25574468085106383 0.4975178764877732 0.48552582327517935
0.2559574468085106 0.495847581827064 0.48720460317088604
0.2561702127659574 0.4938187172117375 0.4891578757865886
0.25638297872340426 0.48988371064398345 0.49325253225811
0.25659574468085106 0.49290295093049186 0.4886938851348654
0.25680851063829785 0.49267015241943124 0.48412037257943386
0.2570212765957447 0.4969143701011746 0.4856335406929908
0.2572340425531915 0.5005295958867233 0.4878958094056742
0.2574468085106383 0.5055264657726662 0.49102339181350013
0.25765957446808513 0.501986396845827 0.49259807131132205
0.2578723404255319 0.4911020367824685 0.4886593053393821
0.2580851063829787 0.4832292252226699 0.4928719235289581
0.2582978723404255 0.4764526708463389 0.48649276570042593
0.25851063829787235 0.46950823698176686 0.489964982632712
0.25872340425531914 0.46635492272410356 0.4868727536962579
0.25893617021276594 0.46296988424696056 0.4828427426843866
0.2591489361702128 0.46002348481502475 0.4792399708104868
0.2593617021276596 0.4632087840893617 0.4866969656064264
0.25957446808510637 0.4755730418075365 0.4791936744166606
0.2597872340425532 0.486498366642609 0.4771153577884864
0.26 0.491606882234483 0.47494305190015057
0.2602127659574468 0.4980729998851626 0.47239863214460187
0.2604255319148936 0.5093888579828368 0.4728185130168215
0.26063829787234044 0.5147214341909809 0.4750506603761388
0.26085106382978723 0.5237511302431254 0.4669239339292085
0.261063829787234 0.5373807979256647 0.4718160221502366
0.2612765957446809 0.5325572626139885 0.4779809079646814
0.26148936170212767 0.5285365883625095 0.4766977323964172
0.26170212765957446 0.5267437890986089 0.4748519076016565
0.26191489361702125 0.5228268629543834 0.47985745430856214
0.2621276595744681 0.5161002541742643 0.4878497015710028
0.2623404255319149 0.5121982001100739 0.49211168728077825
0.2625531914893617 0.5070763558249329 0.4902491984498179
0.26276595744680853 0.4997667938059025 0.48928666944934457
0.2629787234042553 0.4906771507440412 0.490504199159643
0.2631914893617021 0.4963037220426773 0.49184525451417016
0.26340425531914896 0.4997484211479914 0.48868181176192466
0.26361702127659575 0.494226366199263 0.4903613098530729
0.26382978723404255 0.4985321792894459 0.49349742836977983
0.26404255319148934 0.5009400604753136 0.4907748913183412
0.2642553191489362 0.5068825208682971 0.49782480324335354
0.264468085106383 0.512053273554322 0.49736326268314796
0.26468085106382977 0.512457254518808 0.49488476478144294
0.2648936170212766 0.5174575430252938 0.49035314210329484
0.2651063829787234 0.5051355136721043 0.4948947659732244
0.2653191489361702 0.5022226700018094 0.4996396929034811
0.265531914893617 0.49139618394135764 0.49730532406503997
0.26574468085106384 0.4855170382983869 0.4987102916230589
0.26595744680851063 0.4863795735430281 0.5027643621837344
0.2661702127659574 0.47825802658750277 0.502784278477021
0.2663829787234043 0.4785842018428195 0.5044146053636657
0.26659574468085107 0.4890244463068343 0.49794354397306784
0.26680851063829786 0.4973409058515178 0.4976807611620135
0.2670212765957447 0.5077361434062663 0.49405609325328514
0.2672340425531915 0.5172028136361821 0.49022466344013366
0.2674468085106383 0.5222626496875744 0.4920094224821346
0.2676595744680851 0.5192453068864296 0.49072599636405306
0.26787234042553193 0.5146359182364857 0.49182713125791744
0.2680851063829787 0.5035141399199087 0.4885554199041596
0.2682978723404255 0.49991522456978427 0.4948705422569615
0.26851063829787236 0.4892842091200588 0.49520074716575213
0.26872340425531915 0.47848064431225473 0.4972307256520789
0.26893617021276595 0.46492993469478383 0.4976008534636189
0.26914893617021274 0.4544222955653998 0.4982572155964219
0.2693617021276596 0.44612390938904484 0.49877870053737183
0.2695744680851064 0.4392194941057505 0.4968380238453788
0.26978723404255317 0.4371002294100553 0.49339358984344517
0.27 0.436503604421043 0.49100708988739605
0.2702127659574468 0.4379945918091971 0.4935088105927145
0.2704255319148936 0.44060779309453596 0.49148795678333396
0.27063829787234045 0.44379398051921887 0.4955972612324394
0.27085106382978724 0.4477988444989728 0.49975574010747437
0.27106382978723403 0.44894968246213973 0.5022192466954932
0.2712765957446808 0.4594021470120105 0.5055375309677468
0.2714893617021277 0.4597739540713044 0.5077641475133854
0.27170212765957447 0.4626612260837195 0.5109422107034388
0.27191489361702126 0.4687130620809816 0.5045636192280543
0.2721276595744681 0.4744422468243535 0.5065950170981925
0.2723404255319149 0.48276396982423064 0.503780579436309
0.2725531914893617 0.49509446420989905 0.4982416353692714
0.2727659574468085 0.5037374714166538 0.5001304686500213
0.27297872340425533 0.5094426583392705 0.5026534678300904
0.2731914893617021 0.5189563795817722 0.49975574010747437
0.2734042553191489 0.5185209343462021 0.49933806529186286
0.27361702127659576 0.5300439667806547 0.49881163253291305
0.27382978723404255 0.5323271037336522 0.5011894070681764
0.27404255319148935 0.537257443782549 0.49996360988414346
0.2742553191489362 0.5388373229115779 0.499492995726115
0.274468085106383 0.5379969777561937 0.49723470464132136
0.2746808510638298 0.5286147184527086 0.49934613909410297
0.27489361702127657 0.5252163513525828 0.5026004851841203
0.2751063829787234 0.5197747305478727 0.4979220705670297
0.2753191489361702 0.5155915213361865 0.5047279831693061
0.275531914893617 0.5155435344310242 0.495537259423247
0.27574468085106385 0.5113449571053194 0.5021435538030071
0.27595744680851064 0.5047256083698589 0.5057026479399614
0.27617021276595743 0.5010553211268044 0.5036450679430449
0.2763829787234042 0.5002001095300446 0.5064397743800689
0.2765957446808511 0.4992234314858727 0.5051148614641884
0.27680851063829787 0.4961724626576046 0.5084681756655726
0.27702127659574466 0.49485543861433146 0.5105031753786029
0.2772340425531915 0.4987899168496816 0.5127099266455659
0.2774468085106383 0.49975574010747437 0.5082772170511178
0.2776595744680851 0.4938935026868587 0.5075720566682951
0.27787234042553194 0.49375512478162137 0.5074336787630578
0.27808510638297873 0.4923813559087139 0.5060599098901503
0.2782978723404255 0.49016795279991043 0.5058325847229482
0.2785106382978723 0.4855489061138013 0.507139631827977
0.27872340425531916 0.4816373659419848 0.5074857724311119
0.27893617021276595 0.48043554839553443 0.5045043108548465
0.27914893617021275 0.48063848755739597 0.5003092408256036
0.2793617021276596 0.48201513738186047 0.4956399945757973
0.2795744680851064 0.4831197757909691 0.481560071022183
0.2797872340425532 0.48695314030071823 0.48499906116051295
0.27999999999999997 0.4895798968196831 0.4759257291027874
0.2802127659574468 0.49552356815072646 0.47174560625083684
0.2804255319148936 0.49942925566517127 0.47174614601135706
0.2806382978723404 0.504045357409231 0.47177846178684923
0.28085106382978725 0.5073767182163045 0.47005387610041555
0.28106382978723404 0.5071077340080756 0.46879522656879674
0.28127659574468084 0.5049024069165753 0.4742838750205577
0.2814893617021277 0.5036744594778682 0.46752399538407236
0.2817021276595745 0.5119165004481327 0.4756308478366682
0.28191489361702127 0.5066691434517354 0.47088446320688154
0.28212765957446806 0.4985103101344899 0.47186714526918627
0.2823404255319149 0.4958421133601233 0.4699710715034321
0.2825531914893617 0.49493775606479185 0.46229119166179933
0.2827659574468085 0.49361853392285315 0.4620782989155647
0.28297872340425534 0.4947282613060531 0.46095871920518755
0.28319148936170213 0.49390267341085287 0.46551350153391285
0.2834042553191489 0.4913099237273811 0.4657154152584718
0.2836170212765957 0.4878354727125585 0.47389650305898295
0.28382978723404256 0.49194210014240497 0.4725902928245705
0.28404255319148936 0.4917328960336369 0.46901341490141224
0.28425531914893615 0.4864135936482106 0.4701161912313278
0.284468085106383 0.4858781496618459 0.4704445530043966
0.2846808510638298 0.47516657634460363 0.4740814229315414
0.2848936170212766 0.4753044307302042 0.47244927239401285
0.2851063829787234 0.4664331463416117 0.4781576211828428
0.2853191489361702 0.46508896736907135 0.47798941167233333
0.285531914893617 0.4628711149123261 0.48315159311083256
0.2857446808510638 0.4656481697699689 0.4870320220421193
0.28595744680851065 0.46946751343429405 0.48041496772559766
0.28617021276595744 0.46642757779403315 0.47804381390517997
0.28638297872340424 0.47090688167728173 0.48360839608861533
0.2865957446808511 0.48068016476254627 0.4859748214234422
0.2868085106382979 0.4847526497761985 0.4834258642114484
0.28702127659574467 0.4927956235987411 0.487295904732171
0.28723404255319146 0.49304728572796624 0.4914456016352335
0.2874468085106383 0.4940090634616545 0.4977848495526159
0.2876595744680851 0.48602559320235894 0.4960023605981016
0.2878723404255319 0.4817012104196892 0.5037280663861325
0.28808510638297874 0.4782608695652173 0.5047438035982502
0.28829787234042553 0.47944492145789724 0.5044629366568019
0.2885106382978723 0.47876701832624957 0.5099617686656087
0.28872340425531917 0.4756969075119122 0.5123348689664738
0.28893617021276596 0.4812132711656302 0.5134839541658223
0.28914893617021276 0.48495635005001775 0.5206901926117211
0.28936170212765955 0.4928983077119547 0.522145430406116
0.2895744680851064 0.5034811139224336 0.5181186739760162
0.2897872340425532 0.5065301836576495 0.5106351112406678
0.29 0.5061662648420447 0.5083594140978642
0.2902127659574468 0.5065950170981925 0.5099207538617146
0.2904255319148936 0.5072241503493059 0.5139300685662942
0.2906382978723404 0.5008809186595996 0.5143580713966097
0.2908510638297872 0.5008005167520814 0.5141840080351137
0.29106382978723405 0.5001551781647297 0.5097474104101637
0.29127659574468084 0.4939993476897798 0.5110161215602668
0.29148936170212764 0.49212110075221666 0.5059126783969282
0.2917021276595745 0.4873208267242232 0.5038711718209156
0.2919148936170213 0.4854094701417298 0.5003253184663434
0.29212765957446807 0.483448863738785 0.49960434194594705
0.2923404255319149 0.48049937036079154 0.50132645217592
0.2925531914893617 0.4751311630758224 0.5059277727058935
0.2927659574468085 0.47653834407857243 0.507323561362781
0.2929787234042553 0.4744167019855632 0.5104391846778467
0.29319148936170214 0.472648061726632 0.5151182648890676
0.29340425531914893 0.47088515946056253 0.5163654127992183
0.2936170212765957 0.48172123450446447 0.5163654127992183
0.29382978723404257 0.48444307110756496 0.5130800355573655
0.29404255319148936 0.4830347215231243 0.5103918294859968
0.29425531914893616 0.4867252527985436 0.5122598707802497
0.29446808510638295 0.49447355509587904 0.5099580913379186
0.2946808510638298 0.499619973354624 0.49989150686032474
0.2948936170212766 0.5026760433850043 0.49683543682994447
0.2951063829787234 0.5061409173221603 0.49423407751888293
0.29531914893617023 0.507452077270011 0.5016070442332256
0.295531914893617 0.5103275520346745 0.4971758680850234
0.2957446808510638 0.5037226365161829 0.4938151851824611
0.29595744680851066 0.5059460799160966 0.4907424377855603
0.29617021276595745 0.500924238845703 0.49510148888403127
0.29638297872340424 0.502165905136659 0.4882593082107331
0.29659574468085104 0.5027278444816938 0.4883842688988853
0.2968085106382979 0.5021193164717118 0.48670759149760695
0.2970212765957447 0.5079359914385287 0.4864066914740922
0.29723404255319147 0.5123560132115268 0.4845878411591571
0.2974468085106383 0.5095261358085001 0.48168300241315976
0.2976595744680851 0.5141605158705418 0.4779980857897903
0.2978723404255319 0.5220303998269737 0.4737662243314826
0.29808510638297875 0.5240100404869761 0.47265209687419235
0.29829787234042554 0.5191700601789726 0.47200496585746554
0.29851063829787233 0.5155604188710684 0.4733756717147044
0.2987234042553191 0.5130913981497266 0.4740614635930722
0.298936170212766 0.5133318273513835 0.47795346935263605
0.29914893617021276 0.5090935924686393 0.4817237623945625
0.29936170212765956 0.5004935146352028 0.48394649498396386
0.2995744680851064 0.4938891881403143 0.4896646981873829
0.2997872340425532 0.4970485540696217 0.4904796719686627
0.3 0.4915360207287978 0.49079008660740114
0.3002127659574468 0.48998534440644836 0.4883631306278846
0.30042553191489363 0.48998534440644836 0.49093464839568773
0.3006382978723404 0.4884801607325829 0.4926920153835864
0.3008510638297872 0.4880312652662433 0.4852249705976285
0.30106382978723406 0.49394667353725963 0.48412310698583294
0.30127659574468085 0.49877647915185336 0.4825607322278761
0.30148936170212765 0.49746205897152423 0.48293358822427784
0.3017021276595745 0.49682462139716654 0.479543938650716
0.3019148936170213 0.4975444107094412 0.4725025550670197
0.3021276595744681 0.49843177555066376 0.46981443842100207
0.30234042553191487 0.4974206410588384 0.4676567674629161
0.3025531914893617 0.4952646053209555 0.46789126117831753
0.3027659574468085 0.4973135720574637 0.4728870903760466
0.3029787234042553 0.5059713403135577 0.47187894010442427
0.30319148936170215 0.5001722249752388 0.4722545623100281
0.30340425531914894 0.5008696766245863 0.470861497492437
0.30361702127659573 0.501991661709704 0.4751418558802266
0.3038297872340425 0.49630192528453576 0.4797606052479507
0.3040425531914894 0.4929057550207592 0.48266290167867754
0.30425531914893617 0.4899940069796655 0.4831460674157304
0.30446808510638296 0.49006536375099163 0.4841631166581045
0.3046808510638298 0.4847188746014832 0.48676642708174406
0.3048936170212766 0.4797574782321626 0.4890704034599284
0.3051063829787234 0.4806828798925167 0.48998534440644836
0.30531914893617024 0.4807004574891659 0.49244299833824473
0.30553191489361703 0.47909404809385725 0.4898264895049177
0.3057446808510638 0.4788457982942257 0.4895867585000879
0.3059574468085106 0.47923790913532005 0.4945397958418678
0.30617021276595746 0.4776867722936055 0.49429644498534947
0.30638297872340425 0.4790932798375473 0.5011313020565884
0.30659574468085105 0.47496920227964445 0.49588764277987124
0.3068085106382979 0.46639941583604755 0.49682462139716654
0.3070212765957447 0.4655593551538837 0.49682462139716654
0.3072340425531915 0.4638877589744519 0.4966156718747376
0.30744680851063827 0.4587671723978999 0.4975544715017921
0.3076595744680851 0.4606741573033708 0.4969442334299604
0.3078723404255319 0.4612798249696184 0.4910994601180133
0.3080851063829787 0.46239058214611695 0.4959004265875977
0.30829787234042555 0.4574005859307549 0.49170273536897796
0.30851063829787234 0.4497564769184467 0.4920245461035514
0.30872340425531913 0.4435696333363558 0.495612819169868
0.308936170212766 0.43750785709457746 0.5020570142958964
0.3091489361702128 0.4262392413946225 0.5068564638028221
0.30936170212765957 0.42669744449754377 0.5043417600285207
0.30957446808510636 0.4333994697703327 0.5048610720009582
0.3097872340425532 0.4443668536552471 0.5034824769617124
0.31 0.45461818094567386 0.4982134470182284
0.3102127659574468 0.46344105402819386 0.49896137718534067
0.31042553191489364 0.47746468455141394 0.4976547996255572
0.31063829787234043 0.4844695452926627 0.5006588171422248
0.3108510638297872 0.49738743301082056 0.5043428092022977
0.311063829787234 0.5036894456703868 0.4990086260798904
0.31127659574468086 0.5044954305070145 0.5078630715702405
0.31148936170212765 0.5056919261259519 0.5097796392757585
0.31170212765957445 0.5111051614649413 0.5116283358298953
0.3119148936170213 0.5134888370850936 0.5169175660798165
0.3121276595744681 0.5132543102316737 0.5165402479985752
0.3123404255319149 0.5137273395002855 0.5129132506246266
0.3125531914893617 0.5152795683884538 0.512457254518808
0.3127659574468085 0.5133938397337724 0.5103211307804812
0.3129787234042553 0.511621901556824 0.501001386207087
0.3131914893617021 0.5140929657103187 0.4958023019024723
0.31340425531914895 0.5218104369463238 0.4917686606725764
0.31361702127659574 0.5305276661328094 0.4906702361920996
0.31382978723404253 0.5364712355431945 0.49124489964751317
0.3140425531914894 0.5408462715517564 0.48982073590652886
0.3142553191489362 0.5374561042139974 0.4858221292938869
0.31446808510638297 0.5349291646311676 0.4844834276507358
0.31468085106382976 0.5322384024006988 0.48412310698583294
0.3148936170212766 0.5238571760610071 0.48412310698583294
0.3151063829787234 0.5185407249440246 0.4878100322616423
0.3153191489361702 0.5139424616011157 0.4830121039706168
0.31553191489361704 0.5070297011836987 0.4799264921448002
0.31574468085106383 0.5043296718719892 0.4755977756287993
0.3159574468085106 0.5014743192890087 0.4782608695652173
0.31617021276595747 0.49877870053737183 0.47939653836864743
0.31638297872340426 0.49390690378729113 0.48091091966971977
0.31659574468085105 0.4895845673656744 0.48433179651683067
0.31680851063829785 0.4872854264551076 0.49199166008088874
0.3170212765957447 0.486099052889518 0.49387163592337874
0.3172340425531915 0.48547768865389224 0.49691900692165575
0.3174468085106383 0.48900830483634583 0.5014125598688589
0.3176595744680851 0.4897209728868875 0.5077329496845778
0.3178723404255319 0.4979847157826191 0.5001424382359585
0.3180851063829787 0.503878130727171 0.5003670630832237
0.3182978723404255 0.5076379410782238 0.49382761827693
0.31851063829787235 0.5118436376652087 0.48730441983323664
0.31872340425531914 0.5159507192730488 0.486077186126038
0.31893617021276593 0.5154457085128308 0.4831460674157304
0.3191489361702128 0.5188101316024106 0.4831460674157304
0.3193617021276596 0.5252544070304809 0.484321269375415
0.31957446808510637 0.5194074055361675 0.48283502096973063
0.3197872340425532 0.5121969737944758 0.47894459989351784
0.32 0.5105031753786029 0.4760917339723702
0.3202127659574468 0.5047648732737579 0.47681198361545485
0.3204255319148936 0.4989146620764675 0.475384135470548
0.32063829787234044 0.4941817588603315 0.476995573821642
0.32085106382978723 0.496666667990092 0.4725649624452922
0.321063829787234 0.49150769208896766 0.46958109008902466
0.32127659574468087 0.4938935026868587 0.4751443654163075
0.32148936170212766 0.49163865275159996 0.47973898689871086
0.32170212765957445 0.4873591804407253 0.48269801086538494
0.32191489361702125 0.49046269486717664 0.4865992138840587
0.3221276595744681 0.486843490701668 0.4880312652662433
0.3223404255319149 0.4884315718243392 0.4896969779004452
0.3225531914893617 0.4934977787121723 0.48690575239955713
0.3227659574468085 0.4921549406800661 0.48560782818039566
0.3229787234042553 0.49296426505381047 0.48705422569614076
0.3231914893617021 0.4938935026868587 0.48705422569614076
0.32340425531914896 0.4922658824061399 0.4927508966786568
0.32361702127659575 0.48758876870890766 0.49128310978421125
0.32382978723404254 0.4851129868852261 0.48999176457109367
0.32404255319148934 0.48365276302443255 0.4945519842328193
0.3242553191489362 0.47957044175493935 0.49956891550890936
0.324468085106383 0.4811919882755251 0.49314700330240807
0.32468085106382977 0.4825194309313884 0.4916261053044827
0.3248936170212766 0.4895084763362015 0.4929164631167562
0.3251063829787234 0.4924422591167826 0.49145703909806415
0.3253191489361702 0.48844049634775133 0.4933921953380155
0.325531914893617 0.4899180730093528 0.49820609150595085
0.32574468085106384 0.4870188629501825 0.49854586385692307
0.32595744680851063 0.47435271128480694 0.4932504360693333
0.3261702127659574 0.4743779375225138 0.4959232605401846
0.32638297872340427 0.4752480118130159 0.49853348341169046
0.32659574468085106 0.47823876994164616 0.49528787763328797
0.32680851063829786 0.47449775149933054 0.492281218982746
0.3270212765957447 0.46355935199487575 0.4904037146457712
0.3272340425531915 0.46561502843355945 0.4880312652662433
0.3274468085106383 0.4534340555359755 0.4883757313529382
0.3276595744680851 0.4468590170390723 0.49066827582075906
0.3278723404255319 0.4448819451335752 0.49584478678689575
0.3280851063829787 0.43917928676111373 0.5015057341917124
0.3282978723404255 0.43893915910406384 0.5057980732708772
0.32851063829787236 0.4358532723713233 0.5081124883204327
0.32872340425531915 0.4346608362377304 0.5097696807243437
0.32893617021276594 0.43391821594831287 0.5105031753786029
0.32914893617021274 0.43356197864130946 0.5098908521265749
0.3293617021276596 0.4349194608932683 0.5064971464966777
0.3295744680851064 0.43585469396211957 0.5062015430095059
0.32978723404255317 0.43756384237320717 0.5065950170981925
0.33 0.4416521891290003 0.5051819300308288
0.3302127659574468 0.4499012403424681 0.5024825074182749
0.3304255319148936 0.46206482361259493 0.5018423188251103
0.33063829787234045 0.47814698289100493 0.49880310482470297
0.33085106382978724 0.49309426060826345 0.495847581827064
0.33106382978723403 0.4991912438316745 0.49558974226812486
0.3312765957446808 0.5090803995752103 0.4902522746974032
0.33148936170212767 0.5190454955923158 0.4867472068243125
0.33170212765957446 0.5167999162146862 0.48564268271057015
0.33191489361702126 0.5198311096892501 0.4851001465559355
0.3321276595744681 0.5205325635152703 0.48566517545745663
0.3323404255319149 0.5172058069764315 0.486077186126038
0.3325531914893617 0.5155347496268162 0.48524652295363585
0.3327659574468085 0.5115371827993536 0.48221175373361375
0.33297872340425533 0.5066021628469001 0.48401375306152067
0.3331914893617021 0.5113575717871227 0.48455549597198755
0.3334042553191489 0.5013432900733736 0.4919405382307922
0.33361702127659576 0.49973816069735916 0.49682462139716654
0.33382978723404255 0.4962562220801271 0.5006083390830338
0.33404255319148934 0.4910415722950938 0.5042184468025291
0.3342553191489362 0.4962650979877892 0.5010525073400782
0.334468085106383 0.5074459492219807 0.5055606559615833
0.3346808510638298 0.5093278719634026 0.5082153352133955
0.33489361702127657 0.5178118079524642 0.5053756340557549
0.3351063829787234 0.5270337741561111 0.5035159348224056
0.3353191489361702 0.5324876810660479 0.5031760478189155
0.335531914893617 0.53551809852915 0.5011073345700929
0.33574468085106385 0.5351936160335334 0.4973535242018984
0.33595744680851064 0.5324048211661492 0.4985075170405122
0.33617021276595743 0.5319980459208598 0.4919574488571132
0.3363829787234042 0.5256770997231406 0.49597716452531376
0.33659574468085107 0.5298572075022013 0.4970880481610496
0.33680851063829786 0.5347545802596958 0.496620289107768
0.33702127659574466 0.5425184271175915 0.49329292616867
0.3372340425531915 0.5423898452936936 0.4925967744683741
0.3374468085106383 0.5392336041180366 0.4936953620836294
0.3376595744680851 0.5351969124728602 0.49025309224814095
0.33787234042553194 0.5372918165222181 0.4963193175578268
0.33808510638297873 0.5278755336231983 0.48866790666853055
0.3382978723404255 0.5208690332029137 0.48705422569614076
0.3385106382978723 0.5154189328516677 0.48673363910986517
0.33872340425531916 0.5090582793651455 0.4864808420566314
0.33893617021276595 0.507034212792512 0.4851659120102445
0.33914893617021274 0.5022980624891482 0.4831460674157304
0.3393617021276596 0.5031805037627967 0.4804566460179666
0.3395744680851064 0.5024036223925709 0.4768271427836808
0.3397872340425532 0.5022959458289161 0.47747904358748533
0.34 0.5003691374947029 0.47547960397752226
0.3402127659574468 0.4972325009931552 0.4769519119375133
0.3404255319148936 0.49264143660148396 0.47603176390973984
0.3406382978723404 0.4926182989128081 0.4776645411573211
0.34085106382978725 0.4900288144975309 0.4801859686447009
0.34106382978723404 0.48388860425789076 0.4811919882755251
0.34127659574468083 0.48317334843897414 0.4816941485721984
0.3414893617021277 0.486077186126038 0.48353016564864354
0.3417021276595745 0.4855613097988369 0.48412310698583294
0.34191489361702126 0.4818577863589462 0.48217769086763934
0.34212765957446806 0.4779678441045141 0.4856861974773421
0.3423404255319149 0.4685396739046632 0.4838745325723402
0.3425531914893617 0.46729965502678467 0.48238280711293197
0.3427659574468085 0.4642707234430719 0.48379038327113627
0.34297872340425534 0.4636052760136786 0.48784292718192235
0.34319148936170213 0.45770631687038843 0.484465040748534
0.3434042553191489 0.46692645475943184 0.4884225849560147
0.34361702127659577 0.4642647393444361 0.49062049688513865
0.34382978723404256 0.4662647717084759 0.49016642641678876
0.34404255319148935 0.46773830937482946 0.49206607473832736
0.34425531914893615 0.46582609265315594 0.4977117505402827
0.344468085106383 0.4672538419229601 0.49284799684560476
0.3446808510638298 0.46652358833797253 0.49193088595597784
0.3448936170212766 0.46278309538457885 0.4897112841967485
0.3451063829787234 0.4574760738868717 0.4896330535033909
0.3453191489361702 0.45636754915990124 0.4934950528237995
0.345531914893617 0.4526014612085911 0.490791464287245
0.3457446808510638 0.44926581709121105 0.4870255900132521
0.34595744680851065 0.4560113770216718 0.486077186126038
0.34617021276595744 0.45499523685451626 0.4906568556902826
0.34638297872340423 0.45744981528016526 0.48638801169749474
0.3465957446808511 0.46731670554032206 0.4913558414840849
0.3468085106382979 0.4663629155757628 0.49346431151867304
0.34702127659574467 0.4707931495798161 0.48935690141176535
0.3472340425531915 0.4761382397982782 0.49332070758844054
0.3474468085106383 0.48567289797987945 0.4931155452993543
0.3476595744680851 0.49069992212782493 0.49408315671078307
0.3478723404255319 0.4943523997417707 0.49232803043304674
0.34808510638297874 0.4987777187249354 0.4929158085751319
0.34829787234042553 0.49604286539589343 0.49109257302243736
0.3485106382978723 0.4966807565117444 0.4932041928876005
0.34872340425531917 0.4942565552271671 0.4980525954567551
0.34893617021276596 0.4933556641198139 0.4961165011105865
0.34914893617021275 0.48934126756528895 0.49790536567134136
0.34936170212765955 0.48983111349954195 0.49625898615866204
0.3495744680851064 0.48900830483634583 0.4986343138001917
0.3497872340425532 0.499826156966723 0.5022521675221768
0.35 0.5017098192476794 0.4959376975544862
0.3502127659574468 0.5002500784787381 0.5004797919057326
0.3504255319148936 0.4973228524968818 0.5078600174768084
0.3506382978723404 0.4998922071757121 0.5129266581412262
0.35085106382978726 0.5017098192476794 0.5105031753786029
0.35106382978723405 0.501070749926479 0.5130594526634047
0.35127659574468084 0.5022812041890186 0.5159597581704547
0.35148936170212763 0.5060048347883747 0.5130474368286259
0.3517021276595745 0.5122730886848219 0.5152962903121228
0.3519148936170213 0.5154891243816643 0.5123565033662595
0.35212765957446807 0.5190787859077273 0.5121585582258327
0.3523404255319149 0.5266538479428591 0.5122572741126277
0.3525531914893617 0.5217224308113398 0.507073517109178
0.3527659574468085 0.5186702296623454 0.5043653738337285
0.3529787234042553 0.5126197720598357 0.5029514334029362
0.35319148936170214 0.5072099364939389 0.49939361993311815
0.35340425531914893 0.5046867713791653 0.5006869462563989
0.3536170212765957 0.5043013277541739 0.49671141799589547
0.35382978723404257 0.5014627888621958 0.4946124298996458
0.35404255319148936 0.5014876004190493 0.4909623839765511
0.35425531914893615 0.5031937276117582 0.49349672794643135
0.354468085106383 0.5018596971461317 0.49284057975747564
0.3546808510638298 0.5013918493570345 0.4883261052587207
0.3548936170212766 0.5002234885440866 0.4885405563997336
0.3551063829787234 0.5005833440261896 0.4914911165924919
0.3553191489361702 0.4969182015543175 0.49193942354665365
0.355531914893617 0.4932332600795556 0.4945537452941621
0.3557446808510638 0.49560887036164425 0.4928942694083328
0.35595744680851066 0.4941367758557718 0.49474693222527955
0.35617021276595745 0.4929164631167562 0.4919405910441847
0.35638297872340424 0.49951036451007685 0.4882149250626674
0.35659574468085103 0.5058880719715555 0.48732432013960625
0.3568085106382979 0.5037566711748196 0.4880312652662433
0.3570212765957447 0.50661372692404 0.48488977078123696
0.35723404255319147 0.5093119511927164 0.4867329487724651
0.3574468085106383 0.5104966849669756 0.4783192832698629
0.3576595744680851 0.5139879217193297 0.476518496394854
0.3578723404255319 0.511718064376065 0.47720454685266156
0.35808510638297875 0.5095663414289705 0.48111157703458446
0.35829787234042554 0.5029616474168261 0.47239863214460187
0.35851063829787233 0.5069097513758599 0.47197898644104536
0.3587234042553191 0.5076371546961624 0.4703794549765292
0.35893617021276597 0.49803370542283837 0.47905472642757635
0.35914893617021276 0.500054959129402 0.4745639956996916
0.35936170212765955 0.5024561587311279 0.47191553628189914
0.3595744680851064 0.4997498242760162 0.4711728958083799
0.3597872340425532 0.5034828874985751 0.47390635750189974
0.36 0.5058962159922453 0.47338208160582146
0.3602127659574468 0.5074951372110922 0.47029071408999096
0.3604255319148936 0.5091963876997304 0.47666094804619513
0.3606382978723404 0.5101781499928858 0.4783411442051708
0.3608510638297872 0.5119638808108029 0.4758328324088224
0.36106382978723406 0.5102468083738309 0.47605042342024034
0.36127659574468085 0.507299645903192 0.47829840406198737
0.36148936170212764 0.49964686974477823 0.4827119828120272
0.3617021276595745 0.49269143667308274 0.4812144909198925
0.3619148936170213 0.48205333868344413 0.48263734015946463
0.3621276595744681 0.47398822252279216 0.4862594305070455
0.36234042553191487 0.46815422393839135 0.4896808046879462
0.3625531914893617 0.46456916153650857 0.4891958203220029
0.3627659574468085 0.460194220344214 0.4883683888908035
0.3629787234042553 0.4614499744493888 0.489144685379249
0.36319148936170215 0.45367684628793314 0.48875286232396464
0.36340425531914894 0.45969727659538157 0.4939823966760107
0.36361702127659573 0.4505217062274931 0.4948705422569615
0.3638297872340425 0.4431553511964428 0.4960513002918201
0.36404255319148937 0.44406986410983285 0.49875180304634187
0.36425531914893616 0.4453269349289343 0.4937507973132563
0.36446808510638296 0.4496318597057413 0.49193942354665365
0.3646808510638298 0.4554186776978727 0.49174144887350113
0.3648936170212766 0.4614336964495074 0.491397384824483
0.3651063829787234 0.4628465257797013 0.49400264735492144
0.36531914893617023 0.4684904738641915 0.49807085060269
0.365531914893617 0.47252934280404296 0.5003656097739541
0.3657446808510638 0.4796758413399079 0.5019454011304137
0.3659574468085106 0.4812063553773511 0.5076151579737731
0.36617021276595746 0.48712236628925687 0.5085218400011512
0.36638297872340425 0.490594020866565 0.5074919522182516
0.36659574468085104 0.48702124726159096 0.5077542732084958
0.3668085106382979 0.48548763920460436 0.5076184162622711
0.3670212765957447 0.4904001161762533 0.5082101075251613
0.3672340425531915 0.49582812743812393 0.5046409379579873
0.36744680851063827 0.4928467403167912 0.5047921574196769
0.3676595744680851 0.4981832960661506 0.5052363424292083
0.3678723404255319 0.5062335825794474 0.4971860559159117
0.3680851063829787 0.5082830735888585 0.5027328191144976
0.36829787234042555 0.5132973480442264 0.49495877007719874
0.36851063829787234 0.5208615988655448 0.4953353125692056
0.36872340425531913 0.5185715825118438 0.4995036495350542
0.368936170212766 0.5122866456000227 0.4924512503030096
0.36914893617021277 0.5082186621156469 0.49961208794084555
0.36936170212765956 0.5014117572580301 0.4951893176468995
0.36957446808510636 0.49877870053737183 0.4994514549185369
0.3697872340425532 0.4946996622760876 0.49958486012660047
0.37 0.489800916488099 0.49682462139716654
0.3702127659574468 0.49070462061103975 0.49852093717186047
0.37042553191489364 0.4961411468951603 0.49446306477186397
0.3706382978723404 0.5016440894965517 0.4987129707862441
0.3708510638297872 0.508305007695566 0.4995116515646427
0.371063829787234 0.5063401571277178 0.4985662408786931
0.37127659574468086 0.5056179775280898 0.5026707487093317
0.37148936170212765 0.5077113663657704 0.5061413247375101
0.37170212765957444 0.5077239006940107 0.5071957621363556
0.3719148936170213 0.5114569364498265 0.5075720566682951
0.3721276595744681 0.5076409286977711 0.5150206693140459
0.3723404255319149 0.500839513963349 0.5067729075744795
0.3725531914893617 0.5040120426254532 0.5052698332905213
0.3727659574468085 0.5063508699629402 0.5014661231415206
0.3729787234042553 0.5062864049026495 0.4984700883418288
0.3731914893617021 0.5068873234152959 0.5000981067339739
0.37340425531914895 0.5059611487788596 0.5003896084268072
0.37361702127659574 0.5046970798205762 0.49975574010747437
0.37382978723404253 0.5020863292798264 0.5015573287213414
0.3740425531914894 0.5031532605257447 0.5048520207348799
0.37425531914893617 0.49686527595508456 0.4928705604665896
0.37446808510638296 0.4977832939700631 0.498705232548548
0.37468085106382976 0.48860684319681386 0.49889381612348593
0.3748936170212766 0.49267351270507703 0.49878393846075775
0.3751063829787234 0.49193942354665365 0.4939460596181682
0.3753191489361702 0.48989652018933993 0.49300528733386484
0.37553191489361704 0.4892875406473336 0.48796102766096455
0.37574468085106383 0.49426053692190014 0.48412310698583294
0.3759574468085106 0.4935947638242982 0.4878778036571092
0.37617021276595747 0.48982977579754783 0.4920949921555542
0.37638297872340426 0.49071384196375567 0.49121092598934657
0.37659574468085105 0.484931292253621 0.4892392149128567
0.37680851063829784 0.4948398728404056 0.49095625009323995
0.3770212765957447 0.4861321752747113 0.4899113299652747
0.3772340425531915 0.4913770932415907 0.49405165030603754
0.3774468085106383 0.4909329395148177 0.48474171963580115
0.3776595744680851 0.4952703018057612 0.48240572180896474
0.3778723404255319 0.4951782272142902 0.48158065028002817
0.3780851063829787 0.49893509041308237 0.4807816634283292
0.37829787234042556 0.49614321063491573 0.4757731940666872
0.37851063829787235 0.5037651788714982 0.485006813909218
0.37872340425531914 0.5026868588177822 0.4899380307685905
0.37893617021276593 0.5023903765560992 0.4877954313503482
0.3791489361702128 0.49960388436548187 0.4888349614383923
0.3793617021276596 0.493951825319205 0.4861167815520306
0.37957446808510636 0.4916184070019314 0.4934608173152505
0.3797872340425532 0.4874829677709301 0.49117675501394564
0.38 0.48229695877397427 0.4906861413519388
0.3802127659574468 0.48040392807238425 0.4893862635702692
0.3804255319148936 0.48113560130232835 0.49453222041778083
0.38063829787234044 0.48029345123087336 0.49682462139716654
0.38085106382978723 0.48162021914293546 0.497466967698282
0.381063829787234 0.4834971700973427 0.49729802133618795
0.38127659574468087 0.48266756718367093 0.4967979025891881
0.38148936170212766 0.48293462204468224 0.49840926798536744
0.38170212765957445 0.4806764473894243 0.4933779618007579
0.3819148936170213 0.47518427973683625 0.48869652002786673
0.3821276595744681 0.477178651633636 0.48520532491741425
0.3823404255319149 0.47899051138410426 0.4884610734721806
0.3825531914893617 0.4862303900981643 0.48329927138785667
0.3827659574468085 0.4867660212326104 0.48325849359524203
0.3829787234042553 0.4839477034656366 0.48204378133968573
0.3831914893617021 0.48432218155608825 0.481059271895355
0.38340425531914896 0.4839745747430751 0.4767741883728676
0.38361702127659575 0.48665310773439646 0.47383505755865335
0.38382978723404254 0.48537539055104095 0.4769168380016408
0.38404255319148933 0.48896270753533105 0.4763067904250122
0.3842553191489362 0.4880312652662433 0.47612308095688366
0.384468085106383 0.48739056537728714 0.477572200466256
0.38468085106382977 0.4910468131898334 0.47855475361741284
0.3848936170212766 0.4956618066224345 0.47318989651007487
0.3851063829787234 0.4948705422569615 0.4709742758603198
0.3853191489361702 0.4957157288293955 0.472980112721699
0.38553191489361704 0.49877356099956915 0.4782608695652173
0.38574468085106384 0.4959584363776598 0.47907679015574106
0.38595744680851063 0.5010637837611033 0.48358208196693997
0.3861702127659574 0.4947967794520801 0.48095232267857585
0.38638297872340427 0.49140286376165426 0.4851400667703134
0.38659574468085106 0.4896337344675094 0.49397129293357334
0.38680851063829785 0.49219873083411514 0.49504997532762174
0.3870212765957447 0.4929164631167562 0.49114571388605294
0.3872340425531915 0.4865070236338368 0.49257259311051715
0.3874468085106383 0.4909623839765511 0.4915613625812421
0.3876595744680851 0.48910340694137566 0.5007327796775769
0.3878723404255319 0.4851001465559355 0.49953024458932926
0.3880851063829787 0.48409344573218727 0.5008217634385139
0.3882978723404255 0.47998912066949706 0.5055580664356247
0.38851063829787236 0.4889376372917853 0.5027818857672753
0.38872340425531915 0.482070835133411 0.507466495822071
0.38893617021276594 0.4764795644889197 0.5057475580760203
0.3891489361702128 0.4773714570946934 0.5059684859264043
0.3893617021276596 0.47790503774747484 0.5091703039907577
0.3895744680851064 0.4769331104231975 0.5085741686653916
0.38978723404255317 0.4811919882755251 0.5159475478111807
0.39 0.4793658922022627 0.5174064439027923
0.3902127659574468 0.47489439510795023 0.5158237289760752
0.3904255319148936 0.47488315232501827 0.5147740896785846
0.39063829787234045 0.4778555591817359 0.5083826774352581
0.39085106382978724 0.4830495563116709 0.5071426363986302
0.39106382978723403 0.48232684629335537 0.4976926228596691
0.3912765957446808 0.4940531439328224 0.5041620142200963
0.39148936170212767 0.49717484114146415 0.4953222522106176
0.39170212765957446 0.4993815893002915 0.4938207962611357
0.39191489361702125 0.49900323268376734 0.4936856480848021
0.3921276595744681 0.49626509353533416 0.4932004954238808
0.3923404255319149 0.49515388524572473 0.4900146661875861
0.3925531914893617 0.49652027594867426 0.4946302000330947
0.39276595744680853 0.49011795353062926 0.49488948641755875
0.3929787234042553 0.4893127514091343 0.4948705422569615
0.3931914893617021 0.4855724591024264 0.4951121009430604
0.3934042553191489 0.4873499330839783 0.4943416324999382
0.39361702127659576 0.4867224065151759 0.49551576264609926
0.39382978723404255 0.4848462128696821 0.4974939176531802
0.39404255319148934 0.4890178435842719 0.4914977647115544
0.3942553191489362 0.49273898108523717 0.4935385386238207
0.394468085106383 0.49000581571849344 0.5006611300854191
0.3946808510638298 0.49233938870365174 0.4942934678438568
0.39489361702127657 0.49221101260411737 0.49815438622358854
0.3951063829787234 0.48746955098259576 0.500920017772126
0.3953191489361702 0.49148644299554733 0.49818356305048556
0.395531914893617 0.48539127866971815 0.4981342503725537
0.39574468085106385 0.4853178415757493 0.5027147177000238
0.39595744680851064 0.48791866384441346 0.494456509796008
0.39617021276595743 0.48915612400082303 0.4902070731531642
0.3963829787234043 0.4905483913824285 0.4937444483050014
0.39659574468085107 0.48969045063277 0.4944371111096821
0.39680851063829786 0.4938152348941407 0.4914117698652432
0.39702127659574465 0.4974344462629892 0.4923066382509335
0.3972340425531915 0.49556761809077915 0.48896069971133355
0.3974468085106383 0.48697156404919395 0.4880312652662433
0.3976595744680851 0.47762288005714526 0.486152530584267
0.39787234042553193 0.47604990155739685 0.48412310698583294
0.3980851063829787 0.4733756717147044 0.48432744443832043
0.3982978723404255 0.4708524094595299 0.4854155543378323
0.3985106382978723 0.4667596564876531 0.4872774874598074
0.39872340425531916 0.47057550180843943 0.48223196401754004
0.39893617021276595 0.46980085131215654 0.47760568084123484
0.39914893617021274 0.47083332782550213 0.4821656261674017
0.3993617021276596 0.47325191898597174 0.4813157410042578
0.3995744680851064 0.47614616478573735 0.4811919882755251
0.3997872340425532 0.485282326730755 0.48584946090751363
0.4 0.48796140074041006 0.4806685362275572
0.4002127659574468 0.4825396525932932 0.4788672843876545
0.4004255319148936 0.48034191920201846 0.4793648796319158
0.4006382978723404 0.4759120736667394 0.4777065636537872
0.40085106382978725 0.47008482312421157 0.475309320840819
0.40106382978723404 0.46615821663058576 0.47435271128480694
0.40127659574468083 0.4655593551538837 0.47525932051489717
0.4014893617021277 0.46477627216356265 0.4753944030481702
0.40170212765957447 0.46887447075305866 0.47572348908545375
0.40191489361702126 0.4772940424711203 0.4723952279859333
0.40212765957446805 0.48222690646379707 0.4709041334803633
0.4023404255319149 0.48650318362068623 0.4720117253906283
0.4025531914893617 0.4953322755967285 0.4744037313409569
0.4027659574468085 0.49857863224407784 0.4652291242563976
0.40297872340425533 0.5024236905681552 0.46445073145896765
0.4031914893617021 0.5018375974616479 0.465367687832931
0.4034042553191489 0.5044452488587737 0.46282357406129815
0.40361702127659577 0.5072452853959698 0.4652391323753053
0.40382978723404256 0.5070517379054125 0.4684904738641915
0.40404255319148935 0.5046223843472013 0.4702602772568478
0.40425531914893614 0.49543784271324165 0.4728713957954073
0.404468085106383 0.4911980952091664 0.4733756717147044
0.4046808510638298 0.483079462963743 0.4744304164787923
0.4048936170212766 0.47786467874529953 0.48133720046307127
0.4051063829787234 0.48203508262979466 0.48582243671412906
0.4053191489361702 0.4882694422539241 0.493212008149725
0.405531914893617 0.5028580899356644 0.4909623839765511
0.4057446808510638 0.5180111013404607 0.4940906864606585
0.40595744680851065 0.5244755787387152 0.5010927483711206
0.40617021276595744 0.5269230761557148 0.5026868588177822
0.40638297872340423 0.5239684332874376 0.5054402308009219
0.4065957446808511 0.5169639649092248 0.5019376925933092
0.40680851063829787 0.5077020508999546 0.5080930750112612
0.40702127659574466 0.4995634930789135 0.5076681801825755
0.4072340425531915 0.49365936281936984 0.5095666159086474
0.4074468085106383 0.49261402057003895 0.507199902191627
0.4076595744680851 0.4911597475175152 0.5085490962383976
0.4078723404255319 0.4967226336300623 0.5090303311829414
0.40808510638297874 0.4990403208522144 0.5095261358085001
0.4082978723404255 0.5003278708421133 0.5082460532327718
0.4085106382978723 0.512664071619227 0.5075720566682951
0.40872340425531917 0.5127719587626443 0.5101837673006818
0.40893617021276596 0.5092821219915674 0.5072065280940816
0.40914893617021275 0.5118440418286313 0.5046409379579873
0.40936170212765954 0.5124111461734736 0.5046409379579873
0.4095744680851064 0.508661706848818 0.504180570825541
0.4097872340425532 0.5074013310014434 0.5052765261943866
0.41 0.507453833320076 0.5079371443077356
0.4102127659574468 0.5067994373121363 0.5124872955185528
0.4104255319148936 0.5119443401310596 0.5145847236574954
0.4106382978723404 0.5183194919394236 0.5069764735518393
0.41085106382978726 0.5196321594130234 0.5041158709685474
0.41106382978723405 0.5235417822701195 0.5040352287385141
0.41127659574468084 0.523396775130015 0.5062025399831804
0.41148936170212763 0.5230635957632779 0.5081258141584218
0.4117021276595745 0.5206201588867637 0.5096994297120678
0.41191489361702127 0.5154845651037757 0.5106550236023443
0.41212765957446806 0.5107820834402234 0.5119918335131532
0.4123404255319149 0.5045929277387521 0.509915829290848
0.4125531914893617 0.4997960193731143 0.5147699260745423
0.4127659574468085 0.4929164631167562 0.519391854577282
0.4129787234042553 0.491109555416589 0.5156125345908154
0.41319148936170214 0.48083040859613874 0.5118417946280919
0.41340425531914893 0.47807629954579073 0.5140052796162748
0.4136170212765957 0.4736960632238101 0.5043687597079172
0.41382978723404257 0.4773458103031234 0.5064997116653268
0.41404255319148936 0.4825727762562998 0.5064532495265067
0.41425531914893615 0.48988722625917475 0.5001734660448676
0.414468085106383 0.4987836693578637 0.49451209316388367
0.4146808510638298 0.5015472130917714 0.4992679216397503
0.4148936170212766 0.5009198860261392 0.49975574010747437
0.4151063829787234 0.5056323715378601 0.4981225428207132
0.4153191489361702 0.5056781727698616 0.5060532599222467
0.415531914893617 0.505427322271318 0.5024326518087532
0.4157446808510638 0.5021203427762561 0.49783450713482824
0.41595744680851066 0.49944397012408154 0.4935817327034659
0.41617021276595745 0.5020823960355159 0.4891998056813442
0.41638297872340424 0.5030516646740205 0.4856416865961924
0.4165957446808511 0.5016625892667175 0.48451176015048336
0.4168085106382979 0.5072814216745806 0.4808487859873311
0.41702127659574467 0.5022702241253828 0.48200891216628383
0.41723404255319146 0.5065950170981925 0.4820735235190855
0.4174468085106383 0.5057273800364861 0.4796943664683987
0.4176595744680851 0.5017098192476794 0.4766940981635761
0.4178723404255319 0.5024981851222334 0.4753297508549097
0.41808510638297874 0.5050964291444601 0.4743747303505261
0.41829787234042554 0.5053952634154749 0.47877456328693335
0.41851063829787233 0.4989752294925032 0.4765033193801436
0.4187234042553191 0.4934925857631041 0.4726866934677758
0.41893617021276597 0.48619085582109295 0.48392824465145307
0.41914893617021276 0.48257636949612503 0.48907382773507985
0.41936170212765955 0.4762659749846981 0.48349895756597383
0.4195744680851064 0.47000834534474173 0.4874904333557956
0.4197872340425532 0.4730188930126454 0.48368123546881897
0.42 0.4721454025636552 0.4791534992750044
0.42021276595744683 0.47342399165292404 0.4782608695652173
0.4204255319148936 0.4769155185809842 0.4750893341130682
0.4206382978723404 0.48099683276569793 0.4780657140553901
0.4208510638297872 0.488684222121284 0.4776079127101766
0.42106382978723406 0.4874765064308922 0.4807599228437148
0.42127659574468085 0.49549854179620023 0.47888886910445616
0.42148936170212764 0.493897592175131 0.4768014444424718
0.4217021276595745 0.49353970284923143 0.47595299058738494
0.4219148936170213 0.4908579796995786 0.4763067904250122
0.4221276595744681 0.49266560538422444 0.4772002107509375
0.42234042553191486 0.4909623839765511 0.4801276856957536
0.4225531914893617 0.49080858278238004 0.4781583354357699
0.4227659574468085 0.4875225665442711 0.4764763566656696
0.4229787234042553 0.4843456137619486 0.47728382999511476
0.42319148936170214 0.48460063531915726 0.47825647298452656
0.42340425531914894 0.4895226763473893 0.4811919882755251
0.42361702127659573 0.48653178926947366 0.47832870284844886
0.4238297872340426 0.48741853501562304 0.4765552113561502
0.42404255319148937 0.48705422569614076 0.47951499608373666
0.42425531914893616 0.4835526118790002 0.4802149487054226
0.42446808510638295 0.48525087211585366 0.482138882733644
0.4246808510638298 0.48917904895899855 0.48135324736501506
0.4248936170212766 0.4833075085035729 0.4824678008543548
0.4251063829787234 0.48010633278217074 0.48227764376887966
0.42531914893617023 0.48225308359110686 0.4811919882755251
0.425531914893617 0.4779653017147646 0.48522147270960964
0.4257446808510638 0.4699056378561044 0.48981009463772435
0.4259574468085106 0.4623823745491228 0.49166443091732137
0.42617021276595746 0.4545790152992363 0.49424285956213737
0.42638297872340425 0.45013293396183146 0.5015036073180904
0.42659574468085104 0.4510927567075597 0.4987157021689667
0.4268085106382979 0.4431799731444465 0.5031359094783794
0.4270212765957447 0.4455268904903713 0.5075594427626575
0.4272340425531915 0.4490994376550879 0.5076776114665467
0.4274468085106383 0.4449335568984585 0.5095801194501357
0.4276595744680851 0.4457181113220197 0.511380064138768
0.4278723404255319 0.44862748589289725 0.5045823567635795
0.4280851063829787 0.43964359527659813 0.5042883566906565
0.42829787234042555 0.44728447937064675 0.5110128742752468
0.42851063829787234 0.4483882066774535 0.5067409290974624
0.42872340425531913 0.4494987460491521 0.507265168289127
0.428936170212766 0.45195715083012233 0.505165048241931
0.42914893617021277 0.46093358676067175 0.5060866221933213
0.42936170212765956 0.46640160444894146 0.5056516750968509
0.42957446808510635 0.47377563358806885 0.507472066199954
0.4297872340425532 0.4784507272893883 0.5075285349336114
0.43 0.48327175283335444 0.5079301504072404
0.4302127659574468 0.4865920830527349 0.5101289565406819
0.43042553191489363 0.48706653975982805 0.5139535990331803
0.4306382978723404 0.4902527863277701 0.5119441705266756
0.4308510638297872 0.49721015095229787 0.5136270588664762
0.43106382978723407 0.500189683856602 0.5137058419993981
0.43127659574468086 0.5116588681359676 0.5079712498597153
0.43148936170212765 0.5215823645555306 0.5048022593740631
0.43170212765957444 0.533724596040305 0.5062671062328551
0.4319148936170213 0.5500617295507899 0.4995739887402011
0.4321276595744681 0.5576768378720179 0.4975258978387783
0.4323404255319149 0.56122171388099 0.4917572207619185
0.4325531914893617 0.5611389118209786 0.48688390449318186
0.4327659574468085 0.5568207411060455 0.4874817670651538
0.4329787234042553 0.5496038143761709 0.4871965250909361
0.4331914893617021 0.5408608783104533 0.48511751562060307
0.43340425531914895 0.5372557923235017 0.4914591153793899
0.43361702127659574 0.5395585851765098 0.49691676069832663
0.43382978723404253 0.5407846564188549 0.5030763255192375
0.4340425531914894 0.5416498795526749 0.5036638983878847
0.43425531914893617 0.5372273506708185 0.5036638983878847
0.43446808510638296 0.5330182448183653 0.505107878079337
0.4346808510638298 0.5270052594213254 0.5056179775280898
0.4348936170212766 0.5223028341749569 0.504659733946768
0.4351063829787234 0.5161995504820104 0.5057949857770752
0.4353191489361702 0.5070797883142232 0.5004941426385823
0.43553191489361703 0.504480190017641 0.5007905463003675
0.4357446808510638 0.5006325859484665 0.4972880927499402
0.4359574468085106 0.49877870053737183 0.49491887529585316
0.43617021276595747 0.49652360289032804 0.4953969011182213
0.43638297872340426 0.494096736910934 0.48884420216254426
0.43659574468085105 0.49783435924869823 0.48806396354767245
0.43680851063829784 0.49944574350325727 0.488174501128989
0.4370212765957447 0.50178822711445 0.48651945819471876
0.4372340425531915 0.496298401976238 0.4889142526818218
0.4374468085106383 0.49141034552795937 0.48139660042507537
0.4376595744680851 0.49450269485244824 0.4818011804411146
0.4378723404255319 0.48930521828847356 0.47660370387713996
0.4380851063829787 0.4909146912813185 0.4741819225739178
0.43829787234042555 0.4928790235029184 0.4715339114160127
0.43851063829787235 0.49201241846055 0.4705175479182929
0.43872340425531914 0.48620074115361994 0.46926158838832416
0.43893617021276593 0.4881553946249193 0.4647528976260665
0.4391489361702128 0.4846931229318286 0.4655593551538837
0.43936170212765957 0.4848969581619044 0.4651659458325058
0.43957446808510636 0.4831460674157304 0.461433474023617
0.4397872340425532 0.4857584756646626 0.4600262822876317
0.44 0.48705422569614076 0.4622200779720312
0.4402127659574468 0.4921140766727266 0.46262823644357587
0.4404255319148936 0.4844756595252638 0.47200690710078985
0.44063829787234043 0.4861787209857723 0.4705235245619677
0.4408510638297872 0.49528884397676204 0.4779531127467957
