0.0 0.48412310698583294 0.5359062042012701
0.0002127659574468085 0.4853879808798734 0.5371710780953107
0.000425531914893617 0.48928494533710587 0.5392350372890758
0.0006382978723404255 0.4903868234724261 0.5483803209847732
0.000851063829787234 0.4885015218314181 0.5587387915595455
0.0010638297872340426 0.48900830483634583 0.5606045733409656
0.001276595744680851 0.49050244487864075 0.5528996008252152
0.0014893617021276596 0.4944130445522963 0.5358809792656986
0.001702127659574468 0.49510042529879833 0.5178595792865659
0.0019148936170212765 0.4913670168185577 0.4951419437477926
0.002127659574468085 0.5005101062200465 0.4780938644720696
0.002340425531914894 0.4924245065808264 0.4725626176565784
0.002553191489361702 0.48968017607658193 0.4749015133640367
0.0027659574468085106 0.48766694210793965 0.4791551113841548
0.0029787234042553193 0.48904767218780654 0.4819972403424837
0.0031914893617021275 0.4894802359776942 0.47425317942258916
0.003404255319148936 0.4916364978486942 0.45652849883785873
0.003617021276595745 0.4927678357282592 0.4406503268887038
0.003829787234042553 0.48937723949862144 0.4265871781786075
0.004042553191489362 0.4909623839765511 0.41472020474558086
0.00425531914893617 0.48858273366368704 0.4045573306348644
0.004468085106382979 0.48856772066455756 0.4082781194435143
0.004680851063829788 0.48921564090657316 0.41644039979749276
0.004893617021276595 0.48979884091958076 0.4263803131344415
0.005106382978723404 0.49270358276180193 0.44021088436318395
0.005319148936170213 0.4882593811017118 0.4576024237530116
0.005531914893617021 0.4902869208962339 0.46841405173451195
0.00574468085106383 0.48729161823258005 0.4729008866418258
0.005957446808510639 0.48813955852233626 0.4768765301521333
0.006170212765957446 0.4874233949677437 0.48274428108295053
0.006382978723404255 0.48532020305246526 0.48737109577665383
0.006595744680851064 0.4851001465559355 0.4943201073507277
0.006808510638297872 0.4898442531026586 0.49822493487863834
0.007021276595744681 0.48869339821899116 0.5043260313406326
0.00723404255319149 0.4909623839765511 0.506962898656992
0.007446808510638298 0.4930228011581772 0.5075720566682951
0.007659574468085106 0.4948705422569615 0.5122037630534247
0.007872340425531916 0.4964434025024289 0.5175570541499483
0.008085106382978723 0.4986701889571166 0.5220106270593236
0.008297872340425531 0.49877870053737183 0.5262270744063003
0.00851063829787234 0.49877870053737183 0.5264050256337022
0.008723404255319148 0.49914606158540514 0.5223449241198723
0.008936170212765958 0.5002407729338076 0.5154162688988599
0.009148936170212766 0.49891683609385573 0.5066376987254492
0.009361702127659575 0.49632537048661585 0.5021876079072313
0.009574468085106383 0.4940837168471512 0.49112662936820317
0.00978723404255319 0.4938935026868587 0.48885558672256824
0.01 0.4938935026868587 0.48646802939106754
0.010212765957446808 0.49560136117737336 0.4887144086624491
0.010425531914893617 0.49682158833641527 0.4914531785571658
0.010638297872340425 0.497423602133523 0.4916399331784755
0.010851063829787235 0.49956733675905246 0.4893851115331897
0.011063829787234043 0.4941332655059682 0.4852599884353418
0.01127659574468085 0.49280851623775224 0.4866169205210579
0.01148936170212766 0.4926942095412954 0.4922203606342873
0.011702127659574468 0.4932736274940777 0.49425066706418025
0.011914893617021277 0.49205674363873037 0.49358096303992266
0.012127659574468085 0.4929164631167562 0.4996708286239526
0.012340425531914893 0.4961908737137242 0.5041656271954055
0.012553191489361702 0.49023954797216013 0.5055816627329881
0.01276595744680851 0.49052605573417074 0.5114802149487054
0.01297872340425532 0.4968529803029832 0.5102411911699419
0.013191489361702127 0.4995088035279446 0.5050059894532738
0.013404255319148937 0.49869431685336235 0.49722432368006647
0.013617021276595745 0.4975510485696496 0.48945082088506464
0.013829787234042552 0.49753176195876847 0.4829787248711295
0.014042553191489362 0.4988182559507027 0.4821789166989604
0.01425531914893617 0.5022922229054061 0.48327761271985575
0.01446808510638298 0.5016835637384454 0.4860509306168039
0.014680851063829787 0.5024024304422517 0.49515497063249175
0.014893617021276596 0.5002191922000497 0.5097849684852651
0.015106382978723404 0.49844297235025153 0.5276824433792999
0.015319148936170212 0.4959733725501447 0.5396592855440571
0.015531914893617021 0.5007995610516643 0.5457211208183544
0.01574468085106383 0.5038335647413269 0.5478003453959434
0.015957446808510637 0.5027204957662307 0.5476474975167255
0.016170212765957447 0.49877870053737183 0.5484709745485927
0.016382978723404256 0.4981669276248158 0.5472564269350199
0.016595744680851062 0.49628491390181084 0.5371158250049017
0.01680851063829787 0.4989746348013264 0.5318021116569052
0.01702127659574468 0.49975574010747437 0.5423077467688606
0.01723404255319149 0.5007283628743677 0.5320510475593698
0.017446808510638297 0.5033183413231321 0.5279747019521985
0.017659574468085106 0.5012072500721567 0.5247404960974478
0.017872340425531916 0.5030330336676516 0.5176886272191904
0.018085106382978722 0.5005605429060148 0.5138861269653238
0.01829787234042553 0.49795915576642763 0.5057127603152451
0.01851063829787234 0.4974018108354333 0.501598563834977
0.01872340425531915 0.49601350879597256 0.5064105678859351
0.018936170212765956 0.4939835695697996 0.506640050539663
0.019148936170212766 0.49307919281845175 0.4977202961164213
0.019361702127659575 0.4934418034047534 0.495191776994643
0.01957446808510638 0.4886884939702721 0.4873652330762737
0.01978723404255319 0.49044083041004055 0.4813901909642804
0.02 0.49154271409391714 0.48000185991731553
0.02021276595744681 0.4905304786185783 0.4854188230597511
0.020425531914893616 0.49081616102067277 0.4928699419957105
0.020638297872340425 0.4919192629368387 0.49772101852800926
0.020851063829787235 0.485877492574418 0.5000338522469068
0.02106382978723404 0.48434846532133874 0.49276671100932967
0.02127659574468085 0.4851001465559355 0.48514147834321486
0.02148936170212766 0.4851001465559355 0.4725070004457984
0.02170212765957447 0.4851001465559355 0.4610604926795257
0.021914893617021276 0.4851001465559355 0.4533261491386893
0.022127659574468085 0.4902735080095292 0.44325853208312477
0.022340425531914895 0.48414760351459113 0.43731094547156224
0.0225531914893617 0.48663614565066854 0.44588110306667605
0.02276595744680851 0.48944971968004064 0.4586406855653877
0.02297872340425532 0.48723829734010193 0.46875956753359715
0.023191489361702126 0.4855517440511477 0.482086653248806
0.023404255319148935 0.4870688598235569 0.49361660325487866
0.023617021276595745 0.487244976829726 0.49367946765109727
0.023829787234042554 0.48705422569614076 0.49199902447150884
0.02404255319148936 0.48459800954421267 0.49318783600725885
0.02425531914893617 0.4897108742712268 0.49467917618803914
0.02446808510638298 0.4850245171578038 0.4844992064412883
0.024680851063829785 0.48705422569614076 0.48399531795261597
0.024893617021276595 0.4892449784687377 0.48400477016963706
0.025106382978723404 0.48836957812213017 0.47860865717049367
0.025319148936170214 0.48629103119372535 0.47401720691776644
0.02553191489361702 0.48785015328443065 0.46628380308113426
0.02574468085106383 0.4842025376100857 0.4512850714905521
0.02595744680851064 0.486077186126038 0.4365578677838589
0.026170212765957445 0.48991802085494035 0.43361249816579844
0.026382978723404255 0.49326983209407504 0.4402267164649204
0.026595744680851064 0.4899126981590393 0.45728745782932606
0.026808510638297874 0.4929164631167562 0.47537096789300026
0.02702127659574468 0.4929164631167562 0.4922928163048752
0.02723404255319149 0.49385116278007996 0.49954404057358043
0.0274468085106383 0.49754179234003615 0.5008194025533212
0.027659574468085105 0.4946587941043992 0.5027685600104905
0.027872340425531914 0.4945743199066833 0.5069354257081048
0.028085106382978724 0.5000516050630789 0.5066378292825139
0.028297872340425533 0.5010746344277094 0.49967413831095997
0.02851063829787234 0.4980544456322914 0.4886050327762609
0.02872340425531915 0.49695113014071157 0.4809740011666929
0.02893617021276596 0.4948839660194416 0.48312593177201013
0.029148936170212764 0.4936475393889103 0.4986693461317799
0.029361702127659574 0.4916875620695082 0.515509998583033
0.029574468085106383 0.4917197040647054 0.5327927487315042
0.029787234042553193 0.49138862954586665 0.5453333866206279
0.03 0.48998534440644836 0.55358897252774
0.03021276595744681 0.49219506937053814 0.5630532100656938
0.030425531914893618 0.4929164631167562 0.5609074375580251
0.030638297872340424 0.4919582955398218 0.5632538761675585
0.030851063829787233 0.49444480007354036 0.5624240969407105
0.031063829787234043 0.49726459180988514 0.5621891738493746
0.03127659574468085 0.49744009006966444 0.5565682644591815
0.03148936170212766 0.5023975828047228 0.5461754544196178
0.03170212765957447 0.5072780062243142 0.5341987313859657
0.031914893617021274 0.5077593854443467 0.5199650552340437
0.03212765957446809 0.5103268381248308 0.5026502846011304
0.03234042553191489 0.512115874519178 0.48289413898716493
0.0325531914893617 0.5073797056843201 0.46422818291628665
0.03276595744680851 0.5056934299723379 0.45270821658909455
0.03297872340425532 0.5040401131654504 0.44834885766960286
0.033191489361702124 0.5046409379579873 0.4503959502900594
0.03340425531914894 0.5088865775066908 0.46097860020538334
0.03361702127659574 0.505661121991583 0.4832662869757135
0.033829787234042556 0.504492860174488 0.5055875405684119
0.03404255319148936 0.5027377710025048 0.5237744318822576
0.03425531914893617 0.5026868588177822 0.5237694473002209
0.03446808510638298 0.5029165941438449 0.5184356884711264
0.03468085106382979 0.503305599520073 0.5095908635763147
0.03489361702127659 0.49929090363691825 0.5022152556859416
0.035106382978723406 0.4970736855688547 0.49914268823657904
0.03531914893617021 0.493354285075005 0.49877870053737183
0.03553191489361702 0.4936769861967974 0.5005162631875156
0.03574468085106383 0.49393535058710786 0.5045363182073644
0.03595744680851064 0.49554958648132 0.49886175407024247
0.036170212765957444 0.49416858892018073 0.4894921229537074
0.036382978723404256 0.492843023502203 0.4721783133009421
0.03659574468085106 0.4921410987235264 0.4544433201660968
0.03680851063829787 0.4925712154186158 0.44236759788308416
0.03702127659574468 0.4935034956584613 0.44797668689025516
0.03723404255319149 0.48842768180892804 0.4590364234954603
0.0374468085106383 0.4861993122784776 0.47746698887318845
0.03765957446808511 0.4887999061581572 0.49640782404078937
0.03787234042553191 0.490980932294064 0.5033258529861753
0.038085106382978726 0.4885664702984993 0.505966441571527
0.03829787234042553 0.48859927676322956 0.5109801256502127
0.03851063829787234 0.49040313547459924 0.5134342940889105
0.03872340425531915 0.4942722872165363 0.5068144876089401
0.03893617021276596 0.48913367797715945 0.5017934013415551
0.03914893617021276 0.48727214179863443 0.49280750506550935
0.039361702127659576 0.48900830483634583 0.4924162921869598
0.03957446808510638 0.48900830483634583 0.49093177221747275
0.03978723404255319 0.4880089099612615 0.4845780938134115
0.04 0.4876830884662503 0.4831460674157304
0.04021276595744681 0.48954636600794216 0.477843214819784
0.04042553191489362 0.4891010919649205 0.4798438001911238
0.040638297872340426 0.4892175944300532 0.4922533579372147
0.04085106382978723 0.4941472604326242 0.5005261277277663
0.041063829787234045 0.4875995674502397 0.49877870053737183
0.04127659574468085 0.4863923583444666 0.4997242171926573
0.04148936170212766 0.4875003160794145 0.5048324519305959
0.04170212765957447 0.48745729253026593 0.5068271780304654
0.041914893617021276 0.49407695367326504 0.5070225231235147
0.04212765957446808 0.4907769845087264 0.5030363290019649
0.042340425531914895 0.49072877302360246 0.4965484146859099
0.0425531914893617 0.4909623839765511 0.48491248354137756
0.04276595744680851 0.4909623839765511 0.46919072663209743
0.04297872340425532 0.49042437532390076 0.46030617524184747
0.043191489361702126 0.49059708202437874 0.4555744161319357
0.04340425531914894 0.4881785998024542 0.4512027340269293
0.043617021276595745 0.48412310698583294 0.4496060551136645
0.04382978723404255 0.48412310698583294 0.45778640608260496
0.044042553191489364 0.4823017691978679 0.45696511105132076
0.04425531914893617 0.4831460674157304 0.47362676947153115
0.044468085106382976 0.48295403914252605 0.4932836214590841
0.04468085106382979 0.48474064945366946 0.5010288694444084
0.044893617021276595 0.48912903708005445 0.5090432068336657
0.0451063829787234 0.49013854413888835 0.5108001954981042
0.045319148936170214 0.4886674865742733 0.503968384477065
0.04553191489361702 0.4886188533034963 0.49466899501457906
0.045744680851063826 0.49083261073900075 0.476497709992863
0.04595744680851064 0.49193942354665365 0.46946751343429405
0.046170212765957445 0.49193942354665365 0.4685217470966734
0.04638297872340425 0.4916204449392544 0.47096188773176734
0.046595744680851064 0.4900706334226945 0.48679835864740256
0.04680851063829787 0.48900830483634583 0.49918155451470325
0.047021276595744683 0.4932410426565043 0.5154943657751261
0.04723404255319149 0.48985678941723576 0.5259815352958269
0.047446808510638296 0.4918999190688461 0.5328960765353472
0.04765957446808511 0.4909623839765511 0.5336722035211312
0.047872340425531915 0.4917021458011841 0.539577084736211
0.04808510638297872 0.4942623556659181 0.5425061475800044
0.048297872340425534 0.4958425582746344 0.5451805447886003
0.04851063829787234 0.49804767158906416 0.5448190641845523
0.048723404255319146 0.49877870053737183 0.5392892473616511
0.04893617021276596 0.4970604527927602 0.5284099207461117
0.049148936170212765 0.49975574010747437 0.5191877959923967
0.04936170212765957 0.500039124359731 0.5046409379579873
0.049574468085106384 0.5026868588177822 0.5028749059483407
0.04978723404255319 0.5026868588177822 0.4971740107945978
0.05 0.5036461029664355 0.49012770777804227
0.05021276595744681 0.5034171855789209 0.47482651357122935
0.050425531914893615 0.5026868588177822 0.4593242912519683
0.05063829787234043 0.5044242042455299 0.4488395777418666
0.050851063829787234 0.5027272007103977 0.4352711284807034
0.05106382978723404 0.5046409379579873 0.4374769915477094
0.05127659574468085 0.5035371522732196 0.45075456129581803
0.05148936170212766 0.5015424351197817 0.45852542883798314
0.051702127659574465 0.5037558259978936 0.47508813216487816
0.05191489361702128 0.5059662297012039 0.490120778304927
0.052127659574468084 0.5050098580488337 0.5010267184089735
0.05234042553191489 0.5037209724712823 0.5063667207646019
0.0525531914893617 0.5073546416952341 0.5047134096156742
0.05276595744680851 0.5044462804284998 0.5063966076460398
0.05297872340425532 0.5042315299176763 0.5103775831031876
0.05319148936170213 0.5060281384104396 0.5149182198129062
0.053404255319148934 0.50982460287906 0.5188577562362349
0.05361702127659575 0.5050864991380861 0.5213067375224504
0.05382978723404255 0.5049153884066159 0.522227650219834
0.05404255319148936 0.49726005746322954 0.518513019079896
0.05425531914893617 0.4966751936311118 0.5081506221955849
0.05446808510638298 0.49439860549577375 0.49837563323597345
0.054680851063829784 0.4959416158011147 0.48205052731851356
0.0548936170212766 0.4943156330856619 0.4670675098139717
0.0551063829787234 0.495418631194312 0.4565992581327199
0.05531914893617021 0.495847581827064 0.44647910860092577
0.05553191489361702 0.49424249282771077 0.436039039614861
0.05574468085106383 0.49016319929926455 0.4398895439919922
0.055957446808510634 0.4925084745301224 0.4412170966564643
0.05617021276595745 0.4899349066035217 0.4553960291922546
0.05638297872340425 0.49410823478310223 0.46933599215839367
0.056595744680851066 0.48994595446566414 0.4829491177118087
0.05680851063829787 0.49036725523642344 0.49100690896688104
0.05702127659574468 0.4907020808839657 0.4929164631167562
0.05723404255319149 0.4885130211594211 0.4929164631167562
0.0574468085106383 0.48990924548304143 0.4985504037671511
0.057659574468085104 0.48998534440644836 0.4953220693236801
0.05787234042553192 0.49149276017811405 0.501693846099616
0.05808510638297872 0.4954692621320019 0.5136316934827652
0.05829787234042553 0.4933948088386377 0.5284664927306332
0.05851063829787234 0.49520008610960203 0.5308163248464812
0.05872340425531915 0.49755824069653876 0.5251567538378333
0.058936170212765954 0.49877870053737183 0.5116093666659789
0.05914893617021277 0.4974423965911532 0.48798751540937785
0.05936170212765957 0.4952029566775731 0.466597005799183
0.059574468085106386 0.4920111050215525 0.4521675270720429
0.05978723404255319 0.48900830483634583 0.44894968246213973
0.06 0.48793440428690715 0.44975510787421874
0.06021276595744681 0.48592539118236994 0.45559440199140244
0.06042553191489362 0.48705422569614076 0.46626926676332964
0.06063829787234042 0.4856415029252511 0.4739763599316207
0.060851063829787236 0.4851001465559355 0.47864803099614
0.06106382978723404 0.4879489163065499 0.4716411898003484
0.06127659574468085 0.48226674650204265 0.4643868782709511
0.06148936170212766 0.4831460674157304 0.46262823644357587
0.06170212765957447 0.4831460674157304 0.46540913350692364
0.06191489361702127 0.483621880797913 0.4747268734440403
0.062127659574468086 0.48712608251270756 0.48704564550519414
0.06234042553191489 0.48828146341119033 0.4941199478221204
0.0625531914893617 0.48717974765624306 0.48976143659695953
0.0627659574468085 0.48891632051095585 0.4945945892807915
0.06297872340425532 0.48998711367495795 0.49487142689121627
0.06319148936170213 0.49151828385188995 0.4957072019288094
0.06340425531914894 0.4858665400879887 0.493156241553686
0.06361702127659574 0.48377987873899925 0.48636776920247343
0.06382978723404255 0.48216902784562765 0.4816244852144858
0.06404255319148935 0.48250866148398314 0.47762346363347014
0.06425531914893617 0.48229225873881476 0.47612634787292835
0.06446808510638298 0.4838189386630492 0.4770534022572382
0.06468085106382979 0.48543875891858146 0.47446910383831353
0.06489361702127659 0.4843615405174438 0.47142159257449934
0.0651063829787234 0.48827156679147077 0.4697622086522441
0.06531914893617022 0.4908131141002889 0.4721747273302085
0.06553191489361702 0.4918238430435981 0.4620611233400377
0.06574468085106383 0.49193942354665365 0.45011446887691436
0.06595744680851064 0.49554955423703306 0.44869466903011307
0.06617021276595744 0.49616929210546235 0.44698369458702697
0.06638297872340425 0.49839110451851254 0.45364913182617767
0.06659574468085107 0.5007327796775769 0.46638833701307114
0.06680851063829787 0.49979498437897774 0.480995766918008
0.06702127659574468 0.4978016609672691 0.4960718670378784
0.06723404255319149 0.49742633409366405 0.5113968216828779
0.06744680851063829 0.4956652487578268 0.5245463954985135
0.06765957446808511 0.49270587940174 0.5308863016407196
0.06787234042553192 0.494411060800743 0.5348789890313485
0.06808510638297872 0.49508897023003057 0.5373074955784131
0.06829787234042553 0.48846412242922616 0.5373161009343556
0.06851063829787234 0.4840393562216487 0.5355526074231746
0.06872340425531914 0.48216902784562765 0.5425730867496601
0.06893617021276596 0.48298132436920893 0.5479487464265178
0.06914893617021277 0.4831460674157304 0.5566397739608675
0.06936170212765957 0.48802415763985263 0.5505262596208556
0.06957446808510638 0.48699343710126974 0.545068713953586
0.06978723404255319 0.48673450657862793 0.5349859555676443
0.06999999999999999 0.4910561595561579 0.5291607027901587
0.07021276595744681 0.4921171788296003 0.5301920961831103
0.07042553191489362 0.4978016609672691 0.5350600215564227
0.07063829787234042 0.4978016609672691 0.5479982170614486
0.07085106382978723 0.4978016609672691 0.5511911014410307
0.07106382978723404 0.5015527618415822 0.5597912592463999
0.07127659574468086 0.5041170311386618 0.5537052386687621
0.07148936170212766 0.5023556511249119 0.5429441749758912
0.07170212765957447 0.5000176743186868 0.5238699527618559
0.07191489361702127 0.5031479232947511 0.5008975115260706
0.07212765957446808 0.504488516111211 0.47718621788410887
0.07234042553191489 0.5094460582965324 0.4581594573093115
0.0725531914893617 0.5143659459161003 0.44863148702275923
0.07276595744680851 0.5081041114589485 0.44699560332193444
0.07297872340425532 0.5073623965749283 0.440856567508048
0.07319148936170213 0.5059717289495305 0.43197781202667357
0.07340425531914893 0.5100460117248296 0.42448188503453754
0.07361702127659574 0.5075912446352322 0.4147916734424235
0.07382978723404256 0.5049845508408635 0.411478565915365
0.07404255319148936 0.5039777527849457 0.42110677122082396
0.07425531914893617 0.5043841033696449 0.4327027825972801
0.07446808510638298 0.505436008501824 0.4495823982697665
0.07468085106382978 0.5032342285260626 0.4655711687533625
0.0748936170212766 0.49927670754135706 0.48298361678899837
0.07510638297872341 0.5015296273932756 0.4970208295981856
0.07531914893617021 0.4997138795989423 0.5037057588964168
0.07553191489361702 0.4981104864027452 0.5057723902458279
0.07574468085106383 0.5035004247703316 0.5084837067913763
0.07595744680851063 0.49877870053737183 0.506069227985387
0.07617021276595745 0.4986235935644146 0.49960063313451714
0.07638297872340426 0.4966689646416796 0.49640075016788626
0.07659574468085106 0.4956220098168569 0.4872037287546889
0.07680851063829787 0.4943421680536432 0.4790784914622523
0.07702127659574468 0.4942294654865914 0.4733756717147044
0.0772340425531915 0.4971218930370684 0.47411203060372814
0.0774468085106383 0.4895195351250496 0.47883652759977735
0.07765957446808511 0.48740287854059317 0.4894947956073078
0.07787234042553191 0.48921805775115185 0.5003132738479649
0.07808510638297872 0.4907977415463613 0.5006742938638352
0.07829787234042553 0.4934299702439513 0.5058747310916873
0.07851063829787235 0.4945483636203676 0.5067561064164895
0.07872340425531915 0.49261795766218464 0.5081690675774382
0.07893617021276596 0.49018211243824866 0.5110900791795542
0.07914893617021276 0.4886183633730453 0.5085876532023574
0.07936170212765957 0.490622833349275 0.5057172902999401
0.07957446808510638 0.48844080137621365 0.5023709241174584
0.0797872340425532 0.4915026121668509 0.4910130083558756
0.08 0.4929164631167562 0.4819557841320843
0.08021276595744681 0.4912732140522984 0.46460408259307295
0.08042553191489361 0.4909623839765511 0.45028456275062895
0.08063829787234042 0.4916884798694146 0.44219405336383455
0.08085106382978724 0.48900830483634583 0.4432016557652356
0.08106382978723405 0.4891372531775891 0.45036811421581596
0.08127659574468085 0.4897338534155416 0.4614575546696156
0.08148936170212766 0.48900830483634583 0.4703281834675794
0.08170212765957446 0.48900830483634583 0.47681247490525364
0.08191489361702127 0.4871165776239283 0.48106728441994984
0.08212765957446809 0.4868281087332318 0.48539883523731125
0.0823404255319149 0.48705422569614076 0.47731681383205815
0.0825531914893617 0.4870272483968092 0.4711518195811839
0.08276595744680851 0.4859273670343866 0.4610519205068677
0.08297872340425531 0.48537492146391975 0.4574682636850787
0.08319148936170212 0.4868168446998926 0.4545470233013967
0.08340425531914894 0.48890804887355443 0.4552876796389008
0.08361702127659575 0.48789675724651654 0.45910771693342195
0.08382978723404255 0.48499550275057135 0.46206977209492983
0.08404255319148936 0.48503676083198444 0.47149810515386864
0.08425531914893616 0.48550219788332094 0.47912335192929295
0.08446808510638298 0.4843485577677944 0.4811168380148713
0.08468085106382979 0.486781011739874 0.48030602002417816
0.0848936170212766 0.48705422569614076 0.4741209778779462
0.0851063829787234 0.4912177993224604 0.47294269718018844
0.08531914893617021 0.4934812259345746 0.4819905627114186
0.08553191489361701 0.4882246722184381 0.5027482139040541
0.08574468085106383 0.4920155178748562 0.5366154265481535
0.08595744680851064 0.49270001390484114 0.5605727875976284
0.08617021276595745 0.49234379977118703 0.5824650936538857
0.08638297872340425 0.49193942354665365 0.5959198845650439
0.08659574468085106 0.4914904741060488 0.6008397652686459
0.08680851063829788 0.49003683365906053 0.6022934057156341
0.08702127659574468 0.4884417745973581 0.5946270459227945
0.08723404255319149 0.4925270134054569 0.5688112591028058
0.0874468085106383 0.49162551003412625 0.5439847449858898
0.0876595744680851 0.4875678309088745 0.5224283336412948
0.08787234042553191 0.4886037945380578 0.502081147338537
0.08808510638297873 0.4909218084812995 0.49062317895476637
0.08829787234042553 0.488184855357373 0.4913577602047365
0.08851063829787234 0.4868937644249239 0.4922166627855823
0.08872340425531915 0.48982635460905044 0.48224852274432667
0.08893617021276595 0.4887022616467922 0.4828105692254559
0.08914893617021276 0.48781301131480737 0.4822730516099865
0.08936170212765958 0.48727154236381975 0.48010717580603607
0.08957446808510638 0.4885167604467039 0.47728786280123575
0.08978723404255319 0.48961049141462454 0.47308063290396657
0.09 0.4896933089053824 0.4667274971581481
0.0902127659574468 0.49303985989279014 0.4554187691247561
0.09042553191489362 0.49839155164252724 0.44171408924358574
0.09063829787234043 0.49952895456889723 0.44462264777063587
0.09085106382978723 0.49867241806429613 0.46457421784265257
0.09106382978723404 0.5006067683284179 0.49103543898277385
0.09127659574468085 0.4979363008625154 0.5132893345319608
0.09148936170212765 0.5013781655701568 0.5313997305227297
0.09170212765957447 0.5041598976417675 0.5288916215008156
0.09191489361702128 0.5062196623311993 0.5107239195351176
0.09212765957446808 0.5034836555822376 0.5003722940662828
0.09234042553191489 0.5082752342547091 0.5001757943966035
0.0925531914893617 0.5058570392339085 0.5007327796775769
0.0927659574468085 0.5047109126635941 0.5017797939532864
0.09297872340425532 0.5026775382412605 0.49790864497668447
0.09319148936170213 0.4997535820994525 0.48217765987771477
0.09340425531914893 0.5043996870793442 0.4619044838076468
0.09361702127659574 0.5032596117827277 0.45848425791779723
0.09382978723404255 0.5022843699637879 0.4591809321469261
0.09404255319148937 0.5019805790158811 0.46668963296659965
0.09425531914893617 0.5029098583854776 0.47862182740128784
0.09446808510638298 0.5028685591628839 0.48505488155573234
0.09468085106382979 0.49877870053737183 0.4948705422569615
0.09489361702127659 0.49877870053737183 0.4948705422569615
0.0951063829787234 0.49765746130438054 0.48926434609200536
0.09531914893617022 0.49728836131964377 0.4818539670985945
0.09553191489361702 0.499002856421097 0.4802628619882638
0.09574468085106383 0.5026436535572167 0.475884746673099
0.09595744680851064 0.5060284406097281 0.4612986109306758
0.09617021276595744 0.5050362271126191 0.4536484190518135
0.09638297872340426 0.5043084235128141 0.4515482867272744
0.09659574468085107 0.5023402605523071 0.4457456614239672
0.09680851063829787 0.5068381261300197 0.4425992540738153
0.09702127659574468 0.5038376601463864 0.4460366022147642
0.09723404255319149 0.5008850278365493 0.44699560332193444
0.09744680851063829 0.4906958152877568 0.454492037456202
0.09765957446808511 0.48643400063226716 0.4478792389434523
0.09787234042553192 0.4874355062676605 0.44398108353939825
0.09808510638297872 0.4873584016632609 0.44687270744331387
0.09829787234042553 0.4878971213201625 0.451861785198679
0.09851063829787234 0.48842656356029046 0.46922146745632803
0.09872340425531914 0.4865544079138031 0.48187347598169017
0.09893617021276596 0.486077186126038 0.49543402242715817
0.09914893617021277 0.4864643411177936 0.5165498382043825
0.09936170212765957 0.48863585799647485 0.5289121632836449
0.09957446808510638 0.48482561209062697 0.5342266595263735
0.09978723404255319 0.4832164208543905 0.5334518797029036
0.1 0.48474725945014874 0.5322525085317927
0.10021276595744681 0.4856010191756236 0.5304134448281024
0.10042553191489362 0.48541020477237895 0.5261826734210164
0.10063829787234042 0.48536885063251184 0.5178067099183034
0.10085106382978723 0.4837403080316882 0.516748211753363
0.10106382978723404 0.4866736707476165 0.5159314110365665
0.10127659574468086 0.48728650327009115 0.5183674212137246
0.10148936170212766 0.4850274143789075 0.5301061918681035
0.10170212765957447 0.48532560437011396 0.5403404028604325
0.10191489361702127 0.48554824529116963 0.5463672249364327
0.10212765957446808 0.48467474122309295 0.5460552866155484
0.10234042553191489 0.48465363578059345 0.5406233660129462
0.1025531914893617 0.4858637054861117 0.5344488331913333
0.10276595744680851 0.4822257694595395 0.526263477131546
0.10297872340425532 0.4824580982439087 0.5173837481405039
0.10319148936170212 0.48889273421601126 0.5169326444954089
0.10340425531914893 0.4880312652662433 0.5045395783529889
0.10361702127659575 0.48696062976022464 0.49468335038512923
0.10382978723404256 0.48551903840311406 0.486774814568696
0.10404255319148936 0.4897350540003343 0.4799807396688778
0.10425531914893617 0.49073615226149264 0.4759056999966252
0.10446808510638297 0.4873109985353692 0.4759977944972485
0.10468085106382978 0.49149239930793864 0.4819455157262702
0.1048936170212766 0.4902093590153267 0.48029592984001185
0.1051063829787234 0.4923430241087912 0.47297207115256684
0.10531914893617021 0.4952022091385939 0.46882214074582396
0.10553191489361702 0.4912006889670356 0.46517807805999245
0.10574468085106382 0.49249353860511225 0.47115921148086987
0.10595744680851064 0.49134552732397496 0.48546684887346586
0.10617021276595745 0.4965456041076325 0.5074301527398609
0.10638297872340426 0.4944538793892388 0.5245229156513708
0.10659574468085106 0.49233978107892074 0.5351531976578663
0.10680851063829787 0.4905848034083904 0.540613899304758
0.10702127659574467 0.4880312652662433 0.5462322030226044
0.1072340425531915 0.4880312652662433 0.5523541289292785
0.1074468085106383 0.4880312652662433 0.5412000873831345
0.1076595744680851 0.4880312652662433 0.5166338167812512
0.10787234042553191 0.4889876440446756 0.4847429307359398
0.10808510638297872 0.49075764468314736 0.47100305813482196
0.10829787234042552 0.4861066724116017 0.4490735248615074
0.10851063829787234 0.490850846873696 0.44219514821868333
0.10872340425531915 0.4906840142793222 0.43340800881970654
0.10893617021276596 0.4932737760812351 0.4267401859909248
0.10914893617021276 0.49534343146738535 0.4245341135926598
0.10936170212765957 0.49743072942705097 0.4235466536394723
0.10957446808510639 0.4985352897680218 0.4257475400417302
0.1097872340425532 0.49705197061702455 0.4342480569913425
0.11 0.4997009677696445 0.4422747224849111
0.1102127659574468 0.4971085452976409 0.4533171147563767
0.11042553191489361 0.4982390538184929 0.47102113796680184
0.11063829787234042 0.49682462139716654 0.4854036841798592
0.11085106382978724 0.49682462139716654 0.4929164631167562
0.11106382978723404 0.4993174819414843 0.49540932366107393
0.11127659574468085 0.49854384349444786 0.5004728483690482
0.11148936170212766 0.500370960642333 0.5034226856977221
0.11170212765957446 0.49680553111135733 0.49971755953585595
0.11191489361702127 0.49429900046361325 0.49281217528217997
0.11212765957446809 0.4973566210056537 0.4884711843642302
0.1123404255319149 0.5007618031619604 0.4897144754330312
0.1125531914893617 0.49999515557327273 0.4847895584274934
0.1127659574468085 0.4992586071719225 0.4882712185835187
0.11297872340425531 0.49720488287583686 0.48900830483634583
0.11319148936170213 0.4982396937705114 0.492197787427609
0.11340425531914894 0.4995977596464618 0.48636399024403604
0.11361702127659574 0.5013360949164098 0.48114925953359666
0.11382978723404255 0.5063820021199557 0.4755427658331464
0.11404255319148936 0.5022198821602143 0.4758819040014015
0.11425531914893616 0.5039779652988337 0.47387290120906966
0.11446808510638298 0.5020061503000678 0.4742539342673442
0.11468085106382979 0.5093873291683227 0.48011084372528956
0.1148936170212766 0.5026236081152177 0.48456586190378487
0.1151063829787234 0.5021027037560774 0.4917481529933469
0.11531914893617021 0.5050521333189524 0.4988805982019918
0.11553191489361703 0.5061780368091363 0.5080544481098894
0.11574468085106383 0.5044921527249457 0.5137318645549935
0.11595744680851064 0.5036638983878847 0.5148201790046542
0.11617021276595745 0.5032057750317249 0.5121673999829451
0.11638297872340425 0.50070172602692 0.5147473647325997
0.11659574468085106 0.4976294371856991 0.5130898465257703
0.11680851063829788 0.49553551332664075 0.5117106153114631
0.11702127659574468 0.4938130089498483 0.5168941794527749
0.11723404255319149 0.4890844546504489 0.5196011307659385
0.1174468085106383 0.48997666206937074 0.5231699604416259
0.1176595744680851 0.4860926782724705 0.5193120236559586
0.11787234042553191 0.4907334239852162 0.5242962093557065
0.11808510638297873 0.4854577741758183 0.5283645447399369
0.11829787234042553 0.48900830483634583 0.5417964336778036
0.11851063829787234 0.48807902131472436 0.5483276416837173
0.11872340425531915 0.48705341479208825 0.5502362530467836
0.11893617021276595 0.48978841040229626 0.5429322412619291
0.11914893617021277 0.4880312652662433 0.5234264116843795
0.11936170212765958 0.4885606727809035 0.4997514741669634
0.11957446808510638 0.48721942079720587 0.477678705921793
0.11978723404255319 0.48511453560819057 0.4699632277454729
0.12 0.48412310698583294 0.4690990079343483
0.1202127659574468 0.4845773907712912 0.469399041435108
0.12042553191489362 0.4856326710218019 0.45979406368706766
0.12063829787234043 0.4870653986952052 0.4385511044877556
0.12085106382978723 0.49159753785043764 0.41711630681627
0.12106382978723404 0.49175228659238185 0.3967455270995909
0.12127659574468085 0.49112123458954904 0.3828112843338287
0.12148936170212765 0.4929164631167562 0.3825516902688206
0.12170212765957447 0.4920430944106138 0.3887282435021211
0.12191489361702128 0.49193942354665365 0.41463876786674553
0.12212765957446808 0.49229990682817004 0.45048027504325955
0.12234042553191489 0.4941231156147962 0.4835514439187273
0.1225531914893617 0.49118520231421886 0.5207709282359035
0.12276595744680852 0.49048907543842674 0.5533542553573861
0.12297872340425532 0.48907846755642026 0.5799396552353356
0.12319148936170213 0.4887786055654755 0.599129105176061
0.12340425531914893 0.492483182758268 0.5980012975658435
0.12361702127659574 0.4919255216457435 0.5905601785564043
0.12382978723404255 0.48900830483634583 0.5768720953910113
0.12404255319148937 0.48979304128744566 0.5659173280823284
0.12425531914893617 0.49271889283871867 0.5494034056347965
0.12446808510638298 0.49285869589712994 0.5329725839091906
0.12468085106382978 0.49322533401807334 0.507798977565975
0.12489361702127659 0.49236477886831753 0.4873132718983124
0.1251063829787234 0.49193942354665365 0.47790660143997643
0.12531914893617022 0.49278993932440984 0.48323041661062793
0.125531914893617 0.4901394880251996 0.4849460029371843
0.12574468085106383 0.4921821789384095 0.48387914799346127
0.12595744680851065 0.495847581827064 0.48388756778041997
0.12617021276595744 0.49384391300033 0.47858822286904995
0.12638297872340426 0.4906800139839418 0.47239863214460187
0.12659574468085105 0.489226419817554 0.4617736879000802
0.12680851063829787 0.48723151744274057 0.4498361411951389
0.1270212765957447 0.49260074887086924 0.43833755329639135
0.12723404255319148 0.4857278393117159 0.44008532545835266
0.1274468085106383 0.48351603022438 0.4364852820036092
0.1276595744680851 0.4843160166703819 0.4417556733508188
0.12787234042553192 0.48705422569614076 0.44909605879940023
0.1280851063829787 0.48587748966120287 0.46109499298711487
0.12829787234042553 0.4886728232815069 0.4793980309360437
0.12851063829787235 0.48829818700874744 0.5009946809628433
0.12872340425531914 0.4890025026545131 0.5192036966002028
0.12893617021276596 0.4882338560099616 0.5247176732942158
0.12914893617021275 0.48965341406373536 0.5196472133102757
0.12936170212765957 0.4937212140754809 0.5117817200186167
0.1295744680851064 0.49617612761034235 0.5004863703401181
0.12978723404255318 0.49996147033964183 0.49636154934209675
0.13 0.5010549689560468 0.48709611263491115
0.1302127659574468 0.5029079204222531 0.4776404409025552
0.13042553191489362 0.5028554463610386 0.47577612375414685
0.13063829787234044 0.5027732521660216 0.47987761727979067
0.13085106382978723 0.5010644991128375 0.4938753839511798
0.13106382978723405 0.4973244109581353 0.5109128067322324
0.13127659574468084 0.4961489130938856 0.5188399605151585
0.13148936170212766 0.4959365320007238 0.5103259812013609
0.13170212765957448 0.4929164631167562 0.4946917382782212
0.13191489361702127 0.49357682383262946 0.46960662465067465
0.1321276595744681 0.49692318138657937 0.44691504326559933
0.13234042553191488 0.5001539472796036 0.43624816805080613
0.1325531914893617 0.49689296155609247 0.4364873586070469
0.1327659574468085 0.5026591365558103 0.4569011450500732
0.13297872340425532 0.49805983935025855 0.47932271892713835
0.13319148936170214 0.4951004482583904 0.49946866228553977
0.13340425531914893 0.4958752400777755 0.5144482113266285
0.13361702127659575 0.503283765710343 0.5243262455033852
0.13382978723404254 0.5071888869638117 0.5300439667806547
0.13404255319148936 0.5049011246693579 0.529027631323354
0.13425531914893618 0.5049153510744506 0.5246196566495249
0.13446808510638297 0.5073438242388314 0.5129017517534953
0.1346808510638298 0.5022340437171459 0.49346504647387746
0.13489361702127659 0.5032742398053545 0.47377400963856564
0.1351063829787234 0.5021934164766759 0.46247688247935337
0.13531914893617022 0.5041850648515792 0.4581336183421847
0.13553191489361702 0.49985238445008906 0.47229139165803163
0.13574468085106384 0.5005241339166655 0.4820927605536252
0.13595744680851063 0.4986997834333405 0.4987486662156453
0.13617021276595745 0.4980327026829235 0.5097038602051575
0.13638297872340424 0.5103136629630957 0.5191507527283667
0.13659574468085106 0.4978264685410399 0.5222028426460631
0.13680851063829788 0.4984839763306146 0.522134783270003
0.13702127659574467 0.4960904740726059 0.5304083051489675
0.1372340425531915 0.49740144318706014 0.533455346827213
0.13744680851063829 0.49374161408770584 0.5416428362128067
0.1376595744680851 0.49735826748825673 0.5563337825613467
0.13787234042553193 0.495847581827064 0.560102403751137
0.13808510638297872 0.4982485979177663 0.5628865266167156
0.13829787234042554 0.501586944672567 0.5642403517342451
0.13851063829787233 0.49877870053737183 0.5620729361709882
0.13872340425531915 0.496778641477084 0.5543320162729714
0.13893617021276597 0.49426482257169324 0.5420422817906876
0.13914893617021276 0.49022279365200194 0.5333906216706811
0.13936170212765958 0.4908343663509981 0.5245826896151529
0.13957446808510637 0.48938700967546606 0.5161760603796582
0.1397872340425532 0.48905849643978544 0.514436429460733
0.13999999999999999 0.4851001465559355 0.5137912853217452
0.1402127659574468 0.48338274193562414 0.5119535639884931
0.14042553191489363 0.48425343395297454 0.511610541915847
0.14063829787234042 0.4851001465559355 0.5165470988118902
0.14085106382978724 0.4851001465559355 0.5164022937167763
0.14106382978723403 0.4866138481262715 0.5205377976215503
0.14127659574468085 0.4823830316987939 0.5244887129089335
0.14148936170212767 0.48348816107619463 0.5318036764942659
0.14170212765957446 0.4855325842814932 0.5364134180061526
0.14191489361702128 0.48288029652679804 0.5341173774144089
0.14212765957446807 0.4823782577893378 0.5293695703511037
0.1423404255319149 0.48475942512760434 0.5192164202251424
0.1425531914893617 0.48049532491370706 0.508132809084864
0.1427659574468085 0.4833682346208984 0.4868320584909728
0.14297872340425533 0.48507860223890437 0.48232565598899235
0.14319148936170212 0.48151736143895923 0.478583482489251
0.14340425531914894 0.48307252532429557 0.48826238773127306
0.14361702127659573 0.48354736249449204 0.4982726129514039
0.14382978723404255 0.49015976996833166 0.5097005613703834
0.14404255319148937 0.48630822060652956 0.5141093151463647
0.14425531914893616 0.48699726064435517 0.515359890703223
0.14446808510638298 0.4918399345326563 0.5144113336590133
0.14468085106382977 0.4911724095122264 0.5160915379444159
0.1448936170212766 0.49383803320308167 0.522227650219834
0.1451063829787234 0.49877870053737183 0.5261659402398291
0.1453191489361702 0.4969895178745123 0.5302088632580002
0.14553191489361703 0.498786465007083 0.5231949842027975
0.14574468085106382 0.4971281534642806 0.5152313222985894
0.14595744680851064 0.5005953562692856 0.5119449932928157
0.14617021276595746 0.5000820062090077 0.5210313411808783
0.14638297872340425 0.49406825733535786 0.5203318226291284
0.14659574468085107 0.495847581827064 0.5299225989987882
0.14680851063829786 0.4959613921519406 0.5271794050414365
0.14702127659574468 0.4975370688977762 0.5188486760784093
0.14723404255319147 0.5019231068232999 0.5056468386593648
0.1474468085106383 0.4975985203850487 0.4877507980020241
0.14765957446808511 0.49629089674419435 0.47710301052343135
0.1478723404255319 0.49364128651999134 0.467513434294089
0.14808510638297873 0.4911387808503588 0.46619045774053164
0.14829787234042552 0.49286435833732045 0.45272757879396075
0.14851063829787234 0.49120534035619584 0.448580033841149
0.14872340425531916 0.4917080480398348 0.4338050256896467
0.14893617021276595 0.49282708355266847 0.4316280410751249
0.14914893617021277 0.49403454307654304 0.4346466898848114
0.14936170212765956 0.4952420026004175 0.4376653386944975
0.14957446808510638 0.495847581827064 0.44684987444284247
0.1497872340425532 0.49910189233261415 0.46472098025874964
0.15 0.5013901807372613 0.48679410726962297
0.15021276595744681 0.49796102818291305 0.5003412598677732
0.1504255319148936 0.5005112468963985 0.5038478105988157
0.15063829787234043 0.5030614656098842 0.5073543613298586
0.15085106382978725 0.5026775538756442 0.5059920444602825
0.15106382978723404 0.49881730693090515 0.4974482635595848
0.15127659574468086 0.4978016609672691 0.48985688437386826
0.15148936170212765 0.4998761836985271 0.4856712105419687
0.15170212765957447 0.5023529948744584 0.48753046935125754
0.15191489361702126 0.4999069237503413 0.5037842306484079
0.15212765957446808 0.5011741161804826 0.524455143214836
0.1523404255319149 0.5046373471724775 0.544708537295968
0.1525531914893617 0.497127469503124 0.5702973138533943
0.15276595744680851 0.49862709398301897 0.5957499218646699
0.1529787234042553 0.49975574010747437 0.6191593199583499
0.15319148936170213 0.49854172626645493 0.6294358861737664
0.15340425531914895 0.49925727961913 0.6338395100491151
0.15361702127659574 0.503167120697409 0.6320286653391807
0.15382978723404256 0.4938970726250449 0.6218839014012049
0.15404255319148935 0.4983076152850292 0.6172753470618522
0.15425531914893617 0.5009531435348851 0.5961348481691628
0.154468085106383 0.49989189531337275 0.5815173528919336
0.15468085106382978 0.4997683149238067 0.5618700580029004
0.1548936170212766 0.4998043058284754 0.5385459285855709
0.1551063829787234 0.5027499114856819 0.517231971809324
0.15531914893617021 0.5004683103648294 0.49384939133234323
0.155531914893617 0.49801631960198534 0.4685424246121516
0.15574468085106383 0.5004580508979599 0.438812303327231
0.15595744680851065 0.4968791563126445 0.4143170181847254
0.15617021276595744 0.49892180491799865 0.3979758293418932
0.15638297872340426 0.4994895117336885 0.3913043478260869
0.15659574468085105 0.4979943612390628 0.3952260443176319
0.15680851063829787 0.49548011726416213 0.4055564239704608
0.1570212765957447 0.4938935026868587 0.414287326392544
0.15723404255319148 0.49512511646213186 0.4275373264210413
0.1574468085106383 0.49510419169985437 0.4444679012486434
0.1576595744680851 0.49313323881030174 0.46273972218864395
0.15787234042553192 0.49088591952409294 0.4904288382307058
0.15808510638297874 0.48676109998462247 0.5221494095474964
0.15829787234042553 0.49276326393624276 0.5536519254380735
0.15851063829787235 0.497042037197622 0.5820418167326531
0.15872340425531914 0.49433627677849734 0.5956276064932954
0.15893617021276596 0.4910262413236492 0.6013039980510454
0.15914893617021275 0.4952866328552446 0.600830241125733
0.15936170212765957 0.49418472427076177 0.5924711244488268
0.1595744680851064 0.500471695728309 0.588535799012176
0.15978723404255318 0.49264329849307326 0.5842118534590338
0.16 0.49005183515538103 0.5793931463121172
0.1602127659574468 0.4857821940681204 0.5700837872859924
0.16042553191489362 0.482996743827954 0.5603185483449685
0.16063829787234044 0.4818026818409326 0.5543070576594111
0.16085106382978723 0.48254009383114155 0.5458501674625377
0.16106382978723405 0.4807519210444673 0.5375171212184042
0.16127659574468084 0.4818782056300732 0.5259266626533656
0.16148936170212766 0.48216902784562765 0.5117282898949146
0.16170212765957448 0.48716459141011714 0.4994246429655452
0.16191489361702127 0.487552640187789 0.49395287092644075
0.1621276595744681 0.48569897186336336 0.48699121786930877
0.16234042553191488 0.4830972894535599 0.4954932014379813
0.1625531914893617 0.4836856640783734 0.510084063938258
0.1627659574468085 0.4835709374953175 0.5299158593049877
0.16297872340425532 0.484859412240829 0.5356654698861637
0.16319148936170214 0.48697701891787676 0.550716211309337
0.16340425531914893 0.48134171106584667 0.561986827013397
0.16361702127659575 0.48275192033303493 0.5585835159916132
0.16382978723404254 0.48498801683307025 0.5462533124844644
0.16404255319148936 0.4843580660255403 0.5278836437322805
0.16425531914893618 0.4838050444882363 0.5136609482772566
0.16446808510638297 0.48486300229792095 0.5110059264326764
0.1646808510638298 0.4851001465559355 0.5166790305133464
0.16489361702127658 0.4834861828229612 0.5334820896990649
0.1651063829787234 0.4823375446629808 0.5465855168043667
0.16531914893617022 0.48913828853573227 0.5573192944752345
0.16553191489361702 0.4863617199152351 0.5610958326820397
0.16574468085106384 0.49149333024200526 0.5558930889079703
0.16595744680851063 0.4928994582066888 0.5477667183230402
0.16617021276595745 0.49473459948198456 0.5515388373229115
0.16638297872340424 0.4933599723997794 0.5522780194612836
0.16659574468085106 0.49471752637197497 0.5580061128105491
0.16680851063829788 0.4917558206131622 0.5643212276796241
0.16702127659574467 0.4935036210027817 0.5660018253923219
0.1672340425531915 0.491007567595125 0.5602442547936191
0.16744680851063828 0.4847512908857384 0.551748638112131
0.1676595744680851 0.4839374912316173 0.5418231036039624
0.16787234042553192 0.4879552075634433 0.5314656420012596
0.16808510638297872 0.48712629174480554 0.5250386588490336
0.16829787234042554 0.4899369471692967 0.5203542331415482
0.16851063829787233 0.5010965218338853 0.5128661194613374
0.16872340425531915 0.49544991049489506 0.5035145277291159
0.16893617021276597 0.4965297486616748 0.5076644780319225
0.16914893617021276 0.5002663455473317 0.5102699583134803
0.16936170212765958 0.49708435165066145 0.5260089944929935
0.16957446808510637 0.5035689977744068 0.5415650831644331
0.1697872340425532 0.4984277523986497 0.5557221388959805
0.17 0.5057251552185458 0.5727332275347912
0.1702127659574468 0.4979766990741648 0.5794210596064711
0.17042553191489362 0.49877870053737183 0.5836637727687053
0.17063829787234042 0.49877870053737183 0.5894124431801566
0.17085106382978724 0.500250223803997 0.5940539744158073
0.17106382978723403 0.5010970950024811 0.593783351646543
0.17127659574468085 0.5049589320707037 0.5880756660361788
0.17148936170212767 0.5106740090062155 0.576514782076547
0.17170212765957446 0.5080957575313687 0.558972177332748
0.17191489361702128 0.5057499098991665 0.5350324904556233
0.17212765957446807 0.506516168168554 0.5158306143925054
0.1723404255319149 0.5083666877880394 0.5066471337982948
0.1725531914893617 0.5021389234209285 0.5096218566715204
0.1727659574468085 0.5056179775280898 0.5200713243688563
0.17297872340425532 0.5071294422139635 0.527760618650007
0.17319148936170212 0.5108070373497394 0.5280637061777724
0.17340425531914894 0.508916033028301 0.5174618475600097
0.17361702127659576 0.5093555552078302 0.49632850384461424
0.17382978723404255 0.5092519279466239 0.4779174134891989
0.17404255319148937 0.5070331040706652 0.4668736160713015
0.17425531914893616 0.50563796880623 0.4655593551538837
0.17446808510638298 0.5017098192476794 0.47260784506375947
0.17468085106382977 0.5024005454894969 0.47642489001025917
0.1748936170212766 0.5035625954782201 0.4820677249359633
0.1751063829787234 0.5007385476931338 0.47681549826451236
0.1753191489361702 0.4973072222348462 0.46725437703313405
0.17553191489361702 0.4951117567164178 0.454039549575277
0.17574468085106382 0.4983282533613418 0.4439883393935842
0.17595744680851064 0.49294794580884427 0.43333279068654235
0.17617021276595746 0.4950087707391892 0.43581460221510576
0.17638297872340425 0.49484398632090315 0.4465469174409707
0.17659574468085107 0.4930661229808918 0.4550349928612179
0.17680851063829786 0.4929957205441975 0.4630573131580463
0.17702127659574468 0.4909623839765511 0.46458231558378116
0.1772340425531915 0.48959789918365476 0.46185334599798855
0.1774468085106383 0.48900830483634583 0.4558358244209743
0.1776595744680851 0.48622684400769955 0.44924899822546277
0.1778723404255319 0.48735006574946305 0.44224276610127755
0.17808510638297873 0.48958268918395137 0.45519766168460085
0.17829787234042552 0.48443879888405195 0.4560147597247404
0.17851063829787234 0.4868665225654272 0.47366808650289904
0.17872340425531916 0.4901419985312266 0.5006585500347087
0.17893617021276595 0.4888873087386668 0.5098114836326414
0.17914893617021277 0.4880312652662433 0.5144490441234667
0.17936170212765956 0.4880312652662433 0.5144385713333967
0.17957446808510638 0.48829865286204555 0.5104140461800022
0.1797872340425532 0.4909623839765511 0.510475959592827
0.18 0.4918140709328461 0.5159561645333125
0.1802127659574468 0.49471521704534627 0.5165207380108334
0.1804255319148936 0.495847581827064 0.5175387048554769
0.18063829787234043 0.495847581827064 0.5180196485877844
0.18085106382978725 0.49515985569792226 0.5166547262401792
0.18106382978723404 0.4935030103376184 0.5245706043152764
0.18127659574468086 0.4922715371318245 0.5242203317308589
0.18148936170212765 0.48989402346941957 0.5208640501683446
0.18170212765957447 0.4882436913308793 0.512627436024963
0.18191489361702126 0.48977007531324224 0.5018091251436075
0.18212765957446808 0.491870116782512 0.47717312497678266
0.1823404255319149 0.48809940688751746 0.46382673628281973
0.1825531914893617 0.48607502693944055 0.4410923413559677
0.1827659574468085 0.4849997988232583 0.42176683220795197
0.1829787234042553 0.4837130337393618 0.4114727115367799
0.18319148936170213 0.4831460674157304 0.4074427026542758
0.18340425531914895 0.4831460674157304 0.40274593077946474
0.18361702127659574 0.4829963283832194 0.3979901499255133
0.18382978723404256 0.4826864644220429 0.39969440171198367
0.18404255319148935 0.4823766004608665 0.40139865349845383
0.18425531914893617 0.48206673649969006 0.40310290528492415
0.184468085106383 0.48175687253851357 0.40480715707139453
0.18468085106382978 0.4814470085773372 0.4065114088578647
0.1848936170212766 0.48169374989936437 0.40721155424445593
0.1851063829787234 0.48452867824169266 0.40324265456519637
0.1853191489361702 0.4896079235870823 0.39886803261396014
0.185531914893617 0.4907946416310592 0.3966322401131427
0.18574468085106383 0.4875270834630508 0.4028408784496234
0.18595744680851065 0.4871159871708346 0.415664117993958
0.18617021276595744 0.4853279347755677 0.4288957057189336
0.18638297872340426 0.4835398823803005 0.4421272934439109
0.18659574468085105 0.48700849229020327 0.4485528195221593
0.18680851063829787 0.4919618939822586 0.4530559119694823
0.1870212765957447 0.4951950292543028 0.45524576207190326
0.18723404255319148 0.4963325761685258 0.4552969142242171
0.1874468085106383 0.4916651498847434 0.45733167199143593
0.1876595744680851 0.48472977160922714 0.47283933063461464
0.18787234042553191 0.4861940657380254 0.4895927028962828
0.18808510638297873 0.4865404967180007 0.49132485779615914
0.18829787234042553 0.4868869276979759 0.4930570126960353
0.18851063829787235 0.4872333586779512 0.4947891675959117
0.18872340425531914 0.4875797896579265 0.4965213224957878
0.18893617021276596 0.48792622063790175 0.49825347739566417
0.18914893617021278 0.48748085426571536 0.5064844545447633
0.18936170212765957 0.4925032358448581 0.5133654228769275
0.1895744680851064 0.49708918436637406 0.516100849830011
0.18978723404255318 0.4941108774159775 0.5160404974164717
0.19 0.4920495535219239 0.5107234353291433
0.1902127659574468 0.4942665782558314 0.5052449019591173
0.19042553191489361 0.5008393965914111 0.5020177296187414
0.19063829787234043 0.49951799308375283 0.5009176028141722
0.19085106382978723 0.5079437088907014 0.49523377466557916
0.19106382978723405 0.4978690232470775 0.4902887611784673
0.19127659574468084 0.49785402580756954 0.4811919882755251
0.19148936170212766 0.49365217930872995 0.48046801814113876
0.19170212765957448 0.4948617731864983 0.47728821453034626
0.19191489361702127 0.5004966593908974 0.4736885573471165
0.1921276595744681 0.4932433163372596 0.4721824900433033
0.19234042553191488 0.4933248179827512 0.46724119771675887
0.1925531914893617 0.4903556514450091 0.4566349682830445
0.19276595744680852 0.4921211748456093 0.44058811200445186
0.19297872340425531 0.4908635670794155 0.430674961720762
0.19319148936170213 0.4934211568292015 0.4267676494353321
0.19340425531914893 0.49406142192133723 0.4224321706716598
0.19361702127659575 0.4948270762400383 0.41879185383972883
0.19382978723404254 0.4943177466314423 0.4289409442234857
0.19404255319148936 0.49749338717699626 0.43515096448418455
0.19425531914893618 0.49325958859175467 0.43923162361600665
0.19446808510638297 0.4938935026868587 0.44492464595830666
0.1946808510638298 0.4951011955836264 0.4495535289105235
0.19489361702127658 0.4965695919403944 0.45064873214557266
0.1951063829787234 0.5002091441717625 0.4602111992324838
0.19531914893617022 0.49975193694180975 0.4626253840693274
0.19553191489361701 0.4963869973695919 0.46010167939016416
0.19574468085106383 0.5010646725198735 0.46131930403117666
0.19595744680851063 0.5034698537971183 0.45188761778871805
0.19617021276595745 0.5006689003302275 0.43892376937171607
0.19638297872340427 0.49519308963693265 0.4352711284807034
0.19659574468085106 0.4952691085355687 0.4360553436203077
0.19680851063829788 0.5000499479044485 0.44381242699009815
0.19702127659574467 0.4998016742777971 0.45528368357930765
0.1972340425531915 0.5038538024204006 0.4720408432638806
0.19744680851063828 0.49407546669382507 0.46896914634981934
0.1976595744680851 0.4957533922665849 0.474888325850098
0.19787234042553192 0.4984508836053214 0.47468693944290574
0.19808510638297872 0.4987170582020366 0.47636843276034735
0.19829787234042554 0.4985787305009421 0.4741527412483774
0.19851063829787233 0.4978016609672691 0.4647172275096336
0.19872340425531915 0.4978016609672691 0.45994414925519267
0.19893617021276597 0.49780922769719443 0.46365067639323077
0.19914893617021276 0.4986389166607461 0.4711449199538024
0.19936170212765958 0.4964730662283272 0.48092626932773674
0.19957446808510637 0.494002671469484 0.4802149487054226
0.1997872340425532 0.495847581827064 0.4797749411651875
0.2 0.49642084737685505 0.4763715813863646
0.2002127659574468 0.4961168837993992 0.4708140232959703
0.20042553191489362 0.49080854342449165 0.4526707187590532
0.20063829787234042 0.4890409720737649 0.4461492327015082
0.20085106382978724 0.4854169081855351 0.42447018384696755
0.20106382978723403 0.4845856912967766 0.4249361082615006
0.20127659574468085 0.48402312128133235 0.42752393033254416
0.20148936170212767 0.4834605512658881 0.4301117524035878
0.20170212765957446 0.4828979812504439 0.4326995744746311
0.20191489361702128 0.4823354112349997 0.4352873965456747
0.20212765957446807 0.4817728412195555 0.43787521861671796
0.2023404255319149 0.4812102712041112 0.4404630406877616
0.2025531914893617 0.48064770118866695 0.44305086275880523
0.2027659574468085 0.48124633856281507 0.44875452766834234
0.20297872340425532 0.4849701023330765 0.46366859022644763
0.20319148936170212 0.48402616804857845 0.4712200645024327
0.20340425531914894 0.4830885042655127 0.47872137476695875
0.20361702127659576 0.482237294447344 0.48553105331230756
0.20382978723404255 0.48406343185290096 0.49270760015149423
0.20404255319148937 0.48412310698583294 0.501366451158873
0.20425531914893616 0.48772600014083656 0.5035875821065331
0.20446808510638298 0.4946135420865981 0.48913680492152756
0.20468085106382977 0.4881811051739507 0.4898714243906658
0.2048936170212766 0.48324202297650765 0.4760364077050107
0.2051063829787234 0.4839006775400883 0.46280288001782405
0.2053191489361702 0.4838525338143467 0.4571192322222686
0.20553191489361702 0.4860670989639452 0.45967694340908233
0.20574468085106382 0.48705422569614076 0.4641153991032132
0.20595744680851064 0.4817956469529229 0.47382283603608316
0.20617021276595746 0.4819776849012291 0.4895273118935619
0.20638297872340425 0.4827332209721818 0.4926549633562131
0.20659574468085107 0.4816771569450429 0.4960968683928901
0.20680851063829786 0.480234320782169 0.5087234449291154
0.20702127659574468 0.47995644844270996 0.5222846117005818
0.2072340425531915 0.4807214985441658 0.5333185106787937
0.2074468085106383 0.482062412538506 0.5463512953570413
0.2076595744680851 0.487278594141872 0.5484282238560187
0.2078723404255319 0.4960489530368672 0.5403260010356034
0.20808510638297872 0.49391884549253323 0.5341842140134133
0.20829787234042554 0.4963096350767451 0.5148709961775302
0.20851063829787234 0.49936414977342347 0.4932104785781318
0.20872340425531916 0.49668856330771616 0.4704867785080759
0.20893617021276595 0.4984064849999793 0.43753099354884195
0.20914893617021277 0.5024885869229175 0.409500195676748
0.20936170212765956 0.5017647197253973 0.4049829018075233
0.20957446808510638 0.5041467574710162 0.40578766694607576
0.2097872340425532 0.5050561894177975 0.41397164013908955
0.21 0.5025331070809347 0.4306016604225245
0.2102127659574468 0.5044739780253288 0.44889773050458537
0.2104255319148936 0.5028203855283025 0.46773813511867046
0.21063829787234042 0.5036638983878847 0.4794550644689764
0.21085106382978724 0.5011992491110817 0.4943367844184745
0.21106382978723404 0.49977568870045236 0.5006529853056648
0.21127659574468086 0.5007858724942987 0.5158462098454822
0.21148936170212765 0.5058402738134402 0.5200353012617873
0.21170212765957447 0.4997015556541677 0.5188078397834165
0.2119148936170213 0.5067995452643468 0.5082934360307049
0.21212765957446808 0.5033826884100896 0.49201219243940836
0.2123404255319149 0.5020863097950503 0.47287062456310797
0.2125531914893617 0.5063107506970733 0.4622197296757117
0.2127659574468085 0.49981528515006124 0.46218710225675547
0.2129787234042553 0.5005663271846124 0.4734406978777592
0.21319148936170212 0.5000521241154258 0.49366256141732046
0.21340425531914894 0.5007327796775769 0.5108885500592144
0.21361702127659574 0.5007327796775769 0.517494427801776
0.21382978723404256 0.5014326116598056 0.5106213401349071
0.21404255319148935 0.5033811345573634 0.4950371918456659
0.21425531914893617 0.5007871697727552 0.4699026341957198
0.214468085106383 0.5061736053423245 0.4501951541489751
0.21468085106382978 0.5042252799685879 0.43394053632459756
0.2148936170212766 0.5086582663372083 0.42475430683974935
0.2151063829787234 0.5023734668210422 0.42393377279597777
0.2153191489361702 0.49980159631757964 0.4138679703586571
0.21553191489361703 0.4965210338258452 0.410646308659723
0.21574468085106382 0.495847581827064 0.41869602277131024
0.21595744680851064 0.4936187176056042 0.42426721156501895
0.21617021276595744 0.4905290160001292 0.4300550197784137
0.21638297872340426 0.49287449271686223 0.4325947622628948
0.21659574468085105 0.4958395152772539 0.4276566950080421
0.21680851063829787 0.48918448367514605 0.4144764450475773
0.2170212765957447 0.49392421970249356 0.4070282884331741
0.21723404255319148 0.493619097979556 0.4084628299324366
0.2174468085106383 0.4928152915425274 0.41663945277554715
0.2176595744680851 0.4932400803332857 0.42877712642831406
0.2178723404255319 0.49119200152424414 0.4463653200581854
0.21808510638297873 0.4912487974253687 0.4623926379962771
0.21829787234042553 0.4901528784043859 0.47654400921315726
0.21851063829787234 0.4866942256844269 0.4851519884043774
0.21872340425531914 0.48582060577780345 0.4956598385960552
0.21893617021276596 0.4841681814836156 0.51961999086178
0.21914893617021278 0.4844099802607826 0.5191260779798301
0.21936170212765957 0.4847048982493499 0.5179464060255606
0.2195744680851064 0.48499981623791727 0.5167667340712911
0.21978723404255318 0.4852947342264846 0.5155870621170217
0.22 0.485589652215052 0.514407390162752
0.2202127659574468 0.48588457020361936 0.5132277182084827
0.2204255319148936 0.4858600736627237 0.5083863958316648
0.22063829787234043 0.4852341784742484 0.49665086104775225
0.22085106382978723 0.4846082832857731 0.4849153262638413
0.22106382978723405 0.48398238809729777 0.4731797914799288
0.22127659574468084 0.48335649290882254 0.4614442566960178
0.22148936170212766 0.4827305977203472 0.4497087219121053
0.22170212765957448 0.48216902784562765 0.43794460392871737
0.22191489361702127 0.48216902784562765 0.42593095022119243
0.2221276595744681 0.48201535041660626 0.4134251756433302
0.22234042553191488 0.4816075418429843 0.3973347614199804
0.2225531914893617 0.4831460674157304 0.38188608426047715
0.22276595744680852 0.4817959112363977 0.3817531978331963
0.2229787234042553 0.4831554596208486 0.39485174533483497
0.22319148936170213 0.4836403944883032 0.4083735038652747
0.22340425531914893 0.4840207930754891 0.43183855506234875
0.22361702127659575 0.48798249123015336 0.4543713947096417
0.22382978723404254 0.48624190052198063 0.47829460998187606
0.22404255319148936 0.48705422569614076 0.4990671390452756
0.22425531914893618 0.48705422569614076 0.5147106052715119
0.22446808510638297 0.48645943427717153 0.5197216180451975
0.2246808510638298 0.486077186126038 0.5249325499137819
0.22489361702127658 0.486077186126038 0.5232527651810196
0.2251063829787234 0.48850021128644083 0.5254583504337044
0.22531914893617022 0.4909124584966582 0.531848269481181
0.225531914893617 0.4866926601653313 0.5378602833414754
0.22574468085106383 0.48595391240696206 0.5373371960782957
0.22595744680851063 0.48853971597536594 0.5298495341983073
0.22617021276595745 0.48724369378522625 0.5132123085398909
0.22638297872340427 0.48900830483634583 0.4952901921737525
0.22659574468085106 0.4866042998723589 0.47716398459851833
0.22680851063829788 0.48419672644242034 0.4621297233412915
0.22702127659574467 0.48900830483634583 0.453325261931476
0.2272340425531915 0.489495912337102 0.4479744674606274
0.22744680851063828 0.4905832880023621 0.44276694833659563
0.2276595744680851 0.48998534440644836 0.4361157239085881
0.22787234042553192 0.48998534440644836 0.4352749196021571
0.22808510638297871 0.4939636151173707 0.44340905533046604
0.22829787234042553 0.49675177346755706 0.4629132206823884
0.22851063829787233 0.4932413326274339 0.4819475860957037
0.22872340425531915 0.49659841133276045 0.5021044943745341
0.22893617021276597 0.4957038562642431 0.5314198815697202
0.22914893617021276 0.4940839319637886 0.5616141685594269
0.22936170212765958 0.49576296019459903 0.5809961668844251
0.22957446808510637 0.4948705422569615 0.5904782272309995
0.2297872340425532 0.49764719464060525 0.5946569885549531
0.23 0.490427878375034 0.5930003713288268
0.2302127659574468 0.491791297626911 0.5832978566320034
0.23042553191489362 0.493980438653293 0.5820216798682861
0.23063829787234041 0.495101098214606 0.5728579676470483
0.23085106382978723 0.495847581827064 0.569457830381957
0.23106382978723405 0.49517204531784126 0.5670626748633585
0.23127659574468085 0.4953988346547657 0.5552879051523096
0.23148936170212767 0.4967720312650904 0.5358951177315983
0.23170212765957446 0.4938787675771752 0.5139874197377551
0.23191489361702128 0.4937164297950209 0.4923726897812648
0.23212765957446807 0.4957758041237441 0.47018529046749286
0.2323404255319149 0.4947659527088199 0.4450441355440736
0.2325531914893617 0.4951510474111622 0.41281875763848314
0.2327659574468085 0.49682250786236715 0.3852412073009724
0.23297872340425532 0.4923115973922718 0.37077087090144034
0.23319148936170211 0.49286371247677574 0.3636567270998339
0.23340425531914893 0.4924665433555459 0.3665375986213941
0.23361702127659575 0.48966087218563337 0.3762100864673657
0.23382978723404255 0.4921820302012259 0.38336342146207336
0.23404255319148937 0.4921061023784043 0.39337903895723997
0.23425531914893616 0.4901420868809532 0.40959119943210043
0.23446808510638298 0.49688087474776854 0.4223238680570932
0.2346808510638298 0.4991576514270788 0.43429408891060084
0.2348936170212766 0.5043051245370616 0.4373164096989322
0.2351063829787234 0.5022275021814222 0.4459602374544492
0.2353191489361702 0.5013370238064531 0.4525751472353966
0.23553191489361702 0.5031494079920245 0.4605702748601349
0.23574468085106381 0.5083755607613656 0.4673398988170569
0.23595744680851063 0.513135390565022 0.4720997286207133
0.23617021276595745 0.5086817934715772 0.48041399455519196
0.23638297872340425 0.5105031753786029 0.4863296685992921
0.23659574468085107 0.5090779541138793 0.5038588513423443
0.23680851063829786 0.5035422875275855 0.520080688575855
0.23702127659574468 0.49875404893983183 0.5326221494923806
0.2372340425531915 0.49844328778365815 0.5481263124036988
0.2374468085106383 0.4980901532464542 0.5555585583358693
0.2376595744680851 0.4938521773700091 0.5643230023679446
0.2378723404255319 0.49381145790835246 0.567984420457643
0.23808510638297872 0.4890653456032061 0.5730907486320288
0.23829787234042554 0.49190797260877345 0.5728571705138761
0.23851063829787233 0.4967592628121199 0.5658179165627132
0.23872340425531915 0.49143831877087407 0.5570258198750306
0.23893617021276595 0.49193942354665365 0.5506552236414728
0.23914893617021277 0.49117664393143284 0.5495847581827065
0.23936170212765956 0.49550795838799655 0.5395844944775263
0.23957446808510638 0.4902104499659517 0.5292185797291425
0.2397872340425532 0.4933515994103807 0.5184262589222772
0.24 0.49305840476321056 0.5161132282266161
0.2402127659574468 0.48998534440644836 0.5168376911478382
0.2404255319148936 0.4880517000051517 0.5182990572005152
0.24063829787234042 0.4831310967792133 0.5185119057261407
0.24085106382978724 0.48672691643219707 0.5237889582433066
0.24106382978723404 0.48873102361470167 0.523897892844047
0.24127659574468086 0.4859683398536541 0.5362308103574072
0.24148936170212765 0.4872070412582094 0.5526742170612833
0.24170212765957447 0.48664349780006627 0.5597969985353975
0.2419148936170213 0.48575572429168823 0.5577275982046982
0.24212765957446808 0.4857114836841824 0.5534301329976532
0.2423404255319149 0.48687801348651166 0.5429059485673315
0.2425531914893617 0.4834232392351851 0.5298984426689161
0.2427659574468085 0.4844129244603833 0.521503106533458
0.2429787234042553 0.48824851961945076 0.5105019653399407
0.24319148936170212 0.4886460650816258 0.500041500840684
0.24340425531914894 0.4905763710141354 0.4882942700414961
0.24361702127659574 0.48900937663030236 0.46882008363206606
0.24382978723404256 0.48864444837118165 0.45210986082322746
0.24404255319148935 0.49088393080447656 0.4471132830800463
0.24425531914893617 0.48977486723591646 0.4578937311581771
0.244468085106383 0.4865373757260559 0.4823012353757843
0.24468085106382978 0.48412365924382794 0.509723531851303
0.2448936170212766 0.4856084156557469 0.527984557961729
0.2451063829787234 0.48032611383314533 0.5429577629134043
0.2453191489361702 0.4821299687010689 0.5443000397628667
0.24553191489361703 0.4855096434759267 0.5334133476003351
0.24574468085106382 0.48715870270982353 0.5157385507171215
0.24595744680851064 0.4818554986800771 0.5058713504389781
0.24617021276595744 0.48375059472359944 0.49315008839891256
0.24638297872340426 0.4869892098273271 0.49005036027526205
0.24659574468085105 0.4863742497590731 0.49400984125175235
0.24680851063829787 0.4934877653998194 0.5094970073640244
0.2470212765957447 0.49528126031755726 0.5257685093162852
0.24723404255319148 0.4947720491836209 0.5422156060335687
0.2474468085106383 0.4945530466730124 0.5492427097805018
0.2476595744680851 0.5010783493266178 0.5447278391940686
0.2478723404255319 0.4961558982709839 0.5379172224982702
0.24808510638297873 0.4998545496884844 0.5217487175724089
0.24829787234042552 0.49438456342269405 0.4986223541499138
0.24851063829787234 0.4929164631167562 0.47460707880153086
0.24872340425531914 0.4929164631167562 0.45339076155332364
0.24893617021276596 0.4910349484347311 0.4631698892645986
0.24914893617021278 0.4880787248861591 0.48004472267388903
0.24936170212765957 0.48973786203455677 0.5082500541966504
0.2495744680851064 0.49134263998071254 0.5334953359199018
0.24978723404255318 0.49294842616633516 0.5508175021494407
0.25 0.49562118695696916 0.5607968722917843
0.2502127659574468 0.49877870053737183 0.5676938275830999
0.25042553191489364 0.4988250889201822 0.5759213217237515
0.25063829787234043 0.499343575615993 0.5645146144159122
0.2508510638297872 0.49986206231180386 0.5531079071080729
0.251063829787234 0.5003805490076147 0.5417011998002336
0.25127659574468086 0.5011957808263126 0.5300166152968123
0.25148936170212766 0.502639698028946 0.5177433190744279
0.25170212765957445 0.5088799370838337 0.5067257467703751
0.2519148936170213 0.5042973606157487 0.5009701773567552
0.2521276595744681 0.5007327796775769 0.4940664240464997
0.2523404255319149 0.5008303430135829 0.4849552077619694
0.2525531914893617 0.5013973426004519 0.478434712512976
0.2527659574468085 0.5019643421873211 0.4719142172639809
0.2529787234042553 0.5025313417741901 0.4653937220149875
0.2531914893617021 0.5026868588177822 0.4595823678415247
0.25340425531914895 0.5026868588177822 0.45403902874028673
0.25361702127659574 0.49972052455951504 0.4522645738908967
0.25382978723404254 0.49996841903738604 0.45188080117244755
0.2540425531914894 0.5030448945457143 0.45188080117244755
0.2542553191489362 0.5039586342292901 0.45423868790369104
0.25446808510638297 0.5039933594582527 0.46099227473273735
0.25468085106382976 0.5012854039043261 0.4661959781689138
0.2548936170212766 0.4992858830476931 0.4666110456250666
0.2551063829787234 0.5021126794432338 0.45636313882740615
0.2553191489361702 0.5065755386995053 0.4470998347411266
0.25553191489361704 0.5011454120827841 0.4409388992677734
0.25574468085106383 0.5007327796775769 0.4440599082324466
0.2559574468085106 0.49942761020133997 0.4535214507031196
0.2561702127659574 0.5037049684595604 0.46872979254827557
0.25638297872340426 0.4981172515097754 0.48337663973912365
0.25659574468085106 0.5016615114199612 0.5025129506379965
0.25680851063829785 0.49616295759087287 0.5179422916182626
0.2570212765957447 0.49823412937562594 0.5324368913712965
0.2572340425531915 0.4938935026868587 0.5437225207620908
0.2574468085106383 0.49254646097338584 0.5450695624755637
0.25765957446808513 0.4913815675235449 0.5457690482197058
0.2578723404255319 0.4929164631167562 0.5401595325617083
0.2580851063829787 0.4915288575312609 0.53647267775598
0.2582978723404255 0.4933688890589442 0.5383127092836634
0.25851063829787235 0.489251141482094 0.5323380172249071
0.25872340425531914 0.4928321370056619 0.5302969451139374
0.25893617021276594 0.4930165899449784 0.5346985517282818
0.2591489361702128 0.49613355240912793 0.5463199539560923
0.2593617021276596 0.4929511230477372 0.5650614216149337
0.25957446808510637 0.4909623839765511 0.5832174952476131
0.2597872340425532 0.4894702613621908 0.6013493832088719
0.26 0.48900830483634583 0.6175801154210725
0.2602127659574468 0.4851001465559355 0.6321604281118385
0.2604255319148936 0.484599785611641 0.6177870587899698
0.26063829787234044 0.48186909717878823 0.6079162613335202
0.26085106382978723 0.4841533407839957 0.5929370820292477
0.261063829787234 0.4847687415378905 0.5808414366839731
0.2612765957446809 0.4848726087424522 0.5661275425582807
0.26148936170212767 0.49337311623013613 0.5442853961143755
0.26170212765957446 0.4854189243138923 0.5256688133428724
0.26191489361702125 0.4938424769954947 0.4868493677872656
0.2621276595744681 0.4851001465559355 0.46360104556870535
0.2623404255319149 0.4847332604795253 0.44687198466280664
0.2625531914893617 0.48462268936867287 0.44903818324444883
0.26276595744680853 0.4888840484166117 0.45853369353356427
0.2629787234042553 0.4924890356873567 0.46394117443968186
0.2631914893617021 0.49380652789770446 0.4619121212409361
0.26340425531914896 0.49394081990987726 0.45517383555361707
0.26361702127659575 0.49432589805294747 0.44072732015746346
0.26382978723404255 0.49318882835202105 0.4281994722207975
0.26404255319148934 0.493030553078522 0.4235466536394723
0.2642553191489362 0.48712958996601025 0.42260729620430454
0.264468085106383 0.48746844776944537 0.42810540283641946
0.26468085106382977 0.48683917330475046 0.446800886647698
0.2648936170212766 0.49302470092929107 0.46423193860045275
0.2651063829787234 0.48956557898862757 0.48608080573325724
0.2653191489361702 0.4918268064864328 0.5099766040493836
0.265531914893617 0.4880312652662433 0.5265197039828412
0.26574468085106384 0.49113496853822364 0.5359637323884944
0.26595744680851063 0.4995412322547289 0.5413871757632072
0.2661702127659574 0.4920319936660673 0.5460331364654681
0.2663829787234043 0.4903158754119346 0.5471008428817641
0.26659574468085107 0.4855931498916756 0.546178570339414
0.26680851063829786 0.4846392686966801 0.5433169267544273
0.2670212765957447 0.4845116061578116 0.5417684416218858
0.2672340425531915 0.4853582261229762 0.5417684416218858
0.2674468085106383 0.485930045155181 0.5410327367676008
0.2676595744680851 0.4864072263365319 0.5368832437713726
0.26787234042553193 0.4934789157265486 0.5354771122468917
0.2680851063829787 0.4948705422569615 0.5336192217778851
0.2682978723404255 0.4943419301289247 0.5348489799451968
0.26851063829787236 0.49908678510983673 0.5333029647581927
0.26872340425531915 0.49706124288101894 0.5322003227631855
0.26893617021276595 0.4990037609776694 0.5304199563455572
0.26914893617021274 0.49975574010747437 0.5300439667806547
0.2693617021276596 0.4997813609967692 0.5311234899079363
0.2695744680851064 0.5002783497532836 0.5349291646311676
0.26978723404255317 0.4969251232921835 0.5349291646311676
0.27 0.4995916707304106 0.5281719223289812
0.2702127659574468 0.49759374636092435 0.5276115249661387
0.2704255319148936 0.496485681157154 0.5188382478197084
0.27063829787234045 0.4948995987033194 0.512457254518808
0.27085106382978724 0.4993681544512393 0.5112406652378346
0.27106382978723403 0.5012043612376752 0.5119856729587097
0.2712765957446808 0.49898250709626296 0.515082663390779
0.2714893617021277 0.5026292531558048 0.5140368968561598
0.27170212765957447 0.500841220127633 0.5014929383475671
0.27191489361702126 0.5015987947874846 0.49997778902786416
0.2721276595744681 0.5026467944352533 0.4838271619187223
0.2723404255319149 0.4971887328854322 0.4747835836225112
0.2725531914893617 0.5007327796775769 0.46946751343429405
0.2727659574468085 0.5025383373481696 0.47067121854802246
0.27297872340425533 0.5040479609225542 0.47496758182447835
0.2731914893617021 0.4996238363758871 0.4807962770807633
0.2734042553191489 0.4979719455759811 0.4879882747280671
0.27361702127659576 0.498567817186514 0.4862019720975136
0.27382978723404255 0.49740030760027837 0.4825528186477022
0.27404255319148935 0.4934376854288301 0.4770886238931231
0.2742553191489362 0.49676379107495516 0.47053579848771365
0.274468085106383 0.4952133406155071 0.4673362575605927
0.2746808510638298 0.49731798292073626 0.4762777399939015
0.27489361702127657 0.495847581827064 0.4873527640536318
0.2751063829787234 0.49379970222083636 0.4940342033858925
0.2753191489361702 0.49388190940106946 0.5045945648148296
0.275531914893617 0.49565254630540856 0.517933144819763
0.27574468085106385 0.5031376653086352 0.5348537380427713
0.27595744680851064 0.49766801571349933 0.5455429546485264
0.27617021276595743 0.4968485403545845 0.5425213705290662
0.2763829787234042 0.4994284649413343 0.5355777325530509
0.2765957446808511 0.4995294435773097 0.5382338654978056
0.27680851063829787 0.5003926431340087 0.5483743012352288
0.27702127659574466 0.4994749881066908 0.5565476338758962
0.2772340425531915 0.49975574010747437 0.5634661750623664
0.2774468085106383 0.5007106993741536 0.5556457183341318
0.2776595744680851 0.5022414907587702 0.5393027218207288
0.27787234042553194 0.5056573142860514 0.5217210569005356
0.27808510638297873 0.5026868588177822 0.5000502683110202
0.2782978723404255 0.49901371937535355 0.4891845689648321
0.2785106382978723 0.49544668029667305 0.49011015240401923
0.27872340425531916 0.4938428995534084 0.49692582766406745
0.27893617021276595 0.4913880843047042 0.5056564051916059
0.27914893617021275 0.48649995400663376 0.5075720566682951
0.2793617021276596 0.49379725557444953 0.5123128838501941
0.2795744680851064 0.4908607026972605 0.5098857094249646
0.2797872340425532 0.4873076549300874 0.5074811913355449
0.27999999999999997 0.4882515342278595 0.4957445327248413
0.2802127659574468 0.48664571188342404 0.48966532051711
0.2804255319148936 0.48705422569614076 0.48732921071909197
0.2806382978723404 0.4820445994009702 0.4903939765595877
0.28085106382978725 0.4811919882755251 0.49256640209058833
0.28106382978723404 0.4815605589212291 0.4923636071482002
0.28127659574468084 0.4820157524940534 0.49168081678896386
0.2814893617021277 0.48247094606687774 0.49099802642972734
0.2817021276595745 0.482926139639702 0.490315236070491
0.28191489361702127 0.48271194842697557 0.49519477227150543
0.28212765957446806 0.48285616644563256 0.5020533885476819
0.2823404255319149 0.48759846944163904 0.5039506269835299
0.2825531914893617 0.49375072952293075 0.5082747361992386
0.2827659574468085 0.48963093405520125 0.5144544294008327
0.28297872340425534 0.4855111385874707 0.5206341226024286
0.28319148936170213 0.4844710847494803 0.5271630183609762
0.2834042553191489 0.4867190578664354 0.533142669405815
0.2836170212765957 0.4847434463383665 0.5341304751698494
0.28382978723404256 0.48276783481029717 0.535118280933884
0.28404255319148936 0.48171158104433154 0.5341525786065484
0.28425531914893615 0.48427937332521565 0.5254862796585645
0.284468085106383 0.4868471656061004 0.5168199807105784
0.2846808510638298 0.4889337285325801 0.50900410168214
0.2848936170212766 0.4884628198381888 0.5057077408214006
0.2851063829787234 0.4879919111437973 0.5024113799606603
0.2853191489361702 0.487521002449406 0.49911501909992084
0.285531914893617 0.4870314421379669 0.49584188593752054
0.2857446808510638 0.484434847630485 0.4951927373106501
0.28595744680851065 0.4829035302959554 0.4948705422569615
0.28617021276595744 0.482421985969234 0.4948705422569615
0.28638297872340424 0.48367129616472 0.4913652495124127
0.2865957446808511 0.48683600504222124 0.4839809287982432
0.2868085106382979 0.4871821659243631 0.4773710412370644
0.28702127659574467 0.48638764068280077 0.4720881775878391
0.28723404255319146 0.48802035741325 0.4704554608573899
0.2874468085106383 0.48714880595147164 0.46250241917145124
0.2876595744680851 0.49191403910536763 0.4697508858888517
0.2878723404255319 0.4946361968936152 0.47658079390507596
0.28808510638297874 0.4958413518492478 0.4860211163256921
0.28829787234042553 0.4946320442584904 0.49182401581012136
0.2885106382978723 0.49950485221154844 0.4972998851754172
0.28872340425531917 0.4994540254860155 0.49854888162163885
0.28893617021276596 0.5014748771820754 0.5103427759283707
0.28914893617021276 0.5017170100182483 0.5260998546474004
0.28936170212765955 0.4988883350288373 0.5427024891261077
0.2895744680851064 0.5015201399188007 0.5577654118760756
0.2897872340425532 0.5026868588177822 0.5647025130095052
0.29 0.5027469617394218 0.5652474427651677
0.2902127659574468 0.5046409379579873 0.5651235715593051
0.2904255319148936 0.5043775701174218 0.5583781143136297
0.2906382978723404 0.5036638983878847 0.5504857205531326
0.2908510638297872 0.5047188733388177 0.5293425483531803
0.29106382978723405 0.5029755694008876 0.5007719476639146
0.29127659574468084 0.5040944188703883 0.4687061208312683
0.29148936170212764 0.5083441655409906 0.4386084898284057
0.2917021276595745 0.5002089073155306 0.4371496797528993
0.2919148936170213 0.5054100029152421 0.43770399034074015
0.29212765957446807 0.503310957121989 0.4484073683855171
0.2923404255319149 0.5011799894226378 0.46319217561377407
0.2925531914893617 0.5011419235235726 0.4701941610365123
0.2927659574468085 0.4990516208203692 0.47702545543185815
0.2929787234042553 0.5007164705680435 0.48294087403598973
0.29319148936170214 0.5026868588177822 0.4883120457098546
0.29340425531914893 0.5043367357765025 0.504834237034932
0.2936170212765957 0.5017875575568104 0.514229944271041
0.29382978723404257 0.5017098192476794 0.5201518447797997
0.29404255319148936 0.5014724767530404 0.5273501905649859
0.29425531914893616 0.4989067823516831 0.530281084431522
0.29446808510638295 0.4963405413181672 0.5295154896411359
0.2946808510638298 0.49682462139716654 0.5189319635934434
0.2948936170212766 0.49682462139716654 0.5032976705774052
0.2951063829787234 0.4959382606244388 0.4846876069711019
0.29531914893617023 0.49580274134870367 0.4747916651145856
0.295531914893617 0.4961064778128402 0.46236934045779987
0.2957446808510638 0.4980311983051628 0.45921841298463817
0.29595744680851066 0.48998534440644836 0.46722853095819566
0.29617021276595745 0.48998534440644836 0.4802277006118682
0.29638297872340424 0.49211493201838047 0.49486271360655826
0.29659574468085104 0.4929164631167562 0.5112851297196076
0.2968085106382979 0.49381841306101326 0.5287674431412822
0.2970212765957447 0.492979157733412 0.5218148621996337
0.29723404255319147 0.4881326281228379 0.5190938057963369
0.2974468085106383 0.4914391579052397 0.5143878419462877
0.2976595744680851 0.49337079565801206 0.5195578850239495
0.2978723404255319 0.4906604803271742 0.5209130426893684
0.29808510638297875 0.4897171716459251 0.526020939574118
0.29829787234042554 0.49040328479194395 0.5330691913570368
0.29851063829787233 0.48707981109473836 0.5452144645864072
0.2987234042553191 0.4876189246420359 0.5652083136547879
0.298936170212766 0.48442930060872325 0.5844338993792183
0.29914893617021276 0.4910186987860581 0.5859238545135073
0.29936170212765956 0.49212475892039975 0.5669176405315467
0.2995744680851064 0.4925996688488274 0.5303371912101327
0.2997872340425532 0.4923824858783634 0.49259885229684486
0.3 0.49125203324636624 0.45728618296760165
0.3002127659574468 0.49127176648457704 0.4379662027520221
0.30042553191489363 0.4892137126133668 0.43701979984388767
0.3006382978723404 0.4869563045402123 0.4478768937252894
0.3008510638297872 0.48691786591893926 0.4599923584173641
0.30106382978723406 0.4888956232982489 0.46988114531391223
0.30127659574468085 0.48983206880663466 0.479505956677574
0.30148936170212765 0.48737972349348946 0.48466614949280384
0.3017021276595745 0.48998534440644836 0.49483581542512145
0.3019148936170213 0.4896080883086882 0.4928196877747608
0.3021276595744681 0.4880613230527433 0.4995340235548237
0.30234042553191487 0.49133355218290925 0.5065350059303356
0.3025531914893617 0.49432321483636393 0.5129810588851871
0.3027659574468085 0.4939703743934229 0.5074842691434642
0.3029787234042553 0.490592794517126 0.5019476798989322
0.30319148936170215 0.4993258245913291 0.49354779491997647
0.30340425531914894 0.4937156879717269 0.48049601798948655
0.30361702127659573 0.48933911898038585 0.46835587251620636
0.3038297872340425 0.48900830483634583 0.46399768783321543
0.3040425531914894 0.482783110172998 0.4689411571536909
0.30425531914893617 0.48023118870582554 0.47533516418837735
0.30446808510638296 0.4883396912609964 0.47982096790769924
0.3046808510638298 0.47996713928379914 0.49828308169412494
0.3048936170212766 0.478319319067006 0.4949874412605388
0.3051063829787234 0.4849724422608594 0.4878875979342827
0.30531914893617024 0.4779963691087798 0.4784235787197029
0.30553191489361703 0.48395678628815353 0.47042366838842276
0.3057446808510638 0.4822741179579188 0.46265285696117836
0.3059574468085106 0.4802149487054226 0.45079203943519375
0.30617021276595746 0.48184532643997247 0.440803729142527
0.30638297872340425 0.4851725372492996 0.4341493075238726
0.30659574468085105 0.4852669137643889 0.4250475585155534
0.3068085106382979 0.4869889261310901 0.41788031491400873
0.3070212765957447 0.48853811577308187 0.4154262267745485
0.3072340425531915 0.49408398139997856 0.4137332329949219
0.30744680851063827 0.496704703790314 0.4185356386103462
0.3076595744680851 0.4968652702688015 0.4280754405377474
0.3078723404255319 0.4974761366865028 0.43733340456262854
0.3080851063829787 0.49521478650639744 0.4430317518633186
0.30829787234042555 0.4947749487513413 0.45316572577331243
0.30851063829787234 0.4964203476283235 0.46812011271974474
0.30872340425531913 0.4932931866609517 0.48608883676507814
0.308936170212766 0.4952608185640537 0.5075693590635514
0.3091489361702128 0.4987287969866189 0.5325924916018568
0.30936170212765957 0.490668038959545 0.5487099441048567
0.30957446808510636 0.48871301360772595 0.5580372401428884
0.3097872340425532 0.4940807620303362 0.5552597362598445
0.31 0.4944671666694954 0.5542682682394863
0.3102127659574468 0.4918300155850834 0.5538173243058124
0.31042553191489364 0.49552892400625653 0.561670023060105
0.31063829787234043 0.49682462139716654 0.5723851305108979
0.3108510638297872 0.49573048810649023 0.5822954388783871
0.311063829787234 0.4941928623096601 0.5809914626453931
0.31127659574468086 0.4987853859921526 0.5674815509067652
0.31148936170212765 0.49596911504819213 0.5462842660079367
0.31170212765957445 0.5012963580649934 0.5082291388738298
0.3119148936170213 0.49899495026248736 0.4851897790916474
0.3121276595744681 0.5015708114164757 0.4689114821094789
0.3123404255319149 0.49731271121802045 0.4704461008755077
0.3125531914893617 0.4965239902135572 0.4786867598164547
0.3127659574468085 0.5023109507945002 0.4857763526106023
0.3129787234042553 0.5037794984655406 0.49573198174940813
0.3131914893617021 0.5001668699502453 0.5021741589013614
0.31340425531914895 0.5018499279219107 0.5081312509820478
0.31361702127659574 0.5026868588177822 0.5153191443033107
0.31382978723404253 0.5017267526124906 0.5077244569515948
0.3140425531914894 0.5026868588177822 0.5031985837512982
0.3142553191489362 0.5031842056784419 0.4977663526648354
0.31446808510638297 0.5048997708816333 0.49116292477571566
0.31468085106382976 0.5055115908507765 0.48842317811112224
0.3148936170212766 0.5035954031081014 0.47839786012478397
0.3151063829787234 0.502355216140739 0.48087823405950886
0.3153191489361702 0.5011150291733765 0.4833586079942337
0.31553191489361704 0.4998748422060137 0.48583898192895913
0.31574468085106383 0.49863465523865125 0.488319355863684
0.3159574468085106 0.4966444336909175 0.494035639873679
0.31617021276595747 0.49367465314159864 0.5038827479331448
0.31638297872340426 0.49483960243618225 0.5039197607132024
0.31659574468085105 0.5002056006136973 0.5001282820560405
0.31680851063829785 0.4970530208453095 0.48968444006969863
0.3170212765957447 0.49193942354665365 0.47001124313837556
0.3172340425531915 0.49193942354665365 0.46168500252986505
0.3174468085106383 0.49211198024841385 0.453949136373954
0.3176595744680851 0.4929164631167562 0.4502473840986945
0.3178723404255319 0.4926742269895029 0.45232490073907855
0.3180851063829787 0.48791149021240227 0.4610565848304298
0.3182978723404255 0.49019142427725265 0.48019654849780274
0.31851063829787235 0.49103115369337175 0.4902124118697689
0.31872340425531914 0.48935878920167497 0.4906305029926931
0.31893617021276593 0.4880312652662433 0.4916562010826872
0.3191489361702128 0.48807312367748223 0.49470310861200567
0.3193617021276596 0.48900546873189454 0.490964274712852
0.31957446808510637 0.4863486984795928 0.492735454881053
0.3197872340425532 0.49340349515458726 0.4929164631167562
0.32 0.494111841816908 0.4989860666371833
0.3202127659574468 0.48717721362766647 0.5052103057170385
0.3204255319148936 0.4851001465559355 0.5133315335404081
0.32063829787234044 0.48625872977914497 0.5285305366429174
0.32085106382978723 0.4868853551010244 0.5307194670496258
0.321063829787234 0.48657806964854217 0.5195035480340249
0.32127659574468087 0.48627078419605985 0.508287629018421
0.32148936170212766 0.48596349874357764 0.4970717100028199
0.32170212765957445 0.4856562132910954 0.485855790987219
0.32191489361702125 0.48534892783861316 0.47463987197161794
0.3221276595744681 0.48542692995571046 0.4633807991553838
0.3223404255319149 0.48714331675683653 0.4519382204812102
0.3225531914893617 0.49225316357569027 0.43493608068953366
0.3227659574468085 0.49389748924152826 0.4203004858849157
0.3229787234042553 0.49059455846547 0.4169104480017615
0.3231914893617021 0.4908887383014325 0.42122434612367415
0.32340425531914896 0.4891224244929075 0.4229690328673355
0.32361702127659575 0.49001366950591857 0.42959863395421444
0.32382978723404254 0.48704552185114464 0.43393649495558134
0.32404255319148934 0.4880934673725008 0.4361017598501711
0.3242553191489362 0.48527058973702597 0.4297913853104856
0.324468085106383 0.48412310698583294 0.4315987030460816
0.32468085106382977 0.4858508258698908 0.43838702586459855
0.3248936170212766 0.4843456585942776 0.45216574324931763
0.3251063829787234 0.4831484342171739 0.44701217093203893
0.3253191489361702 0.48190089178817086 0.45766591185505534
0.325531914893617 0.48048067104029024 0.4715932921132354
0.32574468085106384 0.4799870383155846 0.48612012970134516
0.32595744680851063 0.478797715538726 0.5057576981929839
0.3261702127659574 0.4840142428624433 0.5156595069599383
0.32638297872340427 0.48300353842973326 0.5237204082946335
0.32659574468085106 0.48198315950053255 0.5332563495253116
0.32680851063829786 0.48216902784562765 0.538601496720023
0.3270212765957447 0.4844547730300415 0.5180362005415338
0.3272340425531915 0.49094208689455476 0.49493143350295016
0.3274468085106383 0.49556263285920116 0.46498945721815804
0.3276595744680851 0.4917248066489236 0.44237304482842554
0.3278723404255319 0.49604317187051855 0.4213956184850574
0.3280851063829787 0.4900475915072507 0.417217672013973
0.3282978723404255 0.4879789146447404 0.4200877521779863
0.32851063829787236 0.4910461618101183 0.42238818755201973
0.32872340425531915 0.49362509131257315 0.4247250017402892
0.32893617021276594 0.490196943572188 0.42772686799011933
0.32914893617021274 0.4976782525145801 0.4371017991682197
0.3293617021276596 0.5016327714814718 0.44474562381219745
0.3295744680851064 0.5008347760351738 0.4508527634235465
0.32978723404255317 0.5027029603766592 0.4508876600434678
0.33 0.49975574010747437 0.4569133927102824
0.3302127659574468 0.49847534778964864 0.4628980985278323
0.3304255319148936 0.5031346099166392 0.46686786513351125
0.33063829787234045 0.5019677754442332 0.46573132595158623
0.33085106382978724 0.4997178182997104 0.4763826340405401
0.33106382978723403 0.4993724639592732 0.4807843641082981
0.3312765957446808 0.5010496653423295 0.4973263324701404
0.33148936170212767 0.49480243831262877 0.5077082645569603
0.33170212765957446 0.49571185087920805 0.5155899668503702
0.33191489361702126 0.4954208550529765 0.519357159659958
0.3321276595744681 0.4938935026868587 0.5202735710796287
0.3323404255319149 0.49670567484328776 0.51652400820439
0.3325531914893617 0.504171046477872 0.5099960272886154
0.3327659574468085 0.4999685597945564 0.5144113336590133
0.33297872340425533 0.4986916106739617 0.5144113336590133
0.3331914893617021 0.49559665319898766 0.510579245006723
0.3334042553191489 0.4978016609672691 0.5029116397366402
0.33361702127659576 0.49540139542687023 0.4947321158265798
0.33382978723404255 0.5009789663054012 0.4922506500890133
0.33404255319148934 0.5046409379579873 0.4949875077669848
0.3342553191489362 0.5044995446572954 0.4985086274707286
0.334468085106383 0.5027717045779678 0.5071478278673669
0.3346808510638298 0.5072607324111459 0.5139754796990044
0.33489361702127657 0.5007327796775769 0.5188501539165212
0.3351063829787234 0.5003807056113738 0.5089980247091955
0.3353191489361702 0.5003277124115056 0.5019479814757911
0.335531914893617 0.5010183756514199 0.4840028553372595
0.33574468085106385 0.49837273866102644 0.46864193434723433
0.33595744680851064 0.49455221720238896 0.45894700447047077
0.33617021276595743 0.49627271370725623 0.4433409966609603
0.3363829787234042 0.49779117269155887 0.4285681990742183
0.33659574468085107 0.5040147078194386 0.41094545660427306
0.33680851063829786 0.5004330773932021 0.4024993317598551
0.33702127659574466 0.5031840713447876 0.39199801016487035
0.3372340425531915 0.5042582535209457 0.38161526603505486
0.3374468085106383 0.4995280856215647 0.37670566789602555
0.3376595744680851 0.4964767257575596 0.3820298013581199
0.33787234042553194 0.49460538374834 0.3889035461330218
0.33808510638297873 0.4973028521579971 0.3903273082559844
0.3382978723404255 0.49877870053737183 0.38162384798908827
0.3385106382978723 0.49745067709273905 0.3810375430632468
0.33872340425531916 0.4957272180306921 0.38419721801033274
0.33893617021276595 0.4940037589686456 0.3873568929574179
0.33914893617021274 0.49330267296983255 0.3897364785389582
0.3393617021276596 0.49303080917677916 0.39895424335678026
0.3395744680851064 0.4914498483060124 0.42259705591470914
0.3397872340425532 0.4909623839765511 0.4542545536232943
0.34 0.4909623839765511 0.49089207421884734
0.3402127659574468 0.48832573116367717 0.5269029972080268
0.3404255319148936 0.4888523127306027 0.5613617413517394
0.3406382978723404 0.48459402905635196 0.5963418758313723
0.34085106382978725 0.4872976510565288 0.6189445532743386
0.34106382978723404 0.48708560667087564 0.6296392409816489
0.34127659574468083 0.48339200391112247 0.6359297918890895
0.3414893617021277 0.4836489368907905 0.6301283407261313
0.3417021276595745 0.48633617196625006 0.6195136765744023
0.34191489361702126 0.48404477699308507 0.6027056071802706
0.34212765957446806 0.48225995956868534 0.5860312268292074
0.3423404255319149 0.4891240559964141 0.5555751933329237
0.3425531914893617 0.4907419287183505 0.5303102560077125
0.3427659574468085 0.48449549384996926 0.5037118745906675
0.34297872340425534 0.4831460674157304 0.48328237216397074
0.34319148936170213 0.4825730944871744 0.4662648362174961
0.3434042553191489 0.48712493232550796 0.45625635925515845
0.34361702127659577 0.48648636490310315 0.45551617360148117
0.34382978723404256 0.4899746132891632 0.4557889594528579
0.34404255319148935 0.4883306966180014 0.4554107825862713
0.34425531914893615 0.49092944433061314 0.46060827801149484
0.344468085106383 0.4885902096213058 0.4624046587015509
0.3446808510638298 0.4940432718203713 0.45977271034047873
0.3448936170212766 0.4983854343231606 0.4550146789552859
0.3451063829787234 0.5026303987636566 0.4467971063792274
0.3453191489361702 0.4989441274118849 0.4433193343831212
0.345531914893617 0.4929164631167562 0.44572568712115307
0.3457446808510638 0.49045386986435296 0.45504807234397693
0.34595744680851065 0.49380753483399686 0.46345483227117035
0.34617021276595744 0.4874954803422886 0.4777250846412626
0.34638297872340423 0.4917651136360655 0.4819947179350395
0.3465957446808511 0.49362609165874477 0.4848327355278215
0.3468085106382979 0.4903984058091759 0.4798151169331002
0.34702127659574467 0.4915518457706438 0.47142159257449934
0.3472340425531915 0.49127365303849896 0.4706109956314354
0.3474468085106383 0.49044723699946174 0.4737877892963758
0.3476595744680851 0.4880894539370362 0.5121631387190821
0.3478723404255319 0.49028075585821473 0.5315436832712365
0.34808510638297874 0.4920420136977815 0.5363242402643462
0.34829787234042553 0.49380327153734777 0.5411047972574546
0.3485106382978723 0.4955645293769141 0.5458853542505631
0.34872340425531917 0.49234901436936496 0.556449628353956
0.34893617021276596 0.4909623839765511 0.5633026782517097
0.34914893617021275 0.48913929364459496 0.5647359586088856
0.34936170212765955 0.48738564526053957 0.5635947317285417
0.3495744680851064 0.48647483006677494 0.5566035770878066
0.3497872340425532 0.48511612413153476 0.5411600900198396
0.35 0.48687810713061347 0.5247415335084478
0.3502127659574468 0.4906907090931654 0.50054694588247
0.3504255319148936 0.495428870665861 0.47351527490421247
0.3506382978723404 0.4900825145885535 0.46656501200371253
0.35085106382978726 0.49043406505285236 0.46065666348549417
0.35106382978723405 0.498229276858108 0.45610945659909513
0.35127659574468084 0.4964177690176512 0.448706164893696
0.35148936170212763 0.49375436251905547 0.4344362874738836
0.3517021276595745 0.4984749832934308 0.42454518590549756
0.3519148936170213 0.49776654432012907 0.40996311380021655
0.35212765957446807 0.4936024914424397 0.41159866879839785
0.3523404255319149 0.5053795909939085 0.4154698886277336
0.3525531914893617 0.5036638983878847 0.42616810162263496
0.3527659574468085 0.5027739611852119 0.4460986267891646
0.3529787234042553 0.49690440552448023 0.4598666590038099
0.35319148936170214 0.5041113829588512 0.47518148605184807
0.35340425531914893 0.5083041971478452 0.4918414639104327
0.3536170212765957 0.5049157624928476 0.49070069532357
0.35382978723404257 0.5108112312788166 0.4935854467866451
0.35404255319148936 0.5145436878735592 0.4885400732241081
0.35425531914893615 0.514910250365898 0.4837142743446513
0.354468085106383 0.5111319846854228 0.4755088530688283
0.3546808510638298 0.5097282037699417 0.469871649357177
0.3548936170212766 0.5077186734424194 0.46946751343429405
0.3551063829787234 0.509951485561446 0.47864705243722716
0.3553191489361702 0.5009092819596048 0.4888066944785232
0.355531914893617 0.500495540641989 0.5078036790183327
0.3557446808510638 0.49670074197013575 0.5167650427725988
0.35595744680851066 0.4962353678462783 0.5256071511258904
0.35617021276595745 0.495769993722421 0.5344492594791798
0.35638297872340424 0.4953046195985637 0.543291367832469
0.35659574468085103 0.4947740272044874 0.551056262060541
0.3568085106382979 0.49333887621618155 0.5438805071190121
0.3570212765957447 0.49190372522787607 0.5367047521774851
0.35723404255319147 0.49046857423957063 0.5295289972359581
0.3574468085106383 0.4904122164155105 0.5234844359933188
0.3576595744680851 0.4910557841966755 0.5180141098534169
0.3578723404255319 0.4916993519778405 0.5125437837135149
0.35808510638297875 0.49068484987845623 0.5073667412081094
0.35829787234042554 0.49283193429353256 0.5006364452256926
0.35851063829787233 0.4930610308279957 0.48712409451328853
0.3587234042553191 0.49196094954940384 0.48127809228652585
0.35893617021276597 0.4925438041751199 0.46625690051775903
0.35914893617021276 0.4894592543674045 0.4593212554686215
0.35936170212765955 0.4909623839765511 0.4439711241450477
0.3595744680851064 0.4885301640505075 0.44308329344183905
0.3597872340425532 0.4854621331227653 0.4452945906181722
0.36 0.4865924174801669 0.44004948005490657
0.3602127659574468 0.48705422569614076 0.44081903557592134
0.3604255319148936 0.48702303338767233 0.43744355378018773
0.3606382978723404 0.486077186126038 0.44439905121862694
0.3608510638297872 0.4865975896083859 0.4473195724577016
0.36106382978723406 0.4868791994605707 0.4526318603108538
0.36127659574468085 0.4832787348731386 0.4588769293046962
0.36148936170212764 0.48272486493899247 0.46165119687347334
0.3617021276595745 0.48383722562430204 0.46579814612490356
0.3619148936170213 0.4865850383554436 0.47243729703331006
0.3621276595744681 0.4880062769170858 0.46956746683092404
0.36234042553191487 0.4926958803927705 0.4687110565881772
0.3625531914893617 0.4907173497793574 0.4724048265819462
0.3627659574468085 0.48847544519475 0.4820356175944633
0.3629787234042553 0.48757385665784325 0.48503792420263275
0.36319148936170215 0.4902517358823042 0.48589932098350264
0.36340425531914894 0.4871990588817694 0.4932999203989376
0.36361702127659573 0.48255148714644974 0.5107361876651086
0.3638297872340425 0.48792128384550637 0.5190527014110031
0.36404255319148937 0.48475954149395706 0.5409257288992811
0.36425531914893616 0.4848745346403339 0.5591920079232963
0.36446808510638296 0.488203962486941 0.5665398253158458
0.3646808510638298 0.4838558620870839 0.5610419881251885
0.3648936170212766 0.4837796391132205 0.5447929474157289
0.3651063829787234 0.4874015146344806 0.5278876883344464
0.36531914893617023 0.48534002455637765 0.5027317630145951
0.365531914893617 0.48304264815955605 0.4901404732907099
0.3657446808510638 0.4815636954830134 0.4931023167205003
0.3659574468085106 0.48370371511063176 0.4961240934664643
0.36617021276595746 0.4870323934778641 0.504930230784227
0.36638297872340425 0.48823420544320423 0.5178459648598479
0.36659574468085104 0.4851001465559355 0.531634957513238
0.3668085106382979 0.4836582640021182 0.5431156169703568
0.3670212765957447 0.49061057651271744 0.552311719099618
0.3672340425531915 0.4881121123231547 0.5563633998807409
0.36744680851063827 0.48716762515134476 0.5584479582421004
0.3676595744680851 0.48852265698236436 0.5490818787423061
0.3678723404255319 0.49036415586072357 0.5315405323564563
0.3680851063829787 0.49286054500253257 0.5016267057907504
0.36829787234042555 0.49559076066199736 0.48321306086928256
0.36851063829787234 0.4969956166796974 0.4757204954415487
0.36872340425531913 0.4981853748109844 0.47065416488706874
0.368936170212766 0.5002298297274166 0.4665652550542045
0.36914893617021277 0.5050069478820273 0.46025914343492624
0.36936170212765956 0.509339288897373 0.4581310007534729
0.36957446808510636 0.5047518796619807 0.4591808625222186
0.3697872340425532 0.5010078983201822 0.4613760782308681
0.37 0.5026588114707677 0.4712813558394269
0.3702127659574468 0.5044240187689831 0.48021404548583874
0.37042553191489364 0.5036471248398529 0.4911521298379728
0.3706382978723404 0.5080844709536182 0.5040840508522847
0.3708510638297872 0.5049619200902072 0.5140598901353695
0.371063829787234 0.49975574010747437 0.5227329466237696
0.37127659574468086 0.49899864703747554 0.528187141210137
0.37148936170212765 0.49611223679064764 0.5352886759529083
0.37170212765957444 0.49677927386967247 0.535860856673776
0.3719148936170213 0.4960286933489639 0.5354724991968671
0.3721276595744681 0.496194108679965 0.5347077197554674
0.3723404255319149 0.49621387161043945 0.5280898876404494
0.3725531914893617 0.49721900017942244 0.5275072268526028
0.3727659574468085 0.4948661530050165 0.5205846200965135
0.3729787234042553 0.4953896357444777 0.5128540531964643
0.3731914893617021 0.5002382689000557 0.500942565973525
0.37340425531914895 0.5036845950590947 0.4719019120355627
0.37361702127659574 0.5043193570984699 0.4566676230905582
0.37382978723404253 0.504116550424969 0.4405594819338454
0.3740425531914894 0.5055456039454927 0.42704469748180485
0.37425531914893617 0.5065950170981925 0.4242521000534394
0.37446808510638296 0.5082165509387758 0.4358744300936586
0.37468085106382976 0.5070498695285705 0.442699927320493
0.3748936170212766 0.504968714105301 0.45138284807963824
0.3751063829787234 0.5008775744888648 0.45850288594623356
0.3753191489361702 0.4998433083286275 0.4684766847267737
0.37553191489361704 0.5007327796775769 0.4815511224570031
0.37574468085106383 0.5003801537582496 0.4996163555839744
0.3759574468085106 0.4963531486242132 0.5202297359056626
0.37617021276595747 0.49229587748552706 0.5346521978916147
0.37638297872340426 0.49268928924890126 0.5453589403639519
0.37659574468085105 0.492034977099322 0.5476306790425012
0.37680851063829784 0.49470488722363115 0.5542711699932229
0.3770212765957447 0.4902242635108483 0.5488466377170037
0.3772340425531915 0.4938935026868587 0.5530878536981372
0.3774468085106383 0.4932554474747601 0.5554469956033219
0.3776595744680851 0.4923890918864555 0.5563463322829257
0.3778723404255319 0.49000918323295917 0.5498421470456547
0.3780851063829787 0.4893722848804263 0.5386649720683696
0.37829787234042556 0.49542354063350824 0.518037845169502
0.37851063829787235 0.49411998236562066 0.48278171839805806
0.37872340425531914 0.4929278019648346 0.43808318928618784
0.37893617021276593 0.4948285390100654 0.4181254503112655
0.3791489361702128 0.5053983863893409 0.4081136488257845
0.3793617021276596 0.49861663335834544 0.39912066438690763
0.37957446808510636 0.4953941661690683 0.4006320499135601
0.3797872340425532 0.49221346579120184 0.4118787987215395
0.38 0.4904816851622947 0.4308049019530934
0.3802127659574468 0.49689350484952644 0.45123030805447933
0.3804255319148936 0.4983118220348319 0.4723034105015517
0.38063829787234044 0.4937500606718723 0.49310929290289074
0.38085106382978723 0.49528575155186444 0.5078447539238994
0.381063829787234 0.4922982297562086 0.5149032239459459
0.38127659574468087 0.49118253802853024 0.5221633679783766
0.38148936170212766 0.49109563951360724 0.5300882175913643
0.38170212765957445 0.4900021489760896 0.5319812413512185
0.3819148936170213 0.4941564847891288 0.5341561414804458
0.3821276595744681 0.48824935879485437 0.5359062042012701
0.3823404255319149 0.48968171047256265 0.5322024732020778
0.3825531914893617 0.48986515214280413 0.5204040976505713
0.3827659574468085 0.4880312652662433 0.5083942994981078
0.3829787234042553 0.48764957501115974 0.49517545704647176
0.3831914893617021 0.48804899467690477 0.47957572892974876
0.38340425531914896 0.4883984924731352 0.46898234312165676
0.38361702127659575 0.48875365467100534 0.46173431905599216
0.38382978723404254 0.4881756355454386 0.45886444844236085
0.38404255319148933 0.4899235079676227 0.468181291670063
0.3842553191489362 0.49424474375040367 0.4746209106447603
0.384468085106383 0.4886528250162753 0.47873413607852283
0.38468085106382977 0.4906341491485636 0.48740545526570733
0.3848936170212766 0.4875442621113803 0.499182514326173
0.3851063829787234 0.48412310698583294 0.5126792456024658
0.3853191489361702 0.48412310698583294 0.5234070311290998
0.38553191489361704 0.4876549130524002 0.5317866982067521
0.38574468085106384 0.4782979479789424 0.5347759986654806
0.38595744680851063 0.48760640665696603 0.5292793565151905
0.3861702127659574 0.48388715455470344 0.5289882764001754
0.38638297872340427 0.4819807447597173 0.5273011311562572
0.38659574468085106 0.48385349390416205 0.5207534345676621
0.38680851063829785 0.48376260154699335 0.50700776091024
0.3870212765957447 0.4859637125944826 0.4976881874357137
0.3872340425531915 0.48907524813802306 0.49284951981507913
0.3874468085106383 0.4909623839765511 0.4870949694135272
0.3876595744680851 0.49274426414377587 0.4949865869621624
0.3878723404255319 0.48920217363252055 0.5050932984823949
0.3880851063829787 0.49442167651416624 0.5190676015107489
0.3882978723404255 0.4916685508746985 0.5245590531497122
0.38851063829787236 0.49174435163766966 0.5233980816737379
0.38872340425531915 0.4948417359784538 0.5086643213524277
0.38893617021276594 0.5001499873821836 0.48521440508083097
0.3891489361702128 0.5026868588177822 0.45686057876208164
0.3893617021276596 0.5034641079935515 0.44428618740752374
0.3895744680851064 0.5081071334061884 0.443976092045185
0.38978723404255317 0.49792923163233727 0.45916657549090406
0.39 0.5017098192476794 0.4741981410863356
0.3902127659574468 0.5006459549989514 0.48678276760765316
0.3904255319148936 0.4993315371889696 0.49810066229653527
0.39063829787234045 0.5022048881645165 0.5076113514590094
0.39085106382978724 0.5032657036045698 0.5110820201653905
0.39106382978723403 0.5043365917303219 0.513498294976017
0.3912765957446808 0.5038516096244025 0.5191473036605222
0.39148936170212767 0.5045645816697845 0.5175715212339292
0.39170212765957446 0.5092566110777428 0.5162884057332877
0.39191489361702125 0.5025689086521673 0.5141754333277836
0.3921276595744681 0.5017098192476794 0.5145641644620325
0.3923404255319149 0.5024131067253746 0.5244154042993594
0.3925531914893617 0.5022520159138708 0.537103379150724
0.39276595744680853 0.5048259392206105 0.543530086177041
0.3929787234042553 0.5033851675374234 0.5441411109022788
0.3931914893617021 0.5025281695143079 0.5389711084657955
0.3934042553191489 0.4970571577790812 0.5331688658092245
0.39361702127659576 0.5035238748886609 0.5351158626301327
0.39382978723404255 0.5016477041546211 0.5376174236088523
0.39404255319148934 0.49977153342058145 0.540118984587572
0.3942553191489362 0.4978953626865412 0.5426205455662924
0.394468085106383 0.4960191919525015 0.5451221065450119
0.3946808510638298 0.49446341621395723 0.5466536394723986
0.39489361702127657 0.491919945825595 0.5466536394723986
0.3951063829787234 0.48998534440644836 0.5514834275522396
0.3953191489361702 0.49212865575018444 0.5494688962311686
0.395531914893617 0.4920896006012946 0.5385351913724229
0.39574468085106385 0.4975813362664696 0.5114946365322005
0.39595744680851064 0.49185840481492354 0.4917011821408048
0.39617021276595743 0.4915485426648147 0.4759162348121629
0.3963829787234043 0.494203743461553 0.4656056723999037
0.39659574468085107 0.4961576443829094 0.4593149355938519
0.39680851063829786 0.4959596634313287 0.4487693870888165
0.39702127659574465 0.4948567287933758 0.4344184100828709
0.3972340425531915 0.4970478770310356 0.4146980759439325
0.3974468085106383 0.4978016609672691 0.405034611629196
0.3976595744680851 0.496134255307407 0.3998373480877652
0.39787234042553193 0.5011142098335143 0.4166760910750756
0.3980851063829787 0.4972818339502804 0.43371660580011623
0.3982978723404255 0.49503259346875705 0.4406472122659323
0.3985106382978723 0.49671717359236267 0.4466732599075228
0.39872340425531916 0.49590975826612055 0.44608074019088845
0.39893617021276595 0.4910974074176042 0.4403183544604802
0.39914893617021274 0.48814052717137957 0.43519828721061254
0.3993617021276596 0.49022005241790656 0.4334407712669391
0.3995744680851064 0.4849837275128529 0.4356911174275915
0.3997872340425532 0.48419969489795095 0.4450995088064161
0.4 0.48777478679482855 0.45819082978181747
0.4002127659574468 0.4879726890106423 0.470590993643399
0.4004255319148936 0.4838959598568862 0.48180497860804966
0.4006382978723404 0.48217593272023973 0.4938451685645741
0.40085106382978725 0.48644081169086495 0.5059968902483643
0.40106382978723404 0.48389566945912155 0.5199559657948811
0.40127659574468083 0.4811919882755251 0.5261358085002443
0.4014893617021277 0.48002721380073954 0.5313772936367797
0.40170212765957447 0.47987038544708027 0.5418864040605305
0.40191489361702126 0.4795053387607962 0.5506438695146808
0.40212765957446805 0.4807984777679941 0.5493947396276657
0.4023404255319149 0.4787950803193791 0.556597411799757
0.4025531914893617 0.48753502692631473 0.5524763778111131
0.4027659574468085 0.48458745504708245 0.555959687112175
0.40297872340425533 0.48240888096762896 0.5625613798802365
0.4031914893617021 0.4829177215206754 0.5575021086588166
0.4034042553191489 0.4836878852424312 0.5416306410224504
0.40361702127659577 0.48439512984481675 0.5235959036616187
0.40382978723404256 0.48510235036081695 0.5056036527963602
0.40404255319148935 0.48580194873462407 0.5010562633666141
0.40425531914893614 0.48650154710843113 0.496508873936868
0.404468085106383 0.4872011454822384 0.4919614845071207
0.4046808510638298 0.48790074385604554 0.48741409507737454
0.4048936170212766 0.4886003422298526 0.4828667056476284
0.4051063829787234 0.4894787084952277 0.47856853589933623
0.4053191489361702 0.4906071490764964 0.4746189938648959
0.405531914893617 0.49553238686790013 0.4710906702690299
0.4057446808510638 0.49777736003787837 0.4750750202314574
0.40595744680851065 0.4958264465278931 0.4860001358873747
0.40617021276595744 0.4938755330179084 0.4969252515432891
0.40638297872340423 0.49192461950792365 0.5078503671992035
0.4065957446808511 0.4899737059979384 0.5187754828551208
0.40680851063829787 0.48930156278666037 0.5247682452606682
0.40702127659574466 0.4898820942210077 0.525929308129363
0.4072340425531915 0.4905810468082577 0.5320928325183365
0.4074468085106383 0.4905317311674481 0.5432273019560206
0.4076595744680851 0.490293667764876 0.5494840305351427
0.4078723404255319 0.4910664275716793 0.5418852257682433
0.40808510638297874 0.49183918737848287 0.5342864210013418
0.4082978723404255 0.4926119471852862 0.5266876162344424
0.4085106382978723 0.4933847069920896 0.5190888114675429
0.40872340425531917 0.4941574667988931 0.5114900067006415
0.40893617021276596 0.49493022660569647 0.503891201933742
0.40914893617021275 0.4957029864124998 0.49629239716684265
0.40936170212765954 0.495847581827064 0.48615570729339735
0.4095744680851064 0.495847581827064 0.475434828704971
0.4097872340425532 0.495847581827064 0.4613448165759286
0.41 0.49848557060611615 0.4402541567098011
0.4102127659574468 0.49877870053737183 0.4356868578801353
0.4104255319148936 0.49877870053737183 0.4306672046166283
0.4106382978723404 0.5009265696458406 0.4445005120402201
0.41085106382978726 0.5043732258361684 0.45225548846845764
0.41106382978723405 0.4988056176354124 0.4586931610651249
0.41127659574468084 0.49877870053737183 0.46482434854219257
0.41148936170212763 0.5006939202273964 0.4684516144140108
0.4117021276595745 0.5065950170981925 0.4721687786014135
0.41191489361702127 0.5056110885872672 0.470458330886042
0.41212765957446806 0.5071200016497227 0.47673699360513894
0.4123404255319149 0.5033026105298666 0.4867328887189357
0.4125531914893617 0.5017098192476794 0.4969000201846133
0.4127659574468085 0.498751863063507 0.5057253274235491
0.4129787234042553 0.497848700944618 0.5095261358085001
0.41319148936170214 0.49844424243597535 0.5078538453015177
0.41340425531914893 0.49864968842910734 0.5000164639691802
0.4136170212765957 0.5027823619709912 0.49808817042689657
0.41382978723404257 0.4986541245110641 0.4906922304467459
0.41404255319148936 0.49747385154828005 0.4900924846504899
0.41425531914893615 0.4994463917567629 0.4969716049510714
0.414468085106383 0.5004647007186273 0.5011736613297801
0.4146808510638298 0.5039473866357312 0.5033171227267567
0.4148936170212766 0.4999684305664525 0.5027293969095779
0.4151063829787234 0.49674379066333063 0.49226981724606905
0.4153191489361702 0.49542815415671854 0.4823738666986901
0.415531914893617 0.4928721644184015 0.4700155095182015
0.4157446808510638 0.4909623839765511 0.45986919369504453
0.41595744680851066 0.4903756816904565 0.45500828488484174
0.41617021276595745 0.4920353302788812 0.463988902942589
0.41638297872340424 0.4943918427309583 0.4741526425579981
0.4165957446808511 0.49159261887668426 0.4910574456362596
0.4168085106382979 0.4909623839765511 0.5160471208276264
0.41702127659574467 0.49182103930026133 0.52456684769818
0.41723404255319146 0.4894129391350009 0.5276852533417944
0.4174468085106383 0.4937057452893148 0.525271423368668
0.4176595744680851 0.49037313983052727 0.5200872243774944
0.4178723404255319 0.49425552667264294 0.5049549755400099
0.41808510638297874 0.49327700704519006 0.4954347417910308
0.41829787234042554 0.4972316122217676 0.4820881528628279
0.41851063829787233 0.49760187273016787 0.4731758834776031
0.4187234042553191 0.4961060708903192 0.478147036199381
0.41893617021276597 0.49499751342377984 0.4861654275284122
0.41914893617021276 0.4977706596583102 0.49768798950108645
0.41936170212765955 0.4975729226013957 0.5101600678297928
0.4195744680851064 0.49511207719437295 0.5056107109811189
0.4197872340425532 0.49216082161815145 0.4959775326144504
0.42 0.4914717367778227 0.48336375798991776
0.42021276595744683 0.48937552883199004 0.47536090895911703
0.4204255319148936 0.49267673653334576 0.47744969212954197
0.4206382978723404 0.4893565018315031 0.4873348712759288
0.4208510638297872 0.4870824138246137 0.5154024672933523
0.42106382978723406 0.49196449961571276 0.5199514293697838
0.42127659574468085 0.486077186126038 0.5313703842264662
0.42148936170212764 0.4846775439331342 0.5377284490169751
0.4217021276595745 0.48295441643593745 0.5451016469629175
0.4219148936170213 0.48362345754806824 0.5536042129902511
0.4221276595744681 0.482519256286557 0.5615121699594962
0.42234042553191486 0.4806537176571475 0.5647786223526229
0.4225531914893617 0.48190857352626976 0.5626769540730769
0.4227659574468085 0.4831409270204604 0.553539180020547
0.4229787234042553 0.4876884516049779 0.5424163470603797
0.42319148936170214 0.4911638366576838 0.5247860874034374
0.42340425531914894 0.49252946666208225 0.5144070899108275
0.42361702127659573 0.49153978633830747 0.5075054504669041
0.4238297872340426 0.4867306222509377 0.5046347087234937
0.42404255319148937 0.4862661989768218 0.5076040319844789
0.42425531914893616 0.48697762599045735 0.5157526151537511
0.42446808510638295 0.4924825979147921 0.5266781400026994
0.4246808510638298 0.48544774401654356 0.5371227953133985
0.4248936170212766 0.48782821958983164 0.5424874832274247
0.4251063829787234 0.48843460982868303 0.5371162378885898
0.42531914893617023 0.48917813165187535 0.5217747787117553
0.425531914893617 0.49387170727249885 0.49444440182527993
0.4257446808510638 0.4878924871617301 0.46784097843029343
0.4259574468085106 0.4833553277287178 0.4445522672324361
0.42617021276595746 0.4849775869445445 0.4326429714778479
0.42638297872340425 0.4827651592344199 0.4252359713385429
0.42659574468085104 0.4815114982276147 0.44391640690095585
0.4268085106382979 0.4808272562781204 0.4708785474624961
0.4270212765957447 0.4809675581140113 0.4973837491557999
0.4272340425531915 0.48216902784562765 0.5150715917256706
0.4274468085106383 0.4871946978326101 0.5290887847686715
0.4276595744680851 0.48660764431281356 0.5305744249674302
0.4278723404255319 0.4888674189107494 0.5272537339959432
0.4280851063829787 0.49104532725032146 0.5143930539438718
0.42829787234042555 0.4934223458191885 0.49963882364814743
0.42851063829787234 0.4967442778966731 0.47831873775360645
0.42872340425531913 0.4945699855244707 0.4560516013095255
0.428936170212766 0.4972405065205948 0.43684916819009995
0.42914893617021277 0.4978016609672691 0.4238440888138261
0.42936170212765956 0.4995237060771846 0.412347290385936
0.42957446808510635 0.502013168753504 0.4047130478280135
0.4297872340425532 0.501984139339536 0.403028822667318
0.43 0.5090635398353421 0.4054800628632056
0.4302127659574468 0.5057682411610127 0.41542980981280586
0.43042553191489363 0.5045385925043958 0.4307857969225893
0.4306382978723404 0.503193685530599 0.45254950660284504
0.4308510638297872 0.5020770153735027 0.46912611849358193
0.43106382978723407 0.50220564278991 0.4878387788550944
0.43127659574468086 0.501133194722061 0.48740979962795483
0.43148936170212765 0.5000607466542121 0.48698082040081525
0.43170212765957444 0.4989882985863631 0.4865518411736756
0.4319148936170213 0.4979158505185139 0.4861228619465359
0.4321276595744681 0.4961360192824482 0.4877428278108591
0.4323404255319149 0.494174366434704 0.49137769605096304
0.4325531914893617 0.49807992227162023 0.501707735911097
0.4327659574468085 0.49892211159539873 0.49978257794356074
0.4329787234042553 0.49771274683188155 0.4917171382081848
0.4331914893617021 0.496956829166696 0.4898273440452209
0.43340425531914895 0.49620091150151024 0.48793754988225646
0.43361702127659574 0.4978173828234097 0.4898682271194917
0.43382978723404253 0.5015159714656181 0.4951519251797893
0.4340425531914894 0.4987026206394176 0.5053622746365192
0.43425531914893617 0.4967750695339195 0.5105527272418499
0.43446808510638296 0.5004172749815978 0.5073464574632263
0.4346808510638298 0.5033837598998089 0.5054191004248645
0.4348936170212766 0.5027745000129415 0.5071114889994961
0.4351063829787234 0.5021652401260741 0.5088038775741277
0.4353191489361702 0.5015559802392068 0.5104962661487594
0.43553191489361703 0.5009467203523392 0.5121886547233915
0.4357446808510638 0.5003374604654718 0.5138810432980231
0.4359574468085106 0.49972820057860445 0.5155734318726548
0.43617021276595747 0.4991189406917369 0.5172658204472869
0.43638297872340426 0.4985096808048695 0.5189582090219185
0.43659574468085105 0.49790042091800213 0.5206505975965502
0.43680851063829784 0.49729116103113474 0.5223429861711818
0.4370212765957447 0.4966819011442672 0.5240353747458139
0.4372340425531915 0.4960726412573998 0.5257277633204455
0.4374468085106383 0.49546338137053236 0.5274201518950772
0.4376595744680851 0.49482333780583276 0.5289725183082945
0.4378723404255319 0.49307191124176225 0.5254696651801535
0.4380851063829787 0.49132048467769174 0.5219668120520125
0.43829787234042555 0.4902527698922597 0.513444855722527
0.43851063829787235 0.491453715755589 0.5046296899820407
0.43872340425531914 0.49278178439157766 0.5026868588177822
0.43893617021276593 0.5006965202611352 0.48907175881511883
0.4391489361702128 0.48979265754495427 0.4863798216809114
0.43936170212765957 0.48759001454702205 0.479994323345812
0.43957446808510636 0.486077186126038 0.4789335230686856
0.4397872340425532 0.4870608858944704 0.4782608695652173
0.44 0.49079206702968947 0.4769230479202096
0.4402127659574468 0.4883431847176104 0.4759014106548029
0.4404255319148936 0.4858082628313255 0.47489055787423207
0.44063829787234043 0.486077186126038 0.47182410095402194
0.4408510638297872 0.4889052899647514 0.469536190015357
