0 0.44699560332193444 0.44894968246213973
0.0003558449998308788 0.44992672203224227 0.4509037616023448
0.0005621190002784715 0.45188080117244755 0.4528578407425501
0.0007609680005771224 0.44992672203224227 0.4528578407425501
0.000978890000624233 0.44992672203224227 0.4538348803126526
0.0011809790003098897 0.4528578407425501 0.45676599902296044
0.001374846000544494 0.4538348803126526 0.46262823644357587
0.0015766010001243558 0.4479726428920372 0.46165119687347334
0.0017719500001476263 0.44992672203224227 0.46165119687347334
0.0019669829998747446 0.45188080117244755 0.46165119687347334
0.0021610170006169938 0.45188080117244755 0.4606741573033708
0.0023486059999413555 0.44992672203224227 0.4636052760136786
0.0025363250006193994 0.44992672203224227 0.46262823644357587
0.0027233770006205305 0.45188080117244755 0.4655593551538837
0.0029110780005794368 0.4509037616023448 0.46946751343429405
0.0030980930005171103 0.45188080117244755 0.4655593551538837
0.0032853860002433066 0.4528578407425501 0.47239863214460187
0.0034747340005196747 0.4538348803126526 0.4704445530043966
0.0036615830003938754 0.4528578407425501 0.4763067904250122
0.003848524000204634 0.4538348803126526 0.47435271128480694
0.004035908999867388 0.45188080117244755 0.47728382999511476
0.004222425000079966 0.4509037616023448 0.47728382999511476
0.004446605999874009 0.4538348803126526 0.47435271128480694
0.004635416999917652 0.44992672203224227 0.47239863214460187
0.004822951000278408 0.4528578407425501 0.46946751343429405
0.005010744000173872 0.4528578407425501 0.4704445530043966
0.005197684999984631 0.45188080117244755 0.46946751343429405
0.005383830000027956 0.44992672203224227 0.47142159257449934
0.0055707709998387145 0.4509037616023448 0.46946751343429405
0.0057568230004108045 0.44992672203224227 0.4684904738641915
0.005995448999783548 0.45481191988275516 0.47142159257449934
0.0061882230002083816 0.4528578407425501 0.46946751343429405
0.006375275000209513 0.44992672203224227 0.4704445530043966
0.006565790000422567 0.4528578407425501 0.46946751343429405
0.006752269000571687 0.4528578407425501 0.47239863214460187
0.006939247000445903 0.4528578407425501 0.46946751343429405
0.007126577000235557 0.4528578407425501 0.4665363947239862
0.007312703000025067 0.4528578407425501 0.4665363947239862
0.007498589000533684 0.4557889594528579 0.4655593551538837
0.007713269999840122 0.45676599902296044 0.46262823644357587
0.0079030260003492 0.4538348803126526 0.467513434294089
0.008105652000267582 0.4557889594528579 0.4655593551538837
0.00829377799982467 0.4538348803126526 0.46458231558378116
0.00847999699999491 0.45188080117244755 0.4636052760136786
0.008667809000144189 0.4528578407425501 0.46458231558378116
0.008888027000466536 0.4538348803126526 0.4606741573033708
0.009108670999921742 0.4557889594528579 0.4587200781631655
0.009297796999817365 0.4538348803126526 0.45676599902296044
0.009491368000453804 0.45676599902296044 0.45676599902296044
0.009685124000498035 0.45481191988275516 0.45676599902296044
0.009872861000076227 0.4528578407425501 0.4557889594528579
0.010074728000290634 0.45676599902296044 0.4557889594528579
0.01026170600016485 0.4557889594528579 0.4557889594528579
0.010449629000504501 0.457743038593063 0.45676599902296044
0.010635847999765247 0.45969711773326827 0.4557889594528579
0.01082191800014698 0.4606741573033708 0.457743038593063
0.011008045000380662 0.46262823644357587 0.4557889594528579
0.0111940599999798 0.45969711773326827 0.45188080117244755
0.011380908000319323 0.4606741573033708 0.44992672203224227
0.01156664600057411 0.457743038593063 0.44699560332193444
0.011752123999940522 0.45969711773326827 0.44699560332193444
0.01193838000017422 0.45969711773326827 0.4460185637518319
0.012123950999921362 0.457743038593063 0.4509037616023448
0.01231237299998611 0.45969711773326827 0.4430874450415241
0.012501814000643208 0.46165119687347334 0.44211040547142155
0.012692088999756379 0.45676599902296044 0.4430874450415241
0.012878900000032445 0.45969711773326827 0.4450415241817294
0.013065119000202685 0.45969711773326827 0.4430874450415241
0.013251004999801808 0.45969711773326827 0.4450415241817294
0.013437315999908606 0.4557889594528579 0.441133365901319
0.013623331999951915 0.46165119687347334 0.4450415241817294
0.013808921000418195 0.46165119687347334 0.441133365901319
0.01401554699987173 0.4557889594528579 0.4382022471910112
0.014202840000507422 0.4587200781631655 0.4401563263312165
0.014389521999873978 0.45481191988275516 0.43722520762090866
0.014576074000615336 0.45481191988275516 0.43624816805080613
0.014761682000425935 0.45481191988275516 0.43624816805080613
0.014950974999919708 0.45676599902296044 0.43624816805080613
0.015136805000111053 0.4538348803126526 0.43429408891060084
0.015322949000619701 0.45481191988275516 0.43429408891060084
0.015536519999841403 0.45676599902296044 0.4352711284807034
0.015723868000350194 0.4509037616023448 0.43624816805080613
0.015909791000012774 0.44992672203224227 0.4333170493404983
0.016095028000563616 0.4479726428920372 0.4323400097703958
0.01628093199997238 0.44699560332193444 0.43429408891060084
0.016471762000037415 0.4479726428920372 0.4333170493404983
0.01665986999978486 0.4479726428920372 0.4303859306301905
0.016846256000462745 0.44894968246213973 0.4333170493404983
0.017033566999998584 0.44406448461162684 0.43917928676111373
0.017219101000591763 0.4479726428920372 0.43429408891060084
0.01740602400059288 0.4450415241817294 0.4352711284807034
0.017596613000023353 0.4460185637518319 0.43429408891060084
0.017784923999897728 0.4479726428920372 0.43722520762090866
0.01799119800034532 0.44406448461162684 0.4352711284807034
0.01817876899986004 0.4450415241817294 0.4401563263312165
0.01836498800003028 0.44406448461162684 0.44211040547142155
0.018551596000179416 0.4460185637518319 0.44699560332193444
0.01873875900037092 0.44406448461162684 0.44992672203224227
0.01892497800054116 0.4450415241817294 0.4538348803126526
0.019111401000373007 0.44699560332193444 0.4538348803126526
0.01929778600060672 0.4460185637518319 0.4528578407425501
0.019483931000650045 0.4450415241817294 0.4509037616023448
0.019670890999805124 0.4450415241817294 0.4557889594528579
0.019857127999785007 0.4450415241817294 0.45481191988275516
0.020043162000547454 0.44699560332193444 0.45676599902296044
0.020234251000147196 0.4460185637518319 0.46165119687347334
0.02042285900006391 0.4479726428920372 0.4655593551538837
0.020609725999747752 0.44992672203224227 0.4655593551538837
0.02079629699983343 0.45188080117244755 0.47142159257449934
0.02098333000049024 0.44699560332193444 0.46946751343429405
0.021170345999962592 0.44894968246213973 0.4684904738641915
0.02136391600015486 0.44894968246213973 0.467513434294089
0.021581578999757767 0.44992672203224227 0.4636052760136786
0.021792778999952134 0.44894968246213973 0.4704445530043966
0.022022738000487152 0.44992672203224227 0.4665363947239862
0.022217196999918087 0.4479726428920372 0.4704445530043966
0.02241271200000483 0.44894968246213973 0.46946751343429405
0.022607339000387583 0.44894968246213973 0.46946751343429405
0.02280896499996743 0.44699560332193444 0.4665363947239862
0.023003406000498217 0.45188080117244755 0.47142159257449934
0.023203217000627774 0.44699560332193444 0.46458231558378116
0.023403954000059457 0.45188080117244755 0.46165119687347334
0.023605264999787323 0.44406448461162684 0.467513434294089
0.02383126099994115 0.44894968246213973 0.46946751343429405
0.02408551600001374 0.44992672203224227 0.46946751343429405
0.024278050000248186 0.4479726428920372 0.47435271128480694
0.02446686100029183 0.4460185637518319 0.47435271128480694
0.024654005999764195 0.44992672203224227 0.47239863214460187
0.024850075999893306 0.44992672203224227 0.4753297508549097
0.02504374000000098 0.45188080117244755 0.4763067904250122
0.02524094000000332 0.44992672203224227 0.47728382999511476
0.02543421400059742 0.44894968246213973 0.4763067904250122
0.025657432000116387 0.44894968246213973 0.47435271128480694
0.02597916700051428 0.4509037616023448 0.47728382999511476
0.026195940999969025 0.44699560332193444 0.47142159257449934
0.026410733999910008 0.45188080117244755 0.47142159257449934
0.026609971000652877 0.4538348803126526 0.47239863214460187
0.026807560000634112 0.45188080117244755 0.4684904738641915
0.027011279000362265 0.44992672203224227 0.46946751343429405
0.027204109000194876 0.4538348803126526 0.4684904738641915
0.027398402000471833 0.45481191988275516 0.46946751343429405
0.027599435000411177 0.4557889594528579 0.4655593551538837
0.027812190000076953 0.45969711773326827 0.45969711773326827
0.028028687000187347 0.45481191988275516 0.457743038593063
0.02824286800023401 0.4587200781631655 0.45676599902296044
0.028473271000621025 0.45676599902296044 0.46165119687347334
0.02875302600023133 0.45481191988275516 0.46165119687347334
0.028999113999816473 0.45676599902296044 0.46165119687347334
0.02920016600000963 0.4557889594528579 0.45676599902296044
0.029411088000415475 0.4538348803126526 0.45676599902296044
0.029620658000567346 0.45676599902296044 0.4538348803126526
0.029813322000336484 0.45676599902296044 0.45676599902296044
0.03007652100041014 0.4538348803126526 0.45676599902296044
0.03031001599993033 0.45676599902296044 0.45676599902296044
0.03051210500052548 0.4557889594528579 0.4528578407425501
0.03072467600031814 0.457743038593063 0.4606741573033708
0.03094728300038696 0.45676599902296044 0.44894968246213973
0.03115624200017919 0.45676599902296044 0.4460185637518319
0.03136246099984419 0.457743038593063 0.4450415241817294
0.03157980900050461 0.45676599902296044 0.441133365901319
0.03178504600055021 0.4606741573033708 0.441133365901319
0.03198582000004535 0.45481191988275516 0.441133365901319
0.03221311200013588 0.45481191988275516 0.4401563263312165
0.03245034900010069 0.45676599902296044 0.4401563263312165
0.03269086300042545 0.45676599902296044 0.4382022471910112
0.032905877999837685 0.457743038593063 0.43722520762090866
0.03311205899990455 0.4528578407425501 0.43624816805080613
0.0333301480004593 0.45481191988275516 0.4401563263312165
0.03355023699987214 0.45481191988275516 0.4382022471910112
0.03382773200064548 0.45481191988275516 0.4382022471910112
0.034061913000186905 0.45969711773326827 0.4323400097703958
0.034264482999788015 0.4538348803126526 0.4333170493404983
0.03446227600034035 0.45481191988275516 0.431362970200293
0.03465808700002526 0.4509037616023448 0.4323400097703958
0.03485054700013279 0.4528578407425501 0.4333170493404983
0.03506232100062334 0.4538348803126526 0.4333170493404983
0.03525828000056208 0.4509037616023448 0.42940889106008795
0.03544892500030983 0.4557889594528579 0.431362970200293
0.035639421999803744 0.45676599902296044 0.4303859306301905
0.03583080699991115 0.4606741573033708 0.431362970200293
0.03602341500027251 0.457743038593063 0.43429408891060084
0.036213762999977916 0.4528578407425501 0.43624816805080613
0.03644011100004718 0.45481191988275516 0.43429408891060084
0.036633608000556706 0.45188080117244755 0.43624816805080613
0.03682449300049484 0.4538348803126526 0.43722520762090866
0.037014768000517506 0.45481191988275516 0.43722520762090866
0.03720476400030748 0.45481191988275516 0.43917928676111373
0.037396650000118825 0.44992672203224227 0.441133365901319
0.03759423900010006 0.4528578407425501 0.44211040547142155
0.03778664299989032 0.45188080117244755 0.4401563263312165
0.03801112000019202 0.4528578407425501 0.43917928676111373
0.038202208999791765 0.4509037616023448 0.4382022471910112
0.03839276200051245 0.44992672203224227 0.441133365901319
0.038587777000429924 0.4509037616023448 0.4382022471910112
0.03878573600013624 0.44894968246213973 0.441133365901319
0.03898325099999056 0.44894968246213973 0.4460185637518319
0.0391739510005209 0.4460185637518319 0.441133365901319
0.03936285500003578 0.44699560332193444 0.44406448461162684
0.0395547970001644 0.44992672203224227 0.4450415241817294
0.039786959000593924 0.4528578407425501 0.44894968246213973
0.03997390000040468 0.44992672203224227 0.44894968246213973
0.04016260099979263 0.44992672203224227 0.45188080117244755
0.0403490230000898 0.45188080117244755 0.4528578407425501
0.04053533500064077 0.45676599902296044 0.45676599902296044
0.040721535000557196 0.4509037616023448 0.46165119687347334
0.04090855000049487 0.4528578407425501 0.45969711773326827
0.041094547000284365 0.45188080117244755 0.46262823644357587
0.04128002500056027 0.44894968246213973 0.467513434294089
0.041467576999821176 0.44992672203224227 0.47239863214460187
0.041654204000224127 0.4538348803126526 0.467513434294089
0.04184038600033091 0.44699560332193444 0.46946751343429405
0.042031234000205586 0.4479726428920372 0.4665363947239862
0.04222328600008041 0.44699560332193444 0.4655593551538837
0.0424385420001272 0.4479726428920372 0.4665363947239862
0.0426267419998112 0.44894968246213973 0.46458231558378116
0.04281409000031999 0.44894968246213973 0.4655593551538837
0.04300038300061715 0.44992672203224227 0.4655593551538837
0.04318786200019531 0.44699560332193444 0.467513434294089
0.043416690999947605 0.44894968246213973 0.4704445530043966
0.0436036500004775 0.4460185637518319 0.47239863214460187
0.043790462000288244 0.4528578407425501 0.4733756717147044
0.043976644000395027 0.44894968246213973 0.4733756717147044
0.04417938100050378 0.44894968246213973 0.47239863214460187
0.04437297000004037 0.4479726428920372 0.4753297508549097
0.04456752199985203 0.44699560332193444 0.47239863214460187
0.04476974099998188 0.44699560332193444 0.47435271128480694
0.04499327400026232 0.4509037616023448 0.4684904738641915
0.045218713999929605 0.4460185637518319 0.46946751343429405
0.045451228999809246 0.4509037616023448 0.47142159257449934
0.04566779900051188 0.4479726428920372 0.47239863214460187
0.04588057300043147 0.44894968246213973 0.4704445530043966
0.04613497599984839 0.44699560332193444 0.4753297508549097
0.046330676000252424 0.45188080117244755 0.47435271128480694
0.046537838999938685 0.44992672203224227 0.4763067904250122
0.04674966899983701 0.44992672203224227 0.47435271128480694
0.04693820200009213 0.45188080117244755 0.46946751343429405
0.047124329000325815 0.44992672203224227 0.47239863214460187
0.04731019600058062 0.4538348803126526 0.46946751343429405
0.047496266000052856 0.4538348803126526 0.47239863214460187
0.04768170799979998 0.45481191988275516 0.467513434294089
0.04792550000001938 0.4557889594528579 0.4655593551538837
0.04811407000033796 0.45676599902296044 0.46946751343429405
0.0483002890005082 0.4528578407425501 0.47142159257449934
0.04848673000014969 0.4528578407425501 0.46946751343429405
0.04867304199979117 0.4528578407425501 0.4665363947239862
0.048860224000236485 0.45188080117244755 0.46165119687347334
0.04904729400004726 0.4528578407425501 0.4636052760136786
0.049238032000175735 0.45188080117244755 0.4606741573033708
0.0494258799999443 0.4538348803126526 0.46165119687347334
0.04961200700017798 0.4528578407425501 0.45969711773326827
0.04979780000030587 0.4538348803126526 0.46165119687347334
0.05000423999990744 0.4538348803126526 0.457743038593063
0.0501917740002682 0.4509037616023448 0.45676599902296044
0.05037799300043844 0.45188080117244755 0.45676599902296044
0.05056452700046066 0.45188080117244755 0.4538348803126526
0.05075659700014512 0.4538348803126526 0.45188080117244755
0.050944335000167484 0.4528578407425501 0.45188080117244755
0.05113125700063392 0.4538348803126526 0.44894968246213973
0.05131727299976774 0.4538348803126526 0.44406448461162684
0.051504232000297634 0.45481191988275516 0.4450415241817294
0.05169135899996036 0.45676599902296044 0.4450415241817294
0.051891836000322655 0.45481191988275516 0.4450415241817294
0.05207898099979502 0.457743038593063 0.441133365901319
0.05226649599990196 0.45676599902296044 0.441133365901319
0.052453789000537654 0.457743038593063 0.4382022471910112
0.05264104500020039 0.45676599902296044 0.43722520762090866
0.052828190000582254 0.45481191988275516 0.4382022471910112
0.053014687000541016 0.45481191988275516 0.43624816805080613
0.05320203500014031 0.45481191988275516 0.43624816805080613
0.05338992100041651 0.45481191988275516 0.43429408891060084
0.05357663999984652 0.45481191988275516 0.43722520762090866
0.05376332200012257 0.4528578407425501 0.43722520762090866
0.0539510220005468 0.4538348803126526 0.43429408891060084
0.054138833999786584 0.45676599902296044 0.43624816805080613
0.05432562700025301 0.457743038593063 0.43429408891060084
0.054511641999852145 0.457743038593063 0.4323400097703958
0.054698972000551294 0.45481191988275516 0.43429408891060084
0.05488545000025624 0.4538348803126526 0.4303859306301905
0.055073243000151706 0.45676599902296044 0.4333170493404983
0.0552782209997531 0.4557889594528579 0.4303859306301905
0.055466513999817835 0.45676599902296044 0.4303859306301905
0.05565230699994572 0.45676599902296044 0.43624816805080613
0.05583861800005252 0.45969711773326827 0.431362970200293
0.05602502200054005 0.45676599902296044 0.43429408891060084
0.05621137100024498 0.45481191988275516 0.441133365901319
0.056398127000647946 0.4528578407425501 0.4333170493404983
0.0565840119998029 0.4509037616023448 0.4333170493404983
0.05677043500054424 0.4528578407425501 0.43624816805080613
0.056956580000587564 0.4528578407425501 0.4333170493404983
0.05714257599993289 0.44992672203224227 0.4333170493404983
0.05732870300016657 0.44992672203224227 0.4352711284807034
0.05751481100014644 0.4538348803126526 0.43624816805080613
0.05770017800023197 0.4479726428920372 0.43917928676111373
0.05788567400031752 0.44699560332193444 0.44211040547142155
0.05810822600051324 0.4460185637518319 0.44211040547142155
0.0582945189999009 0.44699560332193444 0.4450415241817294
0.058483016000536736 0.45188080117244755 0.44211040547142155
0.058671920000051614 0.44699560332193444 0.44699560332193444
0.0588693420004347 0.4460185637518319 0.44894968246213973
0.05905800500022451 0.4460185637518319 0.4479726428920372
0.05924411300020438 0.4479726428920372 0.44992672203224227
0.0594300540005861 0.4460185637518319 0.4538348803126526
0.05961692100026994 0.4460185637518319 0.4528578407425501
0.05981308500031446 0.44894968246213973 0.45188080117244755
0.06000837700048578 0.4479726428920372 0.4538348803126526
0.060196170000381244 0.4509037616023448 0.4528578407425501
0.060475277000477945 0.44992672203224227 0.45676599902296044
0.060725365000507736 0.4509037616023448 0.457743038593063
0.06092221300059464 0.45188080117244755 0.45969711773326827
0.06111345000044821 0.44992672203224227 0.46165119687347334
0.06169105099979788 0.44992672203224227 0.46458231558378116
0.06193684299978486 0.44992672203224227 0.4655593551538837
0.06215422800050874 0.44894968246213973 0.4636052760136786
0.062354354000490275 0.45188080117244755 0.46458231558378116
0.06255309100015438 0.4509037616023448 0.467513434294089
0.06275490300049569 0.4509037616023448 0.4684904738641915
0.0629425289998835 0.4528578407425501 0.46946751343429405
0.06312978500045574 0.4538348803126526 0.47142159257449934
0.06337609500042163 0.4538348803126526 0.47435271128480694
0.06356570299976738 0.45188080117244755 0.4753297508549097
0.06375284800014924 0.45188080117244755 0.4763067904250122
0.06393906700031948 0.4509037616023448 0.4753297508549097
0.06412563800040516 0.4509037616023448 0.4753297508549097
0.06431139400046959 0.4528578407425501 0.4733756717147044
0.06450140900051338 0.45188080117244755 0.4704445530043966
0.06468827600019722 0.45188080117244755 0.46946751343429405
0.06487532800019835 0.45188080117244755 0.4704445530043966
0.0650616760003686 0.4479726428920372 0.47239863214460187
0.06524846899992554 0.44992672203224227 0.4684904738641915
0.06543539199992665 0.44992672203224227 0.4684904738641915
0.06562201799988543 0.44992672203224227 0.46946751343429405
0.06581103400003485 0.4538348803126526 0.4704445530043966
0.0660744730002989 0.44992672203224227 0.467513434294089
0.06627169200055505 0.4528578407425501 0.4782608695652173
0.06646835500032466 0.44992672203224227 0.47239863214460187
0.06672890600020764 0.44992672203224227 0.47435271128480694
0.06693266199999925 0.44699560332193444 0.4704445530043966
0.0671256400000857 0.4509037616023448 0.47239863214460187
0.06732526599989797 0.45188080117244755 0.4704445530043966
0.06752222500017524 0.4509037616023448 0.47142159257449934
0.06771183300043049 0.45481191988275516 0.47142159257449934
0.06790095900032611 0.45188080117244755 0.4665363947239862
0.06808801199986192 0.4509037616023448 0.4684904738641915
0.06827524900018034 0.4538348803126526 0.467513434294089
0.06846341199980088 0.4528578407425501 0.4665363947239862
0.06867592700018577 0.4528578407425501 0.4655593551538837
0.06886557200050447 0.45676599902296044 0.4665363947239862
0.06905243900018831 0.4528578407425501 0.46165119687347334
0.06923902800008364 0.4538348803126526 0.46165119687347334
0.06942530300057115 0.45481191988275516 0.457743038593063
0.0696113920002972 0.45481191988275516 0.45969711773326827
0.06979774000046746 0.4528578407425501 0.4538348803126526
0.07001616199977434 0.45481191988275516 0.45481191988275516
0.07020840000041062 0.45481191988275516 0.45188080117244755
0.07039432200053852 0.45481191988275516 0.44992672203224227
0.07058196700018016 0.45481191988275516 0.45188080117244755
0.07076829700054077 0.4587200781631655 0.4479726428920372
0.07095429400033026 0.46165119687347334 0.4450415241817294
0.07114140200064867 0.457743038593063 0.44699560332193444
0.07132791700041707 0.45676599902296044 0.44699560332193444
0.07152215400037676 0.4606741573033708 0.44406448461162684
0.07170900300025096 0.4606741573033708 0.4430874450415241
0.0718952770002943 0.4557889594528579 0.43917928676111373
0.07208151499980886 0.4557889594528579 0.44406448461162684
0.07226801100023295 0.457743038593063 0.43917928676111373
0.0724540450000859 0.4557889594528579 0.4382022471910112
0.07264085699989664 0.45969711773326827 0.43429408891060084
0.07283509399985633 0.457743038593063 0.4382022471910112
0.07302185000025929 0.4606741573033708 0.43722520762090866
0.07320930900004896 0.46458231558378116 0.4352711284807034
0.07339962100013508 0.457743038593063 0.43722520762090866
0.07359034000000975 0.4557889594528579 0.4401563263312165
0.07377698500022234 0.45969711773326827 0.4382022471910112
0.07396505500037165 0.45969711773326827 0.441133365901319
0.07415268200020364 0.457743038593063 0.4401563263312165
0.07433977100026823 0.45481191988275516 0.43722520762090866
0.07452643400029046 0.45676599902296044 0.43429408891060084
0.07471252300001652 0.4557889594528579 0.43624816805080613
0.07489796499976364 0.45676599902296044 0.431362970200293
0.07508398000027228 0.4557889594528579 0.431362970200293
0.07527053200010414 0.45676599902296044 0.4323400097703958
0.07545632500023203 0.45676599902296044 0.43429408891060084
0.07564376600021205 0.4557889594528579 0.4333170493404983
0.07583644799979083 0.4538348803126526 0.43722520762090866
0.0760242410005958 0.45188080117244755 0.43429408891060084
0.07621103400015272 0.4538348803126526 0.4352711284807034
0.0763976050002384 0.4538348803126526 0.4333170493404983
0.07658415700007026 0.44992672203224227 0.42940889106008795
0.07677795000017795 0.457743038593063 0.4333170493404983
0.07696459500039055 0.45188080117244755 0.42940889106008795
0.07715109099990514 0.4509037616023448 0.42940889106008795
0.0773375879998639 0.4509037616023448 0.4303859306301905
0.07752376999997068 0.4509037616023448 0.4382022471910112
0.07770948899997165 0.44992672203224227 0.4382022471910112
0.07797722499981319 0.4479726428920372 0.43722520762090866
0.07817307300047105 0.4450415241817294 0.43917928676111373
0.07836027299981652 0.44406448461162684 0.43722520762090866
0.07854714000040985 0.4479726428920372 0.43917928676111373
0.07873348900011479 0.44894968246213973 0.43917928676111373
0.07892004099994665 0.44894968246213973 0.441133365901319
0.07910624200030725 0.4460185637518319 0.4450415241817294
0.07929399800013925 0.4450415241817294 0.4450415241817294
0.07948114200007694 0.44699560332193444 0.44406448461162684
0.07966745400062791 0.44894968246213973 0.4460185637518319
0.07985348800048087 0.4479726428920372 0.4509037616023448
0.08003946600001655 0.45188080117244755 0.4528578407425501
0.08022522200008098 0.4509037616023448 0.4528578407425501
0.0804111630004627 0.44894968246213973 0.4557889594528579
0.08059838200006197 0.44699560332193444 0.457743038593063
0.08078460100023221 0.44894968246213973 0.4655593551538837
0.08097096799974679 0.4479726428920372 0.45969711773326827
0.08115683500000159 0.4479726428920372 0.46262823644357587
0.08134259100006602 0.44699560332193444 0.4636052760136786
0.08152929100015172 0.4460185637518319 0.46458231558378116
0.08171523200053343 0.44894968246213973 0.4655593551538837
0.0819097840003451 0.4460185637518319 0.47239863214460187
0.0820962440002404 0.44894968246213973 0.4655593551538837
0.0822814439998183 0.4479726428920372 0.4655593551538837
0.08246908900036942 0.44894968246213973 0.4684904738641915
0.08266219699999056 0.4479726428920372 0.467513434294089
0.08285486000022502 0.44699560332193444 0.46946751343429405
0.08304093100014143 0.44992672203224227 0.4684904738641915
0.08322809400033293 0.4528578407425501 0.46946751343429405
0.08341425800063007 0.4509037616023448 0.4704445530043966
0.08360155100035627 0.45188080117244755 0.47239863214460187
0.08378784400065342 0.4509037616023448 0.47142159257449934
0.08397411799978727 0.4509037616023448 0.47239863214460187
0.08416054100052861 0.4528578407425501 0.4733756717147044
0.08434681500057195 0.4528578407425501 0.47142159257449934
0.08453397799985396 0.4528578407425501 0.47239863214460187
0.08472128999983397 0.4528578407425501 0.47239863214460187
0.0849275270002181 0.4528578407425501 0.47239863214460187
0.08511806099977548 0.45188080117244755 0.4753297508549097
0.08531715000026452 0.45481191988275516 0.4763067904250122
0.08551447999980155 0.4528578407425501 0.4733756717147044
0.0857118089998039 0.4557889594528579 0.4782608695652173
0.08592854600010469 0.45188080117244755 0.4831460674157304
0.08612309799991635 0.4509037616023448 0.4763067904250122
0.08631798399983381 0.4509037616023448 0.47728382999511476
0.08651362799992057 0.45188080117244755 0.4753297508549097
0.0867047920000914 0.4528578407425501 0.4763067904250122
0.08689382500051579 0.45188080117244755 0.4763067904250122
0.0870850999999675 0.45188080117244755 0.47142159257449934
0.08728146700013895 0.44992672203224227 0.47728382999511476
0.08747755600052187 0.44894968246213973 0.467513434294089
0.08767458900001657 0.44894968246213973 0.46458231558378116
0.08787278900035744 0.4460185637518319 0.4587200781631655
0.0880748780000431 0.44894968246213973 0.45969711773326827
0.08826561600017158 0.44699560332193444 0.4557889594528579
0.08845937200021581 0.44992672203224227 0.4557889594528579
0.08865716400032397 0.4450415241817294 0.457743038593063
0.08885118000034709 0.44699560332193444 0.45676599902296044
0.0890645460003725 0.44894968246213973 0.45676599902296044
0.08929052399980719 0.4528578407425501 0.45481191988275516
0.08948420500018983 0.44992672203224227 0.45676599902296044
0.08967235000000073 0.45188080117244755 0.45676599902296044
0.08986092099985399 0.44992672203224227 0.45481191988275516
0.09006062099979317 0.45188080117244755 0.4528578407425501
0.09024887699979445 0.45188080117244755 0.4538348803126526
0.09043898500021896 0.44992672203224227 0.4538348803126526
0.09063250000053813 0.4479726428920372 0.45188080117244755
0.09082623700032855 0.44992672203224227 0.45188080117244755
0.09102014100062661 0.4509037616023448 0.44992672203224227
0.09121923000020615 0.4538348803126526 0.4528578407425501
0.09141542999986996 0.4528578407425501 0.44894968246213973
0.09161729700008436 0.45188080117244755 0.4450415241817294
0.09183734900034324 0.4528578407425501 0.4430874450415241
0.09204543800024112 0.45481191988275516 0.441133365901319
0.09225750800032984 0.4538348803126526 0.43624816805080613
0.09249163300046348 0.44992672203224227 0.4382022471910112
0.09271129599983396 0.45188080117244755 0.43722520762090866
0.0929207180006415 0.45188080117244755 0.43917928676111373
0.09311906699986139 0.4509037616023448 0.43722520762090866
0.09334011800001463 0.4528578407425501 0.43624816805080613
0.09354953999991267 0.4538348803126526 0.4382022471910112
0.0937692400002561 0.4528578407425501 0.43624816805080613
0.09408062400052586 0.45188080117244755 0.4382022471910112
0.09435332200064295 0.45188080117244755 0.431362970200293
0.09456205900005443 0.45676599902296044 0.42940889106008795
0.09477361100016424 0.45676599902296044 0.431362970200293
0.09498894100033795 0.45481191988275516 0.4303859306301905
0.09519097400061582 0.4538348803126526 0.4323400097703958
0.09539393400064 0.4557889594528579 0.4303859306301905
0.09559250399979646 0.45188080117244755 0.431362970200293
0.09579155600022204 0.457743038593063 0.4303859306301905
0.09599271900060558 0.4509037616023448 0.4284318514899854
0.09618932700050209 0.44894968246213973 0.4255007327796776
0.09639832300035778 0.44699560332193444 0.4284318514899854
0.09660350500053028 0.44992672203224227 0.42940889106008795
0.09681464900040737 0.44894968246213973 0.42940889106008795
0.09702803399977711 0.44992672203224227 0.42745481191988266
0.09722419700028695 0.44992672203224227 0.42940889106008795
0.09742937900045945 0.4509037616023448 0.431362970200293
0.09763724599997659 0.44992672203224227 0.431362970200293
0.09788394499992137 0.44992672203224227 0.4333170493404983
0.09815907000029256 0.4528578407425501 0.43722520762090866
0.09837463999974716 0.4509037616023448 0.44406448461162684
0.0986082469999019 0.4509037616023448 0.4450415241817294
0.0988318910003727 0.45188080117244755 0.4538348803126526
0.09908196100059286 0.45481191988275516 0.44992672203224227
0.09928680899975006 0.4528578407425501 0.44699560332193444
0.09950350899998739 0.45188080117244755 0.45188080117244755
0.09971080100058316 0.45188080117244755 0.4479726428920372
0.09990102000028855 0.457743038593063 0.4460185637518319
0.1000903690000996 0.4528578407425501 0.4450415241817294
0.10028040199995303 0.44992672203224227 0.44699560332193444
0.10047306600063166 0.44992672203224227 0.44406448461162684
0.10066304400061199 0.44992672203224227 0.4460185637518319
0.10085402200002136 0.44894968246213973 0.4430874450415241
0.10104294400025537 0.4460185637518319 0.44992672203224227
0.10123333000046841 0.44699560332193444 0.44992672203224227
0.1014284740003859 0.44894968246213973 0.4538348803126526
0.10163650800041069 0.4557889594528579 0.46165119687347334
0.10183217099984176 0.45188080117244755 0.45676599902296044
0.10204227800022636 0.4509037616023448 0.46262823644357587
0.10233442099979584 0.44894968246213973 0.4636052760136786
0.10255121400041389 0.44992672203224227 0.4655593551538837
0.10275393200026883 0.44992672203224227 0.467513434294089
0.10295552099978522 0.4509037616023448 0.4684904738641915
0.10317111000040313 0.4509037616023448 0.47239863214460187
0.10340523600007145 0.4509037616023448 0.47435271128480694
0.10361610200016003 0.44992672203224227 0.4782608695652173
0.10381532100018376 0.44992672203224227 0.4763067904250122
0.10401463200014405 0.44992672203224227 0.4763067904250122
0.10421329500059073 0.4528578407425501 0.47728382999511476
0.10441456999978982 0.45188080117244755 0.47728382999511476
0.10462186200038559 0.45676599902296044 0.4802149487054226
0.1048275069997544 0.4538348803126526 0.4802149487054226
0.10502768800051854 0.4528578407425501 0.4753297508549097
0.10532405300000391 0.45481191988275516 0.47923790913532005
0.10554558600051678 0.4528578407425501 0.47435271128480694
0.10574393500064616 0.45188080117244755 0.4704445530043966
0.10596274599993194 0.45188080117244755 0.4636052760136786
0.10616900100012572 0.45481191988275516 0.467513434294089
0.10637068300002284 0.44992672203224227 0.46458231558378116
0.10656271700008801 0.44992672203224227 0.46946751343429405
0.10675963900030183 0.45188080117244755 0.4684904738641915
0.10696241300047404 0.4606741573033708 0.467513434294089
0.1071880389999933 0.45188080117244755 0.467513434294089
0.10739786800058937 0.4538348803126526 0.46946751343429405
0.10759599399989384 0.4528578407425501 0.4684904738641915
0.10779560199989646 0.45676599902296044 0.467513434294089
0.10799152399977174 0.4538348803126526 0.4665363947239862
0.10818631700021797 0.4538348803126526 0.4665363947239862
0.10837848099981784 0.45676599902296044 0.46458231558378116
0.10857032900003105 0.4557889594528579 0.4665363947239862
0.10876973300037207 0.4587200781631655 0.46165119687347334
0.10905154300053255 0.45676599902296044 0.46165119687347334
0.10927127900049527 0.4557889594528579 0.4606741573033708
0.10946901700026501 0.4557889594528579 0.4587200781631655
0.10966729099982331 0.45676599902296044 0.45969711773326827
0.1099466929999835 0.45676599902296044 0.457743038593063
0.11019648500041512 0.4587200781631655 0.45481191988275516
0.11039646300014283 0.457743038593063 0.4538348803126526
0.11059116300020833 0.457743038593063 0.4528578407425501
0.11078388199985056 0.4606741573033708 0.4538348803126526
0.11099117499998101 0.4557889594528579 0.44894968246213973
0.111191931000576 0.45676599902296044 0.45676599902296044
0.11144029600018257 0.457743038593063 0.44699560332193444
0.11165695900035644 0.45481191988275516 0.44992672203224227
0.11186097400059225 0.4528578407425501 0.4460185637518319
0.1120756740001525 0.45481191988275516 0.4450415241817294
0.1123048370000106 0.457743038593063 0.4430874450415241
0.11252549900018494 0.4528578407425501 0.4430874450415241
0.11273014400012471 0.4538348803126526 0.4430874450415241
0.112933288000022 0.4528578407425501 0.441133365901319
0.11316965500009246 0.45676599902296044 0.4382022471910112
0.11336863300039113 0.45676599902296044 0.43917928676111373
0.11356266599977971 0.45676599902296044 0.4382022471910112
0.11375077400043665 0.4538348803126526 0.43429408891060084
0.11396038100065198 0.457743038593063 0.43429408891060084
0.1141514709997864 0.45676599902296044 0.43722520762090866
0.11433833800037974 0.4538348803126526 0.43429408891060084
0.11452470499989431 0.4538348803126526 0.4303859306301905
0.11471131200050877 0.4538348803126526 0.4303859306301905
0.1148974570005521 0.4528578407425501 0.4303859306301905
0.1150875459998133 0.4528578407425501 0.4303859306301905
0.11530517200026225 0.4538348803126526 0.431362970200293
0.1154933540001366 0.4528578407425501 0.4333170493404983
0.1156803880003281 0.4528578407425501 0.431362970200293
0.1158675510005196 0.45481191988275516 0.4352711284807034
0.1160547139998016 0.45188080117244755 0.43429408891060084
0.11624211900016235 0.45481191988275516 0.4303859306301905
0.11642981900058658 0.4509037616023448 0.431362970200293
0.11662259300010192 0.4509037616023448 0.431362970200293
0.11681749699982902 0.4528578407425501 0.431362970200293
0.11701382699993701 0.4538348803126526 0.4333170493404983
0.11720056400008616 0.4538348803126526 0.4333170493404983
0.11738661700019293 0.45481191988275516 0.43429408891060084
0.11757270599991898 0.4538348803126526 0.4352711284807034
0.11775957300051232 0.44894968246213973 0.441133365901319
0.11794753300000593 0.45188080117244755 0.44211040547142155
0.11813664000055724 0.44894968246213973 0.44211040547142155
0.1183254150000721 0.4450415241817294 0.44211040547142155
0.11851268900045397 0.44699560332193444 0.44406448461162684
0.1186994270001378 0.4460185637518319 0.4450415241817294
0.11889636800060543 0.44699560332193444 0.4460185637518319
0.11909893800020654 0.44894968246213973 0.44992672203224227
0.11930197200035764 0.4450415241817294 0.45188080117244755
0.11949876400012727 0.4450415241817294 0.45188080117244755
0.11969470500025636 0.4450415241817294 0.45188080117244755
0.1199343680000311 0.4460185637518319 0.4538348803126526
0.12016254900026979 0.44894968246213973 0.45188080117244755
0.12041210000006686 0.4479726428920372 0.45676599902296044
0.12062998500005051 0.44992672203224227 0.45676599902296044
0.12083101799998985 0.44699560332193444 0.4587200781631655
0.12104795899995224 0.44992672203224227 0.46165119687347334
0.1212456220000604 0.44894968246213973 0.45969711773326827
0.12143852600001992 0.44894968246213973 0.45969711773326827
0.12163965200033999 0.4479726428920372 0.4587200781631655
0.12183563000053255 0.44992672203224227 0.457743038593063
0.12205914500009385 0.4479726428920372 0.45969711773326827
0.12225971499992738 0.44992672203224227 0.4606741573033708
0.12245367500054272 0.44992672203224227 0.45969711773326827
0.1226475230005235 0.4538348803126526 0.46458231558378116
0.12284446400008164 0.4460185637518319 0.4655593551538837
0.12304153500008397 0.44894968246213973 0.46946751343429405
0.12324960500063753 0.4509037616023448 0.4684904738641915
0.12345113900028082 0.45188080117244755 0.47728382999511476
0.12364793100005045 0.44894968246213973 0.46946751343429405
0.1238355949999459 0.45188080117244755 0.4704445530043966
0.1240218510001796 0.4528578407425501 0.4704445530043966
0.1242289769998024 0.4479726428920372 0.4802149487054226
0.12441543600016303 0.44992672203224227 0.4733756717147044
0.12460191399986797 0.44992672203224227 0.4763067904250122
0.12479505900046206 0.44992672203224227 0.4753297508549097
0.12498264799978642 0.44992672203224227 0.4763067904250122
0.12516888600021048 0.44894968246213973 0.4811919882755251
0.125354697000148 0.45188080117244755 0.47728382999511476
0.12554097200063552 0.44992672203224227 0.47728382999511476
0.12572743100008665 0.44894968246213973 0.4782608695652173
0.12594492800053558 0.4528578407425501 0.4733756717147044
0.12613575800060062 0.4509037616023448 0.47435271128480694
0.1263220500004536 0.4528578407425501 0.47239863214460187
0.12651193600049737 0.45188080117244755 0.4763067904250122
0.12669832200026576 0.45676599902296044 0.4763067904250122
0.12688598500062653 0.45676599902296044 0.4753297508549097
0.12707181499990838 0.45676599902296044 0.4753297508549097
0.12725758899978246 0.45188080117244755 0.4733756717147044
0.12744369699976232 0.4528578407425501 0.47239863214460187
0.12762963800014404 0.45188080117244755 0.4733756717147044
0.1278153020002719 0.4528578407425501 0.46946751343429405
0.128030150000086 0.4528578407425501 0.46458231558378116
0.1282307760002368 0.4538348803126526 0.46262823644357587
0.12841803199989954 0.45188080117244755 0.4606741573033708
0.12860464000004868 0.45188080117244755 0.45969711773326827
0.12879074700049387 0.4538348803126526 0.4655593551538837
0.1289769109998815 0.4528578407425501 0.4606741573033708
0.12916268499975558 0.4528578407425501 0.4606741573033708
0.12934834899988346 0.45188080117244755 0.45969711773326827
0.12953475300037098 0.4538348803126526 0.4606741573033708
0.1297211380006047 0.44894968246213973 0.457743038593063
0.12992485700033285 0.44894968246213973 0.4538348803126526
0.13011229800031288 0.4528578407425501 0.4538348803126526
0.130299221000314 0.4528578407425501 0.45481191988275516
0.13048647600044205 0.4538348803126526 0.4528578407425501
0.13067282500014699 0.4538348803126526 0.44992672203224227
0.1308596740000212 0.45188080117244755 0.44992672203224227
0.1310457999998107 0.4557889594528579 0.4460185637518319
0.13123194499985402 0.4557889594528579 0.44699560332193444
0.13141847800034157 0.4528578407425501 0.4450415241817294
0.13160480799979268 0.4538348803126526 0.44406448461162684
0.13179106400002638 0.45481191988275516 0.44699560332193444
0.13197808000040823 0.45481191988275516 0.441133365901319
0.13216452100004972 0.4538348803126526 0.44406448461162684
0.13235048000024108 0.4538348803126526 0.4450415241817294
0.1325471620002645 0.4538348803126526 0.44406448461162684
0.13273499200022343 0.4538348803126526 0.441133365901319
0.13292274800005544 0.4528578407425501 0.441133365901319
0.13310896700022568 0.4557889594528579 0.44211040547142155
0.13329509300001519 0.4557889594528579 0.44211040547142155
0.1334807200000796 0.4538348803126526 0.4382022471910112
0.13366858700010198 0.4557889594528579 0.43722520762090866
0.13388317499993718 0.45481191988275516 0.43917928676111373
0.13415068900030747 0.4528578407425501 0.4401563263312165
0.1343770740004402 0.45676599902296044 0.43624816805080613
0.13460023700008605 0.4528578407425501 0.43917928676111373
0.1348174740005561 0.4528578407425501 0.43429408891060084
0.13502583999979834 0.4528578407425501 0.4323400097703958
0.13522168899999087 0.4538348803126526 0.4333170493404983
0.1354184809997605 0.45188080117244755 0.4303859306301905
0.1356179960002919 0.45188080117244755 0.4284318514899854
0.13585190000048897 0.4528578407425501 0.4264777723497801
0.136249836999923 0.44894968246213973 0.43429408891060084
0.13647525899978064 0.44894968246213973 0.4303859306301905
0.13672186599978886 0.4528578407425501 0.4333170493404983
0.1369411770001534 0.4528578407425501 0.431362970200293
0.1371485429999666 0.4538348803126526 0.4323400097703958
0.13739411300048232 0.4528578407425501 0.43429408891060084
0.13759457200012548 0.45676599902296044 0.43429408891060084
0.13779367999995884 0.45188080117244755 0.43917928676111373
0.13810819300033472 0.4538348803126526 0.4382022471910112
0.13831544799995754 0.44992672203224227 0.43917928676111373
0.1385152230004678 0.4528578407425501 0.44211040547142155
0.13871025600019493 0.44992672203224227 0.4430874450415241
0.13890777100004925 0.44992672203224227 0.44211040547142155
0.1391136930005814 0.44699560332193444 0.4450415241817294
0.13932548600041628 0.44894968246213973 0.4460185637518319
0.1395367229997646 0.44992672203224227 0.44699560332193444
0.13974044200040225 0.44992672203224227 0.45188080117244755
0.1399413449998974 0.44992672203224227 0.4479726428920372
0.1401486009999644 0.44894968246213973 0.4528578407425501
0.14039139299984527 0.44699560332193444 0.4509037616023448
0.14063211099983164 0.44699560332193444 0.45676599902296044
0.14086088500062033 0.44894968246213973 0.4557889594528579
0.1410577699998612 0.4479726428920372 0.457743038593063
0.1412626920000548 0.44699560332193444 0.45969711773326827
0.14150542900006258 0.44894968246213973 0.46165119687347334
0.14171999900008814 0.4479726428920372 0.46165119687347334
0.14194110600055865 0.44894968246213973 0.467513434294089
0.14212938099990424 0.4509037616023448 0.4665363947239862
0.14231558099982067 0.44894968246213973 0.4665363947239862
0.14250189300037164 0.44992672203224227 0.4655593551538837
0.14268876000005548 0.45188080117244755 0.467513434294089
0.14287549700020463 0.44992672203224227 0.4684904738641915
0.14307099400048173 0.4509037616023448 0.46946751343429405
0.1432651380000607 0.44992672203224227 0.46946751343429405
0.14345213500018872 0.45188080117244755 0.46946751343429405
0.1436391500001264 0.45188080117244755 0.4733756717147044
0.14382536900029663 0.4509037616023448 0.46946751343429405
0.1440123100001074 0.4538348803126526 0.4733756717147044
0.14419841800008726 0.4528578407425501 0.4753297508549097
0.14438491500004602 0.45188080117244755 0.4753297508549097
0.14457100399977207 0.4528578407425501 0.4753297508549097
0.14475670400042873 0.4528578407425501 0.4763067904250122
0.14494292300059897 0.4528578407425501 0.4763067904250122
0.14513343799990253 0.4509037616023448 0.4763067904250122
0.14532510200024262 0.4538348803126526 0.47239863214460187
0.1455350610003734 0.4528578407425501 0.47239863214460187
0.1457222240005649 0.457743038593063 0.4704445530043966
0.14592309100044076 0.45676599902296044 0.4733756717147044
0.1461108100002093 0.4538348803126526 0.4704445530043966
0.14629717700063338 0.4528578407425501 0.4704445530043966
0.1464839700001903 0.45481191988275516 0.4733756717147044
0.14667070700033946 0.4538348803126526 0.4753297508549097
0.14685709300010785 0.45481191988275516 0.47142159257449934
0.14704334900034155 0.45481191988275516 0.4704445530043966
0.14722906800034252 0.4528578407425501 0.4684904738641915
0.14741460100049153 0.45481191988275516 0.46946751343429405
0.1476010430005772 0.45481191988275516 0.467513434294089
0.14781318699988333 0.4528578407425501 0.4684904738641915
0.1479993500006458 0.4528578407425501 0.46946751343429405
0.1481856800000969 0.45481191988275516 0.47142159257449934
0.14837236200037296 0.45481191988275516 0.4704445530043966
0.14855908099980297 0.4557889594528579 0.46946751343429405
0.1487460039998041 0.45188080117244755 0.467513434294089
0.14893196299999545 0.4528578407425501 0.4655593551538837
0.14911777500037715 0.4528578407425501 0.4606741573033708
0.14930432700020901 0.45481191988275516 0.46262823644357587
0.14949143500052742 0.4538348803126526 0.45188080117244755
0.14969726500021352 0.4528578407425501 0.44699560332193444
0.14988607600025716 0.4528578407425501 0.44699560332193444
0.15009933200053638 0.45188080117244755 0.4450415241817294
0.1502863100004106 0.45481191988275516 0.4430874450415241
0.1504725660006443 0.45481191988275516 0.4430874450415241
0.15066556200054038 0.45481191988275516 0.44211040547142155
0.1508657439999297 0.4606741573033708 0.4450415241817294
0.15107279600033507 0.45676599902296044 0.44406448461162684
0.15126742200027365 0.45481191988275516 0.4430874450415241
0.15146010399985244 0.45676599902296044 0.44406448461162684
0.15165506300036213 0.45676599902296044 0.441133365901319
0.15185394800028007 0.45676599902296044 0.4430874450415241
0.15204879700013407 0.45481191988275516 0.441133365901319
0.15224440500060155 0.4557889594528579 0.43917928676111373
0.15243773400015925 0.45676599902296044 0.44211040547142155
0.1527454699998998 0.45481191988275516 0.43624816805080613
0.15298422500018205 0.45481191988275516 0.4352711284807034
0.15321359100016707 0.4538348803126526 0.43722520762090866
0.15340379100052814 0.45481191988275516 0.4382022471910112
0.15360154700010753 0.4528578407425501 0.4401563263312165
0.15380584000013187 0.4538348803126526 0.43917928676111373
0.15406363100009912 0.4528578407425501 0.43722520762090866
0.15427947900025174 0.4528578407425501 0.43722520762090866
0.1544787909997467 0.45188080117244755 0.43624816805080613
0.15467539800010854 0.45188080117244755 0.43624816805080613
0.15487065399975108 0.45188080117244755 0.4352711284807034
0.15506974300024012 0.44992672203224227 0.43429408891060084
0.1552736100002221 0.45188080117244755 0.431362970200293
0.15548210599990853 0.44992672203224227 0.4303859306301905
0.15568717699989065 0.44992672203224227 0.4303859306301905
0.1558833950002736 0.4460185637518319 0.42940889106008795
0.15607220699985191 0.4479726428920372 0.4284318514899854
0.15625972199995886 0.4450415241817294 0.4303859306301905
0.1564465890005522 0.44992672203224227 0.43429408891060084
0.15663347500048985 0.44699560332193444 0.43429408891060084
0.15682076800021605 0.44894968246213973 0.43722520762090866
0.15700933800053463 0.44894968246213973 0.44211040547142155
0.15719579800042993 0.44894968246213973 0.441133365901319
0.15738203500040981 0.44699560332193444 0.4401563263312165
0.1575684019999244 0.44699560332193444 0.441133365901319
0.15775464000034845 0.4450415241817294 0.441133365901319
0.157945748000202 0.4460185637518319 0.4430874450415241
0.15813380000054167 0.44211040547142155 0.4382022471910112
0.15832070400028897 0.44211040547142155 0.4401563263312165
0.15850779300035356 0.44406448461162684 0.441133365901319
0.15869417900012195 0.44406448461162684 0.43917928676111373
0.1588811749998058 0.4460185637518319 0.44211040547142155
0.15907837600025232 0.4460185637518319 0.4430874450415241
0.15928063100000145 0.44699560332193444 0.44406448461162684
0.1595107379998808 0.4460185637518319 0.44699560332193444
0.15971593799986294 0.44699560332193444 0.4460185637518319
0.15991550899980211 0.44992672203224227 0.4460185637518319
0.16011369100033335 0.44699560332193444 0.44992672203224227
0.16031637200012483 0.4479726428920372 0.44699560332193444
0.160531868000362 0.4460185637518319 0.4528578407425501
0.16075684600036766 0.44699560332193444 0.45481191988275516
0.16098385999976017 0.44699560332193444 0.45676599902296044
0.16129126200030441 0.45188080117244755 0.4587200781631655
0.16154990599989105 0.44992672203224227 0.46165119687347334
0.16176332800023374 0.44992672203224227 0.46165119687347334
0.1619810279999001 0.44992672203224227 0.46946751343429405
0.16218993100028456 0.4509037616023448 0.4636052760136786
0.1623874650003927 0.45188080117244755 0.4636052760136786
0.16262688700044237 0.4528578407425501 0.46458231558378116
0.16284803100006684 0.44992672203224227 0.4655593551538837
0.16303806500036444 0.4528578407425501 0.46946751343429405
0.1632256540005983 0.45188080117244755 0.4763067904250122
0.1634137990004092 0.4557889594528579 0.47142159257449934
0.16360053600055835 0.4509037616023448 0.4684904738641915
0.16378668100060167 0.45188080117244755 0.4684904738641915
0.16397263999988354 0.4509037616023448 0.47239863214460187
0.16415898900049797 0.44992672203224227 0.4704445530043966
0.16434659700007614 0.4528578407425501 0.47239863214460187
0.16453253800045786 0.45188080117244755 0.47239863214460187
0.16471866400024737 0.45188080117244755 0.47239863214460187
0.1649045499998465 0.45188080117244755 0.467513434294089
0.1650900280001224 0.45188080117244755 0.4684904738641915
0.1652760990000388 0.45188080117244755 0.467513434294089
0.1654631880001034 0.44992672203224227 0.47142159257449934
0.16564914799982944 0.4538348803126526 0.4704445530043966
0.1658353110005919 0.45188080117244755 0.4733756717147044
0.16602425200017024 0.44992672203224227 0.4733756717147044
0.16621067500000208 0.4528578407425501 0.4763067904250122
0.16639867100002448 0.4528578407425501 0.4782608695652173
0.16658750100032194 0.4528578407425501 0.4802149487054226
0.16677710900057718 0.4528578407425501 0.47923790913532005
0.1669710500000292 0.4528578407425501 0.4763067904250122
0.1671690100001797 0.45481191988275516 0.47728382999511476
0.16736237700024503 0.4557889594528579 0.47239863214460187
0.16757837300065148 0.45676599902296044 0.46946751343429405
0.1678309420003643 0.45188080117244755 0.4655593551538837
0.16808345600020402 0.45676599902296044 0.46262823644357587
0.16832395199980965 0.45676599902296044 0.46165119687347334
0.1685554850000699 0.45676599902296044 0.46165119687347334
0.168784776999928 0.46165119687347334 0.46165119687347334
0.16900892100056808 0.4587200781631655 0.4606741573033708
0.1692293800006155 0.45969711773326827 0.46165119687347334
0.16943113600063953 0.45676599902296044 0.46165119687347334
0.16963168799975392 0.45969711773326827 0.4606741573033708
0.16982601800009434 0.46165119687347334 0.4557889594528579
0.17008299500048452 0.45969711773326827 0.45188080117244755
0.1703079170001729 0.46165119687347334 0.4479726428920372
0.1705091909998373 0.4606741573033708 0.4450415241817294
0.1707093539998823 0.4606741573033708 0.44211040547142155
0.17090135099988402 0.46165119687347334 0.44406448461162684
0.17111823600043863 0.46165119687347334 0.4430874450415241
0.1713083619997633 0.4587200781631655 0.44406448461162684
0.17149541399976442 0.46165119687347334 0.4450415241817294
0.17168170700006158 0.4587200781631655 0.44406448461162684
0.17186818499976653 0.45969711773326827 0.4450415241817294
0.17205421900052897 0.46165119687347334 0.44406448461162684
0.17224279000038223 0.457743038593063 0.44406448461162684
0.1724586560003445 0.45676599902296044 0.44406448461162684
0.17264728300051502 0.4587200781631655 0.4450415241817294
0.1728348160004316 0.45969711773326827 0.44211040547142155
0.1730210719997558 0.457743038593063 0.441133365901319
0.17320799499975692 0.457743038593063 0.43917928676111373
0.17339419500058284 0.457743038593063 0.4382022471910112
0.17358058100035123 0.457743038593063 0.43917928676111373
0.17376735500056384 0.45676599902296044 0.4333170493404983
0.17395875900001556 0.45676599902296044 0.43429408891060084
0.1741473110005245 0.457743038593063 0.43429408891060084
0.1743348079999123 0.45676599902296044 0.4333170493404983
0.1745212679998076 0.45676599902296044 0.431362970200293
0.17470800499995676 0.4557889594528579 0.42940889106008795
0.17489440900044428 0.45676599902296044 0.4323400097703958
0.17508077599995886 0.45481191988275516 0.4303859306301905
0.17528012500042678 0.4557889594528579 0.4333170493404983
0.1754676210002799 0.4528578407425501 0.4323400097703958
0.1756607659999645 0.4528578407425501 0.42940889106008795
0.1758955209998021 0.45188080117244755 0.4264777723497801
0.17608398100037448 0.45188080117244755 0.4264777723497801
0.17627045900007943 0.45188080117244755 0.42940889106008795
0.17645712200010166 0.44992672203224227 0.4303859306301905
0.17664584100020875 0.45188080117244755 0.43624816805080613
0.1768330969998715 0.4479726428920372 0.4303859306301905
0.17702116800046497 0.4479726428920372 0.4382022471910112
0.1772078310004872 0.44894968246213973 0.441133365901319
0.17739358700055163 0.4479726428920372 0.441133365901319
0.17757978800000274 0.44699560332193444 0.44406448461162684
0.177765692000321 0.44699560332193444 0.44211040547142155
0.17795481800021662 0.4450415241817294 0.44211040547142155
0.1781452220002393 0.4450415241817294 0.4450415241817294
0.1783312190000288 0.44406448461162684 0.4450415241817294
0.17851784499998757 0.4450415241817294 0.44894968246213973
0.17870367500017892 0.4450415241817294 0.44699560332193444
0.178890042000603 0.4450415241817294 0.44894968246213973
0.17907811300028698 0.44406448461162684 0.44894968246213973
0.17927766499997233 0.4460185637518319 0.44992672203224227
0.1794639019999522 0.44406448461162684 0.44894968246213973
0.1796501030003128 0.44406448461162684 0.4509037616023448
0.17983609900056763 0.44406448461162684 0.4538348803126526
0.1800231890001669 0.4460185637518319 0.4538348803126526
0.18023616600021342 0.4450415241817294 0.45676599902296044
0.18042371800038381 0.4450415241817294 0.46165119687347334
0.18060962300023675 0.4460185637518319 0.46262823644357587
0.1807959160005339 0.4460185637518319 0.46946751343429405
0.18098219000057725 0.44699560332193444 0.4684904738641915
0.1811688719999438 0.44894968246213973 0.4684904738641915
0.1813555170001564 0.44894968246213973 0.4684904738641915
0.1815419020003901 0.44992672203224227 0.46946751343429405
0.1817281029998412 0.44699560332193444 0.47239863214460187
0.18192604400064738 0.4450415241817294 0.4655593551538837
0.18211587400037388 0.4460185637518319 0.46458231558378116
0.18230377800045972 0.44699560332193444 0.4655593551538837
0.18248995900012233 0.44894968246213973 0.467513434294089
0.18267571500018676 0.44699560332193444 0.46946751343429405
0.18286198999976477 0.44894968246213973 0.4753297508549097
0.18304752400035795 0.44992672203224227 0.4851001465559355
0.183233613000084 0.44992672203224227 0.4763067904250122
0.18341970199981006 0.44894968246213973 0.47728382999511476
0.18360940300044604 0.44992672203224227 0.4802149487054226
0.18381380600021657 0.4479726428920372 0.4733756717147044
0.18401109900059964 0.4450415241817294 0.47239863214460187
0.18421478100026434 0.45188080117244755 0.46946751343429405
0.1844121100002667 0.44699560332193444 0.47142159257449934
0.18460868100009975 0.44894968246213973 0.4665363947239862
0.1848063440002079 0.4479726428920372 0.4655593551538837
0.18500298900016787 0.44699560332193444 0.4665363947239862
0.18520276300023397 0.44699560332193444 0.467513434294089
0.1854257590002817 0.4479726428920372 0.4704445530043966
0.1856384220000109 0.44894968246213973 0.47142159257449934
0.18585371400058648 0.44894968246213973 0.47239863214460187
0.18605930300054752 0.4528578407425501 0.4753297508549097
0.1862484110006335 0.4557889594528579 0.4733756717147044
0.18643742600033875 0.4528578407425501 0.4753297508549097
0.18667607000043063 0.4538348803126526 0.4753297508549097
0.18687045600017882 0.4538348803126526 0.4753297508549097
0.18705652600056055 0.4557889594528579 0.4811919882755251
0.1872439310000118 0.4528578407425501 0.47239863214460187
0.18743376000020362 0.45188080117244755 0.4684904738641915
0.18767247800042242 0.44894968246213973 0.467513434294089
0.1878608080005506 0.44992672203224227 0.4655593551538837
0.18804776800061518 0.4479726428920372 0.4655593551538837
0.1882343570005105 0.4479726428920372 0.46262823644357587
0.1884205579999616 0.4509037616023448 0.46165119687347334
0.18860710999979347 0.44992672203224227 0.4587200781631655
0.18879318100061937 0.44699560332193444 0.46165119687347334
0.18898008500036667 0.45481191988275516 0.45676599902296044
0.1891664889999447 0.44992672203224227 0.457743038593063
0.18935298599990347 0.4528578407425501 0.45969711773326827
0.18953976000011608 0.45676599902296044 0.46262823644357587
0.18972581199977867 0.4528578407425501 0.45676599902296044
0.18992345700007718 0.4528578407425501 0.45676599902296044
0.1901121939999939 0.4587200781631655 0.4528578407425501
0.1902996910002912 0.4528578407425501 0.4528578407425501
0.19049072500001785 0.4557889594528579 0.4509037616023448
0.19068218400025216 0.45481191988275516 0.44992672203224227
0.19086849599989364 0.45676599902296044 0.4479726428920372
0.19105501100057154 0.45676599902296044 0.4479726428920372
0.19127572900015366 0.45676599902296044 0.4450415241817294
0.19146452200038766 0.45481191988275516 0.4450415241817294
0.19165111100028298 0.4557889594528579 0.4450415241817294
0.1918368670003474 0.45676599902296044 0.4450415241817294
0.19202342000062345 0.4587200781631655 0.44211040547142155
0.19222443499984365 0.4606741573033708 0.44406448461162684
0.19245681900065392 0.4557889594528579 0.4382022471910112
0.19265355700008513 0.4528578407425501 0.44211040547142155
0.19286821900004725 0.4557889594528579 0.4382022471910112
0.1930949560000954 0.4538348803126526 0.4382022471910112
0.1932948600006057 0.4538348803126526 0.43429408891060084
0.1934937820005871 0.45481191988275516 0.43722520762090866
0.1936913529998492 0.4538348803126526 0.43624816805080613
0.1939267560001099 0.4538348803126526 0.4382022471910112
0.19415677100005269 0.4528578407425501 0.4382022471910112
0.19440367400056857 0.4528578407425501 0.43722520762090866
0.1946735390001777 0.45676599902296044 0.43429408891060084
0.194928052999785 0.4538348803126526 0.4333170493404983
0.19514242000059312 0.4557889594528579 0.431362970200293
0.19533817600040493 0.4538348803126526 0.4284318514899854
0.195537671999773 0.4528578407425501 0.4264777723497801
0.19573750200015638 0.4509037616023448 0.4284318514899854
0.19594927600064693 0.4528578407425501 0.4284318514899854
0.19619580800008407 0.45481191988275516 0.42745481191988266
0.19641684199996234 0.4528578407425501 0.42745481191988266
0.19664285599992581 0.44992672203224227 0.4255007327796776
0.19686309300050198 0.44992672203224227 0.4303859306301905
0.19708990399976756 0.44992672203224227 0.43429408891060084
0.19731490000049234 0.45188080117244755 0.4382022471910112
0.19753235900043364 0.4509037616023448 0.43429408891060084
0.19778148400018836 0.44992672203224227 0.4352711284807034
0.19809636700028932 0.4557889594528579 0.43624816805080613
0.19831803000033688 0.45188080117244755 0.4382022471910112
0.1985165820005932 0.4528578407425501 0.43917928676111373
0.19871744900046906 0.4528578407425501 0.441133365901319
0.19891598200047156 0.45481191988275516 0.44211040547142155
0.19910962700032542 0.4509037616023448 0.44406448461162684
0.19929660500019963 0.46165119687347334 0.4430874450415241
0.19948304599984112 0.45188080117244755 0.4450415241817294
0.19966985800056136 0.4509037616023448 0.4460185637518319
0.19986100300047838 0.44992672203224227 0.4460185637518319
0.20004833300026803 0.44894968246213973 0.4479726428920372
0.2002343660005863 0.44894968246213973 0.4538348803126526
0.20042077000016434 0.45188080117244755 0.4528578407425501
0.2006300259999989 0.44894968246213973 0.4538348803126526
0.20085104100053286 0.45676599902296044 0.4557889594528579
0.20103866699992068 0.44992672203224227 0.45481191988275516
0.20138016100008826 0.44992672203224227 0.4557889594528579
0.2015685280002799 0.44992672203224227 0.4557889594528579
0.2017554129997734 0.44992672203224227 0.45676599902296044
0.20197176100009528 0.44992672203224227 0.4636052760136786
0.20216151700060436 0.44992672203224227 0.46262823644357587
0.20235106900054234 0.4509037616023448 0.46458231558378116
0.20253791800041654 0.45188080117244755 0.46946751343429405
0.20272415500039642 0.45188080117244755 0.4704445530043966
0.2029105410001648 0.45188080117244755 0.46946751343429405
0.20309681500020815 0.4509037616023448 0.4684904738641915
0.20328323800004 0.45188080117244755 0.4684904738641915
0.20347062400014693 0.45188080117244755 0.46946751343429405
0.20365693500025372 0.4509037616023448 0.4704445530043966
0.20384352400014905 0.4528578407425501 0.47435271128480694
0.20403535400055262 0.4528578407425501 0.47435271128480694
0.20422905499981425 0.45188080117244755 0.4763067904250122
0.20442038400051388 0.4538348803126526 0.4782608695652173
0.20461412199983897 0.44992672203224227 0.48216902784562765
0.20481778500015935 0.44992672203224227 0.4763067904250122
0.20500924400039366 0.44992672203224227 0.4811919882755251
0.20519577800041588 0.45188080117244755 0.47923790913532005
0.20538347799993062 0.4538348803126526 0.4802149487054226
0.20557003100020665 0.45676599902296044 0.4753297508549097
0.20575667600041925 0.457743038593063 0.47923790913532005
0.20594583900037833 0.4538348803126526 0.4753297508549097
0.2061336320002738 0.4557889594528579 0.4763067904250122
0.2063215730004231 0.4557889594528579 0.47239863214460187
0.20651156999974773 0.4557889594528579 0.4733756717147044
0.20669814000029874 0.45676599902296044 0.47728382999511476
0.20688406299996132 0.46165119687347334 0.47239863214460187
0.20707359700008965 0.45969711773326827 0.4684904738641915
0.2072634639998796 0.45676599902296044 0.4665363947239862
0.20745084900045185 0.45969711773326827 0.467513434294089
0.20763736400022026 0.45676599902296044 0.46458231558378116
0.20782360200064431 0.457743038593063 0.4655593551538837
0.20801058000051853 0.45969711773326827 0.4636052760136786
0.20819672500056186 0.4587200781631655 0.46165119687347334
0.20838303599975916 0.4587200781631655 0.45969711773326827
0.20857682899986685 0.4606741573033708 0.457743038593063
0.20876365900039673 0.4587200781631655 0.45676599902296044
0.2089687670004423 0.45969711773326827 0.4528578407425501
0.209158134000063 0.457743038593063 0.4528578407425501
0.20934533400031796 0.45481191988275516 0.4557889594528579
0.2095340160003616 0.4538348803126526 0.4538348803126526
0.20972090099985508 0.457743038593063 0.4528578407425501
0.20992212000055588 0.457743038593063 0.4528578407425501
0.2101089130001128 0.4528578407425501 0.45188080117244755
0.2102965949998179 0.4606741573033708 0.44992672203224227
0.21048314700055926 0.45481191988275516 0.44699560332193444
0.21066968100058148 0.4557889594528579 0.4479726428920372
0.2108565290000115 0.4557889594528579 0.4450415241817294
0.21104509999986476 0.45481191988275516 0.4450415241817294
0.21124283700009983 0.45969711773326827 0.4430874450415241
0.21144451899999694 0.45481191988275516 0.44406448461162684
0.2116419780004435 0.4528578407425501 0.4430874450415241
0.21188443699975323 0.4538348803126526 0.44406448461162684
0.2120882300005178 0.4538348803126526 0.44406448461162684
0.21227602300041326 0.45188080117244755 0.441133365901319
0.21246216700001241 0.45481191988275516 0.43917928676111373
0.2126531829999294 0.4538348803126526 0.43917928676111373
0.21284164200005762 0.45188080117244755 0.43624816805080613
0.21306434200050717 0.45188080117244755 0.43722520762090866
0.21326591199976974 0.4528578407425501 0.4401563263312165
0.21345465000013064 0.45188080117244755 0.43429408891060084
0.21364166500006831 0.4528578407425501 0.43429408891060084
0.21382843900028092 0.4528578407425501 0.4333170493404983
0.2140373800002635 0.45481191988275516 0.43429408891060084
0.21422748799977853 0.45676599902296044 0.4333170493404983
0.21441487300035078 0.4538348803126526 0.43429408891060084
0.2146015919997808 0.4557889594528579 0.431362970200293
0.2147890890000781 0.45481191988275516 0.4303859306301905
0.2149758080004176 0.45481191988275516 0.4303859306301905
0.2151621190005244 0.4528578407425501 0.43429408891060084
0.21534906099986983 0.457743038593063 0.4284318514899854
0.21553618699999788 0.4557889594528579 0.4284318514899854
0.2157223129997874 0.4557889594528579 0.4284318514899854
0.21590875400033838 0.457743038593063 0.4284318514899854
0.2160950289999164 0.4557889594528579 0.4284318514899854
0.21628121100002318 0.45676599902296044 0.42940889106008795
0.21650028099975316 0.45676599902296044 0.431362970200293
0.21668803700049466 0.4528578407425501 0.431362970200293
0.2168747000005169 0.44992672203224227 0.43429408891060084
0.2170612150002853 0.4450415241817294 0.4352711284807034
0.21724791599990567 0.4450415241817294 0.4352711284807034
0.21743430100013938 0.4450415241817294 0.43722520762090866
0.2176205760006269 0.44992672203224227 0.441133365901319
0.21780718399986654 0.4479726428920372 0.43722520762090866
0.21800590200018632 0.4450415241817294 0.43917928676111373
0.21819343600054708 0.441133365901319 0.44211040547142155
0.21838902499985124 0.441133365901319 0.44211040547142155
0.21857631800048694 0.4450415241817294 0.44406448461162684
0.21876303699991695 0.44406448461162684 0.4430874450415241
0.21894934800002375 0.44211040547142155 0.4450415241817294
0.21913575300004595 0.44406448461162684 0.4450415241817294
0.21932480499981466 0.4450415241817294 0.44699560332193444
0.21951280099983705 0.4460185637518319 0.44894968246213973
0.21969926100064185 0.4479726428920372 0.45188080117244755
0.21988664699983929 0.4460185637518319 0.44992672203224227
0.22007312500045373 0.44992672203224227 0.44992672203224227
0.2202599359998203 0.44894968246213973 0.4538348803126526
0.22044693299994833 0.44894968246213973 0.45481191988275516
0.22063363300003402 0.44894968246213973 0.45969711773326827
0.22081970399995043 0.44894968246213973 0.46165119687347334
0.22100673800014192 0.45188080117244755 0.46262823644357587
0.22120953000012378 0.44992672203224227 0.4655593551538837
0.22139760099980776 0.44894968246213973 0.46458231558378116
0.22158417199989344 0.44699560332193444 0.46262823644357587
0.22177107600055024 0.4450415241817294 0.45676599902296044
0.22195929500048805 0.4460185637518319 0.4557889594528579
0.22214906899989728 0.4450415241817294 0.45676599902296044
0.2223358620003637 0.4450415241817294 0.45676599902296044
0.22252234000006865 0.44992672203224227 0.45969711773326827
0.22271600400017633 0.44894968246213973 0.4606741573033708
0.2229045190006218 0.44894968246213973 0.46262823644357587
0.2230914040001153 0.4460185637518319 0.4636052760136786
0.2232783270001164 0.4460185637518319 0.46165119687347334
0.22346421300062502 0.4460185637518319 0.46458231558378116
0.2236549310000555 0.4460185637518319 0.46262823644357587
0.22385355799997342 0.4460185637518319 0.46262823644357587
0.22405348000029335 0.45188080117244755 0.467513434294089
0.2242431430004217 0.4450415241817294 0.46165119687347334
0.22442956600025354 0.4460185637518319 0.46458231558378116
0.22461602500061417 0.44894968246213973 0.46165119687347334
0.22480326300046727 0.44894968246213973 0.4655593551538837
0.22499035200053186 0.45188080117244755 0.4655593551538837
0.22520181100026093 0.44992672203224227 0.467513434294089
0.2253881040005581 0.4509037616023448 0.4665363947239862
0.22557574900019972 0.4509037616023448 0.46946751343429405
0.22581763400012278 0.4509037616023448 0.4684904738641915
0.22604585200042493 0.44894968246213973 0.46946751343429405
0.22624068200002512 0.4509037616023448 0.47239863214460187
0.22643743800017546 0.44992672203224227 0.47142159257449934
0.2266302670004734 0.4538348803126526 0.4733756717147044
0.22683822700037126 0.4528578407425501 0.47142159257449934
0.22703407500011963 0.4528578407425501 0.4684904738641915
0.22724581200054672 0.45188080117244755 0.46946751343429405
0.22744821600008436 0.45481191988275516 0.4704445530043966
0.2276428240002133 0.4557889594528579 0.4684904738641915
0.2278789299998607 0.4538348803126526 0.467513434294089
0.22809453799982293 0.4557889594528579 0.46458231558378116
0.22831523700006073 0.45481191988275516 0.4636052760136786
0.2285647520002385 0.4557889594528579 0.45969711773326827
0.22880087700013974 0.4557889594528579 0.45969711773326827
0.22901452099995367 0.457743038593063 0.457743038593063
0.22922159200061287 0.45676599902296044 0.4606741573033708
0.22942197700012912 0.457743038593063 0.4538348803126526
0.22964741800024058 0.457743038593063 0.4528578407425501
0.22984867300056067 0.4587200781631655 0.4538348803126526
0.23007326200058742 0.45969711773326827 0.45188080117244755
0.23027383200042095 0.457743038593063 0.44992672203224227
0.23047473600036028 0.45969711773326827 0.44699560332193444
0.23069406600006914 0.45481191988275516 0.4479726428920372
0.23091759900034958 0.45969711773326827 0.44699560332193444
0.2311389100004817 0.457743038593063 0.4450415241817294
0.23137120200044592 0.45481191988275516 0.44406448461162684
0.23159588300040923 0.45676599902296044 0.4430874450415241
0.23180767499979993 0.457743038593063 0.43917928676111373
0.23204367100061063 0.45676599902296044 0.4401563263312165
0.23232911100058118 0.4538348803126526 0.43917928676111373
0.23260554999978922 0.45676599902296044 0.441133365901319
0.23280178700042597 0.457743038593063 0.4401563263312165
0.23298924699975032 0.45676599902296044 0.4382022471910112
0.2331754289998571 0.45676599902296044 0.43722520762090866
0.2333623330005139 0.457743038593063 0.43722520762090866
0.23354870000002848 0.457743038593063 0.43624816805080613
0.2337357520000296 0.457743038593063 0.4352711284807034
0.23394097100026556 0.45676599902296044 0.43429408891060084
0.23412813400045707 0.457743038593063 0.431362970200293
0.23431575999984489 0.45676599902296044 0.4303859306301905
0.2345021649998671 0.4557889594528579 0.431362970200293
0.23468838300050265 0.457743038593063 0.4303859306301905
0.23487730600027135 0.4587200781631655 0.42940889106008795
0.23506395100048394 0.457743038593063 0.42940889106008795
0.23525139200046397 0.457743038593063 0.4303859306301905
0.23543712900027458 0.45676599902296044 0.42940889106008795
0.23562323700025445 0.4528578407425501 0.42940889106008795
0.23581047500010754 0.45481191988275516 0.4303859306301905
0.2359967680004047 0.4538348803126526 0.4303859306301905
0.2361831530006384 0.45481191988275516 0.4323400097703958
0.23636961300053372 0.4557889594528579 0.43722520762090866
0.23655657200015412 0.4538348803126526 0.44211040547142155
0.23674329100049363 0.4557889594528579 0.43624816805080613
0.2369887690001633 0.4538348803126526 0.43429408891060084
0.23717570999997406 0.4528578407425501 0.43722520762090866
0.23736183599976357 0.4528578407425501 0.4382022471910112
0.2375491470002089 0.4528578407425501 0.4382022471910112
0.23773538500063296 0.45188080117244755 0.441133365901319
0.23793130700050824 0.4509037616023448 0.4430874450415241
0.23815850699975272 0.44894968246213973 0.4450415241817294
0.23835542899996653 0.4509037616023448 0.44699560332193444
0.23854168500020023 0.4538348803126526 0.45188080117244755
0.23872781200043391 0.4509037616023448 0.44992672203224227
0.2389146420000543 0.4509037616023448 0.44992672203224227
0.23910119399988616 0.4528578407425501 0.44894968246213973
0.23928765399978147 0.4538348803126526 0.44992672203224227
0.23947387200041703 0.4528578407425501 0.4509037616023448
0.239659462000418 0.4538348803126526 0.4557889594528579
0.23984508800003823 0.4509037616023448 0.45481191988275516
0.2400312509998912 0.45188080117244755 0.46165119687347334
0.24021813699982886 0.45188080117244755 0.4587200781631655
0.24040830000012647 0.4509037616023448 0.45481191988275516
0.24059500099974684 0.44992672203224227 0.4528578407425501
0.24078094200012856 0.4460185637518319 0.4528578407425501
0.2409669570006372 0.4460185637518319 0.45188080117244755
0.24115278699991904 0.4450415241817294 0.45188080117244755
0.24133906200040656 0.4450415241817294 0.4557889594528579
0.24152557700017496 0.4450415241817294 0.4606741573033708
0.24171233300057793 0.45188080117244755 0.4606741573033708
0.24191127399990364 0.4450415241817294 0.46458231558378116
0.24209899200013751 0.4460185637518319 0.46458231558378116
0.24231198899997253 0.44699560332193444 0.4655593551538837
0.24252944799991383 0.44699560332193444 0.4704445530043966
0.24271592600052827 0.4460185637518319 0.47142159257449934
0.24290329300038138 0.44992672203224227 0.46946751343429405
0.24308954900061508 0.44894968246213973 0.4704445530043966
0.2432767119998971 0.44894968246213973 0.47239863214460187
0.24346330200023658 0.44894968246213973 0.4704445530043966
0.24365000200032227 0.4528578407425501 0.46946751343429405
0.24383927600047173 0.45188080117244755 0.46946751343429405
0.24404127300022083 0.45188080117244755 0.46946751343429405
0.24423852900054044 0.44992672203224227 0.46946751343429405
0.2444363210006486 0.44894968246213973 0.4684904738641915
0.2446479840000393 0.4538348803126526 0.4704445530043966
0.2448482950003381 0.4509037616023448 0.47435271128480694
0.24503995899976871 0.4509037616023448 0.47435271128480694
0.24522651100051007 0.45188080117244755 0.47728382999511476
0.245413747999919 0.45188080117244755 0.4763067904250122
0.2456012640004701 0.45188080117244755 0.47923790913532005
0.24578763099998469 0.4528578407425501 0.47923790913532005
0.24600246000045445 0.4528578407425501 0.4811919882755251
0.24619090099986352 0.45188080117244755 0.4763067904250122
0.24640713799999503 0.45676599902296044 0.4763067904250122
0.24659506100033468 0.45481191988275516 0.47435271128480694
0.24678140900050494 0.45481191988275516 0.4763067904250122
0.2469675170004848 0.4557889594528579 0.4733756717147044
0.24715347700021084 0.45481191988275516 0.47239863214460187
0.2473399549999158 0.4557889594528579 0.47239863214460187
0.24752622899995913 0.4557889594528579 0.467513434294089
0.24771755900019343 0.45676599902296044 0.4655593551538837
0.24790468599985616 0.45481191988275516 0.46262823644357587
0.248112219000177 0.45676599902296044 0.4606741573033708
0.24830273400039005 0.45676599902296044 0.45969711773326827
0.24849013800030662 0.457743038593063 0.4606741573033708
0.24867654199988465 0.457743038593063 0.4606741573033708
0.2488632240001607 0.45676599902296044 0.46262823644357587
0.24904970199986565 0.4587200781631655 0.46262823644357587
0.249235532000057 0.4606741573033708 0.4665363947239862
0.24942158500016376 0.46165119687347334 0.4684904738641915
0.24960769200060895 0.46165119687347334 0.46946751343429405
0.2497941890005677 0.4587200781631655 0.467513434294089
0.25004357299985713 0.45969711773326827 0.45969711773326827
0.25023434800004907 0.45969711773326827 0.4509037616023448
0.25042226999994455 0.45676599902296044 0.4450415241817294
0.25062471100045514 0.4557889594528579 0.4401563263312165
0.25081026400039264 0.4557889594528579 0.43722520762090866
0.2509988159999921 0.457743038593063 0.43624816805080613
0.25118531200041616 0.4557889594528579 0.4382022471910112
0.25137301300037507 0.45481191988275516 0.43917928676111373
0.25155919500048185 0.45481191988275516 0.43722520762090866
0.2517452649999541 0.45676599902296044 0.4382022471910112
0.25193137299993396 0.45481191988275516 0.43917928676111373
0.2521177770004215 0.45481191988275516 0.44211040547142155
0.2523044220006341 0.4606741573033708 0.4382022471910112
0.252491086000191 0.4538348803126526 0.4401563263312165
0.2526774160005516 0.4538348803126526 0.441133365901319
0.2528678750004474 0.4557889594528579 0.43917928676111373
0.2530555570001525 0.4528578407425501 0.43722520762090866
0.25324220200036507 0.4557889594528579 0.43917928676111373
0.25342812400049297 0.45676599902296044 0.43624816805080613
0.2536146580005152 0.4557889594528579 0.43624816805080613
0.25380074700024124 0.4557889594528579 0.4323400097703958
0.254006873000435 0.457743038593063 0.43624816805080613
0.25419388899990736 0.457743038593063 0.431362970200293
0.254380033000416 0.45676599902296044 0.43429408891060084
0.25458471500041924 0.45969711773326827 0.431362970200293
0.2547717300003569 0.45969711773326827 0.4333170493404983
0.25495787500040024 0.4587200781631655 0.42940889106008795
0.25514427899997827 0.4587200781631655 0.42940889106008795
0.2553305540004658 0.45969711773326827 0.4323400097703958
0.25551677200019185 0.45969711773326827 0.4323400097703958
0.2557027510001717 0.457743038593063 0.43624816805080613
0.25588837699979194 0.46165119687347334 0.4352711284807034
0.2560741329998564 0.45481191988275516 0.4382022471910112
0.2562607959998786 0.45676599902296044 0.43722520762090866
0.2564465149998796 0.45676599902296044 0.43722520762090866
0.2566353820002405 0.45481191988275516 0.4352711284807034
0.25682128600055876 0.4557889594528579 0.43624816805080613
0.2570071159998406 0.4538348803126526 0.43624816805080613
0.2571926689997781 0.45188080117244755 0.43429408891060084
0.257378905999758 0.44894968246213973 0.43624816805080613
0.2575646989998859 0.44992672203224227 0.43624816805080613
0.25775004800016177 0.44992672203224227 0.43722520762090866
0.2579393780006285 0.44894968246213973 0.4382022471910112
0.2581271890003336 0.44894968246213973 0.44406448461162684
0.2583123340000384 0.44992672203224227 0.44406448461162684
0.2584980900001028 0.44992672203224227 0.4430874450415241
0.2586836979999134 0.44894968246213973 0.4450415241817294
0.2588856020001913 0.44992672203224227 0.4479726428920372
0.2591399670000101 0.4528578407425501 0.4450415241817294
0.25933575999988534 0.44894968246213973 0.44894968246213973
0.2595287009999083 0.44992672203224227 0.4479726428920372
0.25972347500010073 0.44894968246213973 0.44699560332193444
0.2599200459999338 0.4528578407425501 0.44992672203224227
0.26013852400046744 0.4509037616023448 0.45188080117244755
0.26033414999983506 0.44992672203224227 0.4538348803126526
0.2605310910003027 0.4509037616023448 0.45481191988275516
0.2607267170005798 0.44992672203224227 0.45481191988275516
0.2609180469999046 0.4528578407425501 0.4528578407425501
0.2611142470004779 0.4528578407425501 0.45676599902296044
0.2613155030003327 0.45188080117244755 0.45676599902296044
0.26152357299997675 0.4509037616023448 0.45969711773326827
0.2617616610004916 0.4509037616023448 0.4606741573033708
0.26207695199991576 0.4528578407425501 0.46165119687347334
0.2623115410005994 0.44992672203224227 0.46262823644357587
0.2625311480005621 0.44699560332193444 0.4655593551538837
0.26278192100016895 0.44992672203224227 0.46458231558378116
0.2630431759998828 0.4460185637518319 0.4655593551538837
0.2632924310000817 0.44992672203224227 0.467513434294089
0.2634952050002539 0.44992672203224227 0.4655593551538837
0.2636938490004468 0.4509037616023448 0.4684904738641915
0.26389217900032236 0.45188080117244755 0.46946751343429405
0.2640891940000074 0.45481191988275516 0.4733756717147044
0.26428237599975546 0.4528578407425501 0.47239863214460187
0.26447039100003167 0.45188080117244755 0.46946751343429405
0.2646563320004134 0.44894968246213973 0.4684904738641915
0.26484875500045746 0.4528578407425501 0.47142159257449934
0.26507460300035746 0.45188080117244755 0.47142159257449934
0.2652615249999144 0.4509037616023448 0.4704445530043966
0.26544730000023264 0.45188080117244755 0.4753297508549097
0.26563368500046636 0.4528578407425501 0.4704445530043966
0.26581960800012894 0.4528578407425501 0.4704445530043966
0.26605203000053734 0.4528578407425501 0.47239863214460187
0.2662537109999903 0.4557889594528579 0.4704445530043966
0.2664634480006498 0.4538348803126526 0.4704445530043966
0.2666799810003795 0.4538348803126526 0.4684904738641915
0.2669149590001325 0.4528578407425501 0.46946751343429405
0.26714173300024413 0.4538348803126526 0.47142159257449934
0.2673641729998053 0.45969711773326827 0.4782608695652173
0.26759102100004384 0.45481191988275516 0.4753297508549097
0.26781453500007046 0.45481191988275516 0.47239863214460187
0.2680729009998686 0.4538348803126526 0.467513434294089
0.26838124799996876 0.4587200781631655 0.46165119687347334
0.26869868599987967 0.4557889594528579 0.4606741573033708
0.26888901599977544 0.45969711773326827 0.45969711773326827
0.26907580900024186 0.45676599902296044 0.45969711773326827
0.26926252800058137 0.45481191988275516 0.457743038593063
0.26945011699990573 0.4557889594528579 0.457743038593063
0.2696364100002029 0.4557889594528579 0.4528578407425501
0.26982238900018274 0.4557889594528579 0.4538348803126526
0.2700436439999976 0.457743038593063 0.4509037616023448
0.270230122000612 0.46165119687347334 0.44992672203224227
0.2704164890001266 0.45676599902296044 0.4450415241817294
0.27060309700027574 0.45676599902296044 0.4479726428920372
0.27079098200010776 0.457743038593063 0.44699560332193444
0.27097755300019344 0.45676599902296044 0.44406448461162684
0.2711631239999406 0.45676599902296044 0.44406448461162684
0.271349473000555 0.45676599902296044 0.4430874450415241
0.2715358949999427 0.4557889594528579 0.44406448461162684
0.27178290900064894 0.45481191988275516 0.441133365901319
0.2719708869999522 0.45676599902296044 0.44211040547142155
0.2721569770001224 0.4557889594528579 0.441133365901319
0.27234273300018685 0.457743038593063 0.4401563263312165
0.2725292850000187 0.45676599902296044 0.441133365901319
0.27271496699995623 0.4557889594528579 0.43917928676111373
0.27290168600029574 0.45481191988275516 0.4382022471910112
0.2730887010002334 0.45676599902296044 0.4382022471910112
0.27328140100053133 0.45481191988275516 0.43722520762090866
0.2734807120004916 0.46262823644357587 0.43624816805080613
0.2737200040000971 0.45676599902296044 0.43429408891060084
0.27398651800012885 0.45481191988275516 0.441133365901319
0.27423069900032715 0.45676599902296044 0.4303859306301905
0.2744440470005429 0.4557889594528579 0.43429408891060084
0.27463598800022737 0.4557889594528579 0.43429408891060084
0.2748295960000178 0.457743038593063 0.4323400097703958
0.27502137000010407 0.45481191988275516 0.4323400097703958
0.27521242200054985 0.4587200781631655 0.4323400097703958
0.27541382599974895 0.4557889594528579 0.4333170493404983
0.2756421000003684 0.457743038593063 0.431362970200293
0.27588418800041836 0.46165119687347334 0.4303859306301905
0.27608062899980723 0.45969711773326827 0.4284318514899854
0.2763184770001317 0.45969711773326827 0.4303859306301905
0.27654099099981977 0.45676599902296044 0.4333170493404983
0.27674674700028845 0.45481191988275516 0.4303859306301905
0.2769447990003755 0.45676599902296044 0.4352711284807034
0.27713825899991207 0.45969711773326827 0.43722520762090866
0.27738366199992015 0.4538348803126526 0.4382022471910112
0.27759741699992446 0.45188080117244755 0.43917928676111373
0.2778775790002328 0.45188080117244755 0.441133365901319
0.2782077020001452 0.44992672203224227 0.4401563263312165
0.2784412170003634 0.44992672203224227 0.4479726428920372
0.27865462000045227 0.45188080117244755 0.44699560332193444
0.27888057900054264 0.44992672203224227 0.44894968246213973
0.27908350200050336 0.44992672203224227 0.45188080117244755
0.27927248000014515 0.45188080117244755 0.4509037616023448
0.2794601249997868 0.45188080117244755 0.4538348803126526
0.27965023199976713 0.4538348803126526 0.45188080117244755
0.2798384329998953 0.44992672203224227 0.45481191988275516
0.28002517000004445 0.44699560332193444 0.4587200781631655
0.28021748199989815 0.44699560332193444 0.46165119687347334
0.2804066260005129 0.4460185637518319 0.46946751343429405
0.28059421600028145 0.44699560332193444 0.4655593551538837
0.28079849000005197 0.4479726428920372 0.467513434294089
0.28098539399979927 0.4460185637518319 0.46946751343429405
0.28117181600009644 0.4460185637518319 0.46946751343429405
0.28135853500043595 0.44699560332193444 0.4684904738641915
0.2815452909999294 0.4479726428920372 0.47142159257449934
0.281731807000142 0.4460185637518319 0.467513434294089
0.2819537470004434 0.4460185637518319 0.4655593551538837
0.2821454470004028 0.4460185637518319 0.46458231558378116
0.2823320550005519 0.4450415241817294 0.46262823644357587
0.28251892200023576 0.4460185637518319 0.46165119687347334
0.28270512300059636 0.4450415241817294 0.4684904738641915
0.2828918410004917 0.4450415241817294 0.4636052760136786
0.2830914490004943 0.4479726428920372 0.4655593551538837
0.2832843160003904 0.44992672203224227 0.46458231558378116
0.28348114599975816 0.4479726428920372 0.4684904738641915
0.28366825400007656 0.44894968246213973 0.4733756717147044
0.2838545470003737 0.44992672203224227 0.47239863214460187
0.28404080200016324 0.45188080117244755 0.4733756717147044
0.2842266510006084 0.44992672203224227 0.47435271128480694
0.2844126290001441 0.45188080117244755 0.4753297508549097
0.2845990330006316 0.44992672203224227 0.47435271128480694
0.28478467800050566 0.45188080117244755 0.4753297508549097
0.2849716010005068 0.44992672203224227 0.4753297508549097
0.2851581160002752 0.44992672203224227 0.4753297508549097
0.2853565570003411 0.4509037616023448 0.4733756717147044
0.28554547900057514 0.4538348803126526 0.4753297508549097
0.2857320319999417 0.45188080117244755 0.4733756717147044
0.28595817600034934 0.4509037616023448 0.4733756717147044
0.2861491539997587 0.45188080117244755 0.4733756717147044
0.2863348910004788 0.45481191988275516 0.4733756717147044
0.2865213510003741 0.4509037616023448 0.46946751343429405
0.28670806999980414 0.45188080117244755 0.47142159257449934
0.2868942330005666 0.44992672203224227 0.4733756717147044
0.28708065600039845 0.44992672203224227 0.4733756717147044
0.2872667640003783 0.44992672203224227 0.4733756717147044
0.2874527230005697 0.44992672203224227 0.47142159257449934
0.28763875700042263 0.44699560332193444 0.4704445530043966
0.2878248090000852 0.44699560332193444 0.4704445530043966
0.2880107870005304 0.44699560332193444 0.4684904738641915
0.28819722900061606 0.44699560332193444 0.4684904738641915
0.288382984999771 0.4479726428920372 0.46458231558378116
0.28856953700051236 0.4479726428920372 0.4665363947239862
0.28875616300047113 0.44894968246213973 0.4684904738641915
0.28898619600022357 0.44992672203224227 0.4655593551538837
0.28917387799992866 0.45188080117244755 0.46262823644357587
0.28936044900001434 0.45188080117244755 0.4655593551538837
0.28954600100041716 0.4538348803126526 0.46165119687347334
0.28973225700065086 0.45481191988275516 0.4587200781631655
0.2899280870005896 0.45676599902296044 0.4606741573033708
0.2901170280001679 0.4538348803126526 0.45969711773326827
0.2903035429999363 0.4557889594528579 0.4557889594528579
0.2904898360002335 0.45481191988275516 0.4528578407425501
0.290675833000023 0.45481191988275516 0.44894968246213973
0.29086173700034124 0.45676599902296044 0.4479726428920372
0.2910489559999405 0.457743038593063 0.4528578407425501
0.2912435819998791 0.45676599902296044 0.4430874450415241
0.2914416519997758 0.4557889594528579 0.44211040547142155
0.2916304450000098 0.45676599902296044 0.44406448461162684
0.291821405000519 0.457743038593063 0.44211040547142155
0.29200899399984337 0.45676599902296044 0.441133365901319
0.2922241570004189 0.4557889594528579 0.441133365901319
0.2924131170002511 0.45481191988275516 0.4382022471910112
0.29259915000056935 0.4528578407425501 0.43917928676111373
0.2927851100002954 0.45481191988275516 0.4382022471910112
0.2929725880003389 0.4538348803126526 0.4382022471910112
0.2931591030001073 0.4538348803126526 0.4382022471910112
0.2933483590004471 0.45481191988275516 0.4382022471910112
0.293534708000152 0.4538348803126526 0.4382022471910112
0.2937271119999423 0.45969711773326827 0.43722520762090866
0.2939342010004111 0.4557889594528579 0.43624816805080613
0.294122790000074 0.45676599902296044 0.4323400097703958
0.2943091570004981 0.4557889594528579 0.4333170493404983
0.2944961350003723 0.4528578407425501 0.43429408891060084
0.2946839470005216 0.4528578407425501 0.43429408891060084
0.29486983200058603 0.45481191988275516 0.431362970200293
0.2950559959999737 0.4528578407425501 0.4352711284807034
0.29524202900029195 0.4557889594528579 0.43624816805080613
0.2954279699997642 0.45481191988275516 0.43624816805080613
0.2956149120000191 0.4538348803126526 0.4323400097703958
0.2958010930005912 0.4538348803126526 0.4323400097703958
0.29598712700044416 0.4538348803126526 0.4333170493404983
0.29617460500048765 0.4538348803126526 0.431362970200293
0.2963625090005735 0.4528578407425501 0.4303859306301905
0.29654861700055335 0.4528578407425501 0.431362970200293
0.2967345209999621 0.45188080117244755 0.43429408891060084
0.29695064699990326 0.4538348803126526 0.43624816805080613
0.2971384769998622 0.45188080117244755 0.4382022471910112
0.29732421500011696 0.45188080117244755 0.44211040547142155
0.2975104890001603 0.4538348803126526 0.44211040547142155
0.29769639300047857 0.4528578407425501 0.44211040547142155
0.2978824270003315 0.4528578407425501 0.4450415241817294
0.29809449700042023 0.4538348803126526 0.4450415241817294
0.2982812529999137 0.45188080117244755 0.441133365901319
0.29846710200035886 0.44894968246213973 0.44406448461162684
0.2986526539998522 0.4479726428920372 0.44211040547142155
0.2988384469999801 0.44699560332193444 0.44211040547142155
0.2990242770001714 0.44699560332193444 0.4450415241817294
0.2992096810003204 0.44699560332193444 0.4460185637518319
0.29939497400027903 0.4479726428920372 0.44894968246213973
0.29958045200055494 0.4460185637518319 0.44992672203224227
0.29976644900034444 0.4460185637518319 0.4509037616023448
0.29995140900064143 0.4479726428920372 0.45188080117244755
0.30013662700002897 0.45188080117244755 0.4538348803126526
0.3003220130003683 0.4450415241817294 0.45481191988275516
0.3005070099998193 0.44406448461162684 0.457743038593063
0.3007151170004363 0.4460185637518319 0.4587200781631655
0.3009028730002683 0.4460185637518319 0.46165119687347334
0.3010974070002703 0.4450415241817294 0.4636052760136786
0.3012845700004618 0.4450415241817294 0.46458231558378116
0.30147077000037825 0.4460185637518319 0.46165119687347334
0.3016574520006543 0.4460185637518319 0.46262823644357587
0.3018445600000632 0.4450415241817294 0.46458231558378116
0.30206329700013157 0.4479726428920372 0.46458231558378116
0.3022499600001538 0.44992672203224227 0.4655593551538837
0.3024366050003664 0.45188080117244755 0.467513434294089
0.30262263900021935 0.44699560332193444 0.4684904738641915
0.3028095800000301 0.44894968246213973 0.47142159257449934
0.30299541000022145 0.44992672203224227 0.46946751343429405
0.30318133299988403 0.44992672203224227 0.47239863214460187
0.3033675520000543 0.4509037616023448 0.47239863214460187
0.3035536409997803 0.4479726428920372 0.4733756717147044
0.30373956299990823 0.44699560332193444 0.47239863214460187
0.3039254310006072 0.4479726428920372 0.4753297508549097
0.30411131599976216 0.44699560332193444 0.47239863214460187
0.3042970719998266 0.44894968246213973 0.47239863214460187
0.3044832909999968 0.44992672203224227 0.4733756717147044
0.3046695470002305 0.4509037616023448 0.4733756717147044
0.3048625430001266 0.44992672203224227 0.47239863214460187
0.3050486700003603 0.4509037616023448 0.4704445530043966
0.3052344630004882 0.4557889594528579 0.47142159257449934
0.3054205890002777 0.44992672203224227 0.4684904738641915
0.3056059010004901 0.44894968246213973 0.47142159257449934
0.30579150799985655 0.4509037616023448 0.4684904738641915
0.3059910789997957 0.4509037616023448 0.4665363947239862
0.3061773899999025 0.4538348803126526 0.47142159257449934
0.3063631089999035 0.45188080117244755 0.46946751343429405
0.3065491799998199 0.4528578407425501 0.47142159257449934
0.3067343250004342 0.4528578407425501 0.46946751343429405
0.3069204700004775 0.4528578407425501 0.47142159257449934
0.30710705900037283 0.4538348803126526 0.4684904738641915
0.30729216700001416 0.4538348803126526 0.4684904738641915
0.30747764500029007 0.45676599902296044 0.467513434294089
0.30766316000062943 0.457743038593063 0.46262823644357587
0.30784878699978435 0.45676599902296044 0.46458231558378116
0.30803478300003917 0.4557889594528579 0.4655593551538837
0.30822013200031506 0.45481191988275516 0.4665363947239862
0.3084059430002526 0.4538348803126526 0.4636052760136786
0.30859158800012665 0.45676599902296044 0.4636052760136786
0.3087781960002758 0.4538348803126526 0.4636052760136786
0.30896404499981145 0.457743038593063 0.4636052760136786
0.30915946700042696 0.4557889594528579 0.4606741573033708
0.30935663000036584 0.45481191988275516 0.46165119687347334
0.3095597010005804 0.457743038593063 0.46165119687347334
0.30975541899988457 0.45676599902296044 0.46458231558378116
0.3099549710004794 0.45481191988275516 0.457743038593063
0.310151061000397 0.4557889594528579 0.45676599902296044
0.3103439830001662 0.45969711773326827 0.4557889594528579
0.3105362200003583 0.45676599902296044 0.4557889594528579
0.3107275500005926 0.45481191988275516 0.4538348803126526
0.31091695400027675 0.45676599902296044 0.44992672203224227
0.31111335800051165 0.45481191988275516 0.44406448461162684
0.3113382620003904 0.4528578407425501 0.4401563263312165
0.311591294000209 0.45481191988275516 0.4382022471910112
0.3118229749998136 0.4528578407425501 0.43429408891060084
0.3120558790005816 0.4538348803126526 0.43429408891060084
0.3122967819999758 0.4538348803126526 0.4352711284807034
0.31253586999991967 0.4557889594528579 0.4401563263312165
0.3127484960004949 0.4528578407425501 0.4401563263312165
0.31294288099979894 0.45676599902296044 0.4401563263312165
0.31314287799978047 0.4557889594528579 0.441133365901319
0.3133880400000635 0.4557889594528579 0.441133365901319
0.31366283199986356 0.45676599902296044 0.44211040547142155
0.31386655000005703 0.4557889594528579 0.44211040547142155
0.31406973200046195 0.4528578407425501 0.43917928676111373
0.31428204300027573 0.4538348803126526 0.43429408891060084
0.31451503900007083 0.45481191988275516 0.4333170493404983
0.31476612700043916 0.44992672203224227 0.4333170493404983
0.31503799199981586 0.45481191988275516 0.42940889106008795
0.3153278199997658 0.4528578407425501 0.431362970200293
0.315634055999908 0.4509037616023448 0.43624816805080613
0.3159013470003629 0.4509037616023448 0.4303859306301905
0.3161298060003901 0.45188080117244755 0.42745481191988266
0.316435430000638 0.4509037616023448 0.4303859306301905
0.3167070919998878 0.4557889594528579 0.4284318514899854
0.3169680880000669 0.4557889594528579 0.42940889106008795
0.31715739900027984 0.4509037616023448 0.4323400097703958
0.31734352500006935 0.4528578407425501 0.431362970200293
0.3175296150002396 0.4557889594528579 0.4401563263312165
0.3177162040001349 0.45481191988275516 0.441133365901319
0.31793518100039364 0.4528578407425501 0.44406448461162684
0.31812708500001463 0.4528578407425501 0.4450415241817294
0.31831426700045995 0.4528578407425501 0.44699560332193444
0.31850119000046107 0.45481191988275516 0.44894968246213973
0.31874801899994054 0.4557889594528579 0.45188080117244755
0.3189355530003013 0.4538348803126526 0.4538348803126526
0.3191214200005561 0.45676599902296044 0.4538348803126526
0.31930665700019745 0.46165119687347334 0.45188080117244755
0.3194923580003888 0.4528578407425501 0.4528578407425501
0.3196790760002841 0.45188080117244755 0.44992672203224227
0.3198650730000736 0.45188080117244755 0.44992672203224227
0.32005149599990546 0.44992672203224227 0.44894968246213973
0.32023726999977953 0.44992672203224227 0.4528578407425501
0.3204235630000767 0.4509037616023448 0.4606741573033708
0.32061033799982397 0.44894968246213973 0.45481191988275516
0.32079740800054424 0.44992672203224227 0.45481191988275516
0.32098368300012226 0.44894968246213973 0.45676599902296044
0.32116967999991175 0.44992672203224227 0.46165119687347334
0.32135580600061076 0.44894968246213973 0.4636052760136786
0.3215418400004637 0.4528578407425501 0.4665363947239862
0.32172790999993595 0.44894968246213973 0.4684904738641915
0.3219443140005751 0.44992672203224227 0.47142159257449934
0.3221384400003444 0.4479726428920372 0.4655593551538837
0.32232639999983803 0.44992672203224227 0.4636052760136786
0.322563061999972 0.44992672203224227 0.46458231558378116
0.3227509660000578 0.44894968246213973 0.4655593551538837
0.3229382039999109 0.44699560332193444 0.467513434294089
0.3231249600003139 0.44992672203224227 0.467513434294089
0.32331210400025157 0.4479726428920372 0.467513434294089
0.3234995640004854 0.44699560332193444 0.46946751343429405
0.3236858760001269 0.4460185637518319 0.47142159257449934
0.3238726500003395 0.44992672203224227 0.4753297508549097
0.32405920200017135 0.4479726428920372 0.4704445530043966
0.32424631000048976 0.4479726428920372 0.47239863214460187
0.32443315900036396 0.4528578407425501 0.47239863214460187
0.3246198220003862 0.44992672203224227 0.47142159257449934
0.3248069850005777 0.44894968246213973 0.4733756717147044
0.3249945560000924 0.44894968246213973 0.47142159257449934
0.3251803490002203 0.44894968246213973 0.47239863214460187
0.3253662160004751 0.44992672203224227 0.47142159257449934
0.32557369400001335 0.4538348803126526 0.47142159257449934
0.32580326400056947 0.4538348803126526 0.4704445530043966
0.3260077229997478 0.45188080117244755 0.47923790913532005
0.3261958869998125 0.4528578407425501 0.4704445530043966
0.3263829200004693 0.4528578407425501 0.4733756717147044
0.32660806400053843 0.4509037616023448 0.47239863214460187
0.32679563500005315 0.4528578407425501 0.4704445530043966
0.3269817239997792 0.45188080117244755 0.4665363947239862
0.3271679800000129 0.4557889594528579 0.46946751343429405
0.3273556809999718 0.4538348803126526 0.4665363947239862
0.3275424000003113 0.45481191988275516 0.46262823644357587
0.3277289520001432 0.45676599902296044 0.46458231558378116
0.32791530000031344 0.45676599902296044 0.4665363947239862
0.3281036670005051 0.45481191988275516 0.4665363947239862
0.32832734900057403 0.4538348803126526 0.46458231558378116
0.3285346410002603 0.4538348803126526 0.46458231558378116
0.32874043399988295 0.45676599902296044 0.46262823644357587
0.3289341340005194 0.457743038593063 0.46165119687347334
0.3291230009999708 0.4557889594528579 0.4606741573033708
0.329308979000416 0.45481191988275516 0.457743038593063
0.3294957540001633 0.45481191988275516 0.4528578407425501
0.32968152800003736 0.45676599902296044 0.45481191988275516
0.3298680799998692 0.45676599902296044 0.44894968246213973
0.33005859600052645 0.4557889594528579 0.4460185637518319
0.330244963000041 0.4557889594528579 0.4460185637518319
0.33043273700059217 0.45969711773326827 0.44406448461162684
0.3306389740000668 0.4557889594528579 0.44406448461162684
0.33082973000000493 0.457743038593063 0.4450415241817294
0.3310171530001753 0.4538348803126526 0.44211040547142155
0.33120487199994386 0.4587200781631655 0.44406448461162684
0.33139110899992374 0.45676599902296044 0.441133365901319
0.3315771429997767 0.45676599902296044 0.4430874450415241
0.3317624360006448 0.45676599902296044 0.441133365901319
0.33194826599992666 0.4528578407425501 0.44211040547142155
0.3321345960002873 0.457743038593063 0.4430874450415241
0.33232011100062664 0.45676599902296044 0.441133365901319
0.3325054970000565 0.457743038593063 0.4401563263312165
0.33269101200039586 0.45481191988275516 0.441133365901319
0.33288006400016457 0.45481191988275516 0.43722520762090866
0.33306876400001784 0.45676599902296044 0.4352711284807034
0.33325516800050536 0.45676599902296044 0.4333170493404983
0.3334407390002525 0.45676599902296044 0.4382022471910112
0.33362662499985163 0.4538348803126526 0.4323400097703958
0.33381264000036026 0.45969711773326827 0.4323400097703958
0.33402111800023704 0.4557889594528579 0.43917928676111373
0.3342068920001111 0.457743038593063 0.4323400097703958
0.3343919630005985 0.45676599902296044 0.43429408891060084
0.3345786079999016 0.457743038593063 0.431362970200293
0.3347644380000929 0.45481191988275516 0.43429408891060084
0.3349501379998401 0.45481191988275516 0.43429408891060084
0.335134857000412 0.4528578407425501 0.43429408891060084
0.3353208540002015 0.45481191988275516 0.43429408891060084
0.3355067950005832 0.45481191988275516 0.431362970200293
0.33569294000062655 0.45676599902296044 0.4333170493404983
0.33587927000007767 0.45481191988275516 0.431362970200293
0.336065544000121 0.45481191988275516 0.431362970200293
0.33625139300056617 0.4538348803126526 0.4352711284807034
0.336437816000398 0.4528578407425501 0.4401563263312165
0.3366232010002932 0.4557889594528579 0.43429408891060084
0.33680975300012506 0.4538348803126526 0.43429408891060084
0.33699541700025293 0.4528578407425501 0.4352711284807034
0.3371812470004443 0.4528578407425501 0.43722520762090866
0.33738848400025745 0.44992672203224227 0.4401563263312165
0.337575332000597 0.44699560332193444 0.441133365901319
0.3377616620000481 0.44699560332193444 0.441133365901319
0.3379499550001128 0.4460185637518319 0.4430874450415241
0.3381376930001352 0.44894968246213973 0.4430874450415241
0.33842437300063466 0.44894968246213973 0.44406448461162684
0.3386305359999824 0.4538348803126526 0.441133365901319
0.3388240690001112 0.44699560332193444 0.4450415241817294
0.3390109370002392 0.44992672203224227 0.44699560332193444
0.3391967289999229 0.45188080117244755 0.45188080117244755
0.33938250400024117 0.44992672203224227 0.4479726428920372
0.33956933399986156 0.44992672203224227 0.44894968246213973
0.3397551830003067 0.44992672203224227 0.4528578407425501
0.33994092000011733 0.4509037616023448 0.4528578407425501
0.3401266390001183 0.45188080117244755 0.4557889594528579
0.340312301999802 0.4509037616023448 0.45676599902296044
0.34049813199999335 0.45188080117244755 0.457743038593063
0.3406839810004385 0.44992672203224227 0.45676599902296044
0.34086940300039714 0.4479726428920372 0.457743038593063
0.3410642890003146 0.44894968246213973 0.45969711773326827
0.3412563780002529 0.4479726428920372 0.45969711773326827
0.34144246699997893 0.4460185637518319 0.46165119687347334
0.3416283160004241 0.4479726428920372 0.46458231558378116
0.3418137389999174 0.4528578407425501 0.467513434294089
0.3420219760000691 0.44992672203224227 0.4665363947239862
0.3422216760000083 0.4509037616023448 0.467513434294089
0.3424423759997808 0.45188080117244755 0.4665363947239862
0.3426390390004599 0.44992672203224227 0.4655593551538837
0.34286233100010577 0.4479726428920372 0.4655593551538837
0.3430662350001512 0.4460185637518319 0.46262823644357587
0.3432658789997731 0.44894968246213973 0.4655593551538837
0.34346437600015634 0.44699560332193444 0.4665363947239862
0.3436633350002012 0.45188080117244755 0.46946751343429405
0.34386646100028884 0.44992672203224227 0.4684904738641915
0.3440621800000372 0.45188080117244755 0.4704445530043966
0.34426062100010313 0.44699560332193444 0.4704445530043966
0.34446646900050837 0.44699560332193444 0.47239863214460187
0.34468646500044997 0.4460185637518319 0.47239863214460187
0.34492997899997135 0.4450415241817294 0.47239863214460187
0.34522369600017555 0.44699560332193444 0.4763067904250122
0.345454007000626 0.4479726428920372 0.47435271128480694
0.3456731699998272 0.45188080117244755 0.4704445530043966
0.34588733300006425 0.4528578407425501 0.4733756717147044
0.3461287540003468 0.45188080117244755 0.47239863214460187
0.34635626900035277 0.45188080117244755 0.47239863214460187
0.34673137299978407 0.4538348803126526 0.46946751343429405
0.34700888699990173 0.4538348803126526 0.4704445530043966
0.34730334500000026 0.4538348803126526 0.4704445530043966
0.3476057839998248 0.4538348803126526 0.467513434294089
0.3479766099999324 0.4528578407425501 0.4655593551538837
0.34823169900028006 0.45481191988275516 0.4636052760136786
0.34845715800020116 0.45481191988275516 0.45969711773326827
0.34870235700054764 0.45481191988275516 0.4606741573033708
0.3489679080003043 0.45481191988275516 0.46165119687347334
0.34918442199978017 0.4557889594528579 0.46165119687347334
0.34939569600010145 0.457743038593063 0.4587200781631655
0.3496057849997669 0.45676599902296044 0.45676599902296044
0.3497969300005934 0.45969711773326827 0.4538348803126526
0.3500357780003469 0.4557889594528579 0.45188080117244755
0.35022466300051747 0.45676599902296044 0.44992672203224227
0.3504186230002233 0.45481191988275516 0.44699560332193444
0.3506081929999709 0.4557889594528579 0.4538348803126526
0.35079394900003535 0.45481191988275516 0.4460185637518319
0.3509795199997825 0.45676599902296044 0.44211040547142155
0.3511664429997836 0.45481191988275516 0.44211040547142155
0.3513524760001019 0.45676599902296044 0.44406448461162684
0.3515382880004836 0.4557889594528579 0.44211040547142155
0.3517272290000619 0.45481191988275516 0.4430874450415241
0.3519132629999149 0.45969711773326827 0.4460185637518319
0.3521012219998738 0.45481191988275516 0.44699560332193444
0.3522875340004248 0.45481191988275516 0.44992672203224227
0.35250777100009145 0.4528578407425501 0.44406448461162684
0.3526938410004732 0.4528578407425501 0.43917928676111373
0.3528803939998397 0.45188080117244755 0.43722520762090866
0.3530664830004753 0.45188080117244755 0.43429408891060084
0.3532535909998842 0.4509037616023448 0.43429408891060084
0.3534397359999275 0.4509037616023448 0.4352711284807034
0.3536267139998017 0.4528578407425501 0.431362970200293
0.3538133590000143 0.4509037616023448 0.4333170493404983
0.3540107810003974 0.4528578407425501 0.43624816805080613
0.3541978889998063 0.4538348803126526 0.4333170493404983
0.35438429300029384 0.4528578407425501 0.43624816805080613
0.35457043800033716 0.4528578407425501 0.431362970200293
0.35475641599987284 0.4528578407425501 0.42940889106008795
0.3549433570005931 0.45481191988275516 0.431362970200293
0.3551301870002135 0.4538348803126526 0.4303859306301905
0.3553162019998126 0.4528578407425501 0.4333170493404983
0.3555027920001521 0.4538348803126526 0.43624816805080613
0.3556883250003011 0.4528578407425501 0.4352711284807034
0.35587467400000605 0.4538348803126526 0.4333170493404983
0.3560647260001133 0.4528578407425501 0.43624816805080613
0.35625226000047405 0.4538348803126526 0.43429408891060084
0.35645268200005376 0.4538348803126526 0.4352711284807034
0.35663834500064695 0.4538348803126526 0.4382022471910112
0.3568251380002039 0.4538348803126526 0.43624816805080613
0.35701098700064904 0.4509037616023448 0.4382022471910112
0.35719602100016346 0.44992672203224227 0.43917928676111373
0.3573813319999317 0.44894968246213973 0.43722520762090866
0.3575679220002712 0.44992672203224227 0.4382022471910112
0.35775367699989147 0.44699560332193444 0.43624816805080613
0.3579423589999351 0.4460185637518319 0.43917928676111373
0.35812952300057077 0.44992672203224227 0.4382022471910112
0.35835055600000487 0.44992672203224227 0.44211040547142155
0.35853725600009057 0.44992672203224227 0.44211040547142155
0.35872253100023954 0.44992672203224227 0.45188080117244755
0.3589123980000295 0.44894968246213973 0.4479726428920372
0.35913900500054297 0.4460185637518319 0.44992672203224227
0.3593264270002692 0.4460185637518319 0.44894968246213973
0.3595135350005876 0.4479726428920372 0.45188080117244755
0.3597018280006523 0.44894968246213973 0.4509037616023448
0.3598882690002938 0.44699560332193444 0.45481191988275516
0.3600773770003798 0.44992672203224227 0.45676599902296044
0.36026366999976744 0.44894968246213973 0.457743038593063
0.36044992600000114 0.44699560332193444 0.4587200781631655
0.36063605199979065 0.44992672203224227 0.4606741573033708
0.36082854899996164 0.44699560332193444 0.46262823644357587
0.361022045000027 0.4460185637518319 0.46262823644357587
0.36123589300041203 0.4450415241817294 0.46458231558378116
0.3614388340001824 0.44699560332193444 0.4636052760136786
0.36163460799980385 0.44992672203224227 0.4655593551538837
0.36182906800058845 0.44699560332193444 0.46262823644357587
0.36204530499981047 0.44894968246213973 0.46262823644357587
0.362234504999833 0.44992672203224227 0.4665363947239862
0.36242528000002494 0.45188080117244755 0.467513434294089
0.3626142390003224 0.45188080117244755 0.46946751343429405
0.3628028840003026 0.44699560332193444 0.4684904738641915
0.36300628800017876 0.44992672203224227 0.467513434294089
0.3631960809998418 0.45188080117244755 0.4704445530043966
0.3633838180003295 0.4479726428920372 0.47239863214460187
0.363572889000352 0.44894968246213973 0.47239863214460187
0.3637594040001204 0.45188080117244755 0.47239863214460187
0.36394691900022735 0.4509037616023448 0.47435271128480694
0.3641328789999534 0.4509037616023448 0.4753297508549097
0.36432072700063145 0.45188080117244755 0.4782608695652173
0.36452746400027536 0.44992672203224227 0.4763067904250122
0.3647311089998766 0.4528578407425501 0.4763067904250122
0.3649229570000898 0.4528578407425501 0.47435271128480694
0.3651104730006409 0.45188080117244755 0.4763067904250122
0.36529734000032477 0.45188080117244755 0.47239863214460187
0.36548474400024134 0.45188080117244755 0.47923790913532005
0.36567224000009446 0.4557889594528579 0.47239863214460187
0.3658588480002436 0.4528578407425501 0.47142159257449934
0.36604845600049885 0.4528578407425501 0.4733756717147044
0.36623530500037305 0.44992672203224227 0.47142159257449934
0.3664222460001838 0.45188080117244755 0.47142159257449934
0.3666089460002695 0.45188080117244755 0.47239863214460187
0.3668010350002078 0.45188080117244755 0.4684904738641915
0.3669876240001031 0.4528578407425501 0.4684904738641915
0.3671744729999773 0.4528578407425501 0.4665363947239862
0.3673609880006552 0.4528578407425501 0.46458231558378116
0.3675477070000852 0.4528578407425501 0.46165119687347334
0.36773522200019215 0.4538348803126526 0.4606741573033708
0.36792308900021453 0.4538348803126526 0.4655593551538837
0.36811151199981396 0.45188080117244755 0.45969711773326827
0.3682985830000689 0.4557889594528579 0.45676599902296044
0.3684856529998797 0.4538348803126526 0.45676599902296044
0.3686723350001557 0.45188080117244755 0.457743038593063
0.3688596649999454 0.4538348803126526 0.4557889594528579
0.3690465320005387 0.4538348803126526 0.45481191988275516
0.36925551000058476 0.45481191988275516 0.4538348803126526
0.3694455619997825 0.45969711773326827 0.45481191988275516
0.36963205900065077 0.45481191988275516 0.4557889594528579
0.3698180930005037 0.4557889594528579 0.4528578407425501
0.3700152560004426 0.4538348803126526 0.4509037616023448
0.3702022710003803 0.4557889594528579 0.4528578407425501
0.37039128600008553 0.4557889594528579 0.4430874450415241
0.3705805050003619 0.45481191988275516 0.4450415241817294
0.3707687790001728 0.4636052760136786 0.4450415241817294
0.3709565540002586 0.45481191988275516 0.44211040547142155
0.37114399500023865 0.45481191988275516 0.44211040547142155
0.37133102900043014 0.4557889594528579 0.441133365901319
0.3715181739999025 0.45676599902296044 0.441133365901319
0.3717049480001151 0.45969711773326827 0.441133365901319
0.3718916670004546 0.45676599902296044 0.44211040547142155
0.3720801079998637 0.45676599902296044 0.441133365901319
0.3722681970002668 0.45676599902296044 0.4401563263312165
0.37246769400007906 0.45969711773326827 0.441133365901319
0.37265615300020727 0.4587200781631655 0.43917928676111373
0.37284339100006036 0.4557889594528579 0.4382022471910112
0.37303001700001914 0.45481191988275516 0.43624816805080613
0.37321764300031646 0.4557889594528579 0.43624816805080613
0.3734051589999581 0.4557889594528579 0.4333170493404983
0.37359261799974774 0.45481191988275516 0.431362970200293
0.3738087070005349 0.45481191988275516 0.4333170493404983
0.374027259000286 0.4538348803126526 0.4352711284807034
0.3742176630003087 0.4557889594528579 0.43624816805080613
0.37440401100047893 0.4557889594528579 0.43722520762090866
0.3745905080004377 0.45481191988275516 0.4382022471910112
0.37477700500039646 0.45481191988275516 0.441133365901319
0.3749640570003976 0.45676599902296044 0.44406448461162684
0.3751507759998276 0.457743038593063 0.4401563263312165
0.37533723500018823 0.45481191988275516 0.43722520762090866
0.375549731999854 0.4538348803126526 0.4352711284807034
0.37577198700000736 0.4557889594528579 0.4352711284807034
0.3759646320004322 0.4557889594528579 0.431362970200293
0.37618277599995054 0.4538348803126526 0.43429408891060084
0.37639645699982793 0.4528578407425501 0.43429408891060084
0.37659513900052843 0.4509037616023448 0.4333170493404983
0.37681963500017446 0.4538348803126526 0.43429408891060084
0.3770161310003459 0.4538348803126526 0.43429408891060084
0.37721666500056017 0.45188080117244755 0.43624816805080613
0.377422717000627 0.4528578407425501 0.43624816805080613
0.37761775000035414 0.44992672203224227 0.43722520762090866
0.37781596900003933 0.44992672203224227 0.441133365901319
0.37809577900043223 0.44894968246213973 0.44406448461162684
0.3783361639998475 0.44992672203224227 0.44992672203224227
0.37860260300021764 0.4509037616023448 0.457743038593063
0.37884952500007785 0.45188080117244755 0.4636052760136786
0.3790922980006144 0.45481191988275516 0.46165119687347334
0.3792985170002794 0.44992672203224227 0.4538348803126526
0.3795081059997756 0.44992672203224227 0.4460185637518319
0.3797323420003522 0.44894968246213973 0.4382022471910112
0.37997324600019056 0.4479726428920372 0.4401563263312165
0.38024466700062476 0.44406448461162684 0.43722520762090866
0.3805224770003406 0.44406448461162684 0.4450415241817294
0.38080297200031055 0.4450415241817294 0.45188080117244755
0.3810651889998553 0.4479726428920372 0.4557889594528579
0.38134144300056505 0.4460185637518319 0.4606741573033708
0.38157664299978933 0.44699560332193444 0.4665363947239862
0.38179549100004806 0.44992672203224227 0.46946751343429405
0.38201393200051825 0.44992672203224227 0.4684904738641915
0.3822030210003504 0.44894968246213973 0.47142159257449934
0.38239020299988624 0.44894968246213973 0.4704445530043966
0.3825773839998874 0.45188080117244755 0.46946751343429405
0.38276375199984614 0.4509037616023448 0.47142159257449934
0.3829974880000009 0.4528578407425501 0.4704445530043966
0.38319131800017203 0.4538348803126526 0.4733756717147044
0.3833789810005328 0.4528578407425501 0.47239863214460187
0.3835655520006185 0.4538348803126526 0.4733756717147044
0.3837520860006407 0.4538348803126526 0.4733756717147044
0.3839385270002822 0.45481191988275516 0.47435271128480694
0.3841252460006217 0.4557889594528579 0.4753297508549097
0.38431179800045356 0.45481191988275516 0.47239863214460187
0.38449790600043343 0.45969711773326827 0.46946751343429405
0.3846848470002442 0.4538348803126526 0.467513434294089
0.38487243600047805 0.4528578407425501 0.467513434294089
0.38505850700039446 0.4528578407425501 0.4665363947239862
0.38524683700052265 0.457743038593063 0.4655593551538837
0.38543335200029105 0.4528578407425501 0.4655593551538837
0.38561999700050364 0.45676599902296044 0.4684904738641915
0.3858064940004624 0.4557889594528579 0.4655593551538837
0.38602619399989635 0.4538348803126526 0.4684904738641915
0.38621437500023603 0.4538348803126526 0.4684904738641915
0.38640244599992 0.4509037616023448 0.4733756717147044
0.3865920719999849 0.4557889594528579 0.4704445530043966
0.38677914300023986 0.4528578407425501 0.4684904738641915
0.386965751000389 0.45481191988275516 0.47239863214460187
0.3871517480001785 0.45188080117244755 0.47239863214460187
0.38733778100049676 0.45676599902296044 0.4753297508549097
0.38752455600024405 0.45676599902296044 0.47239863214460187
0.387711312000647 0.45969711773326827 0.47239863214460187
0.38789751200056344 0.4557889594528579 0.46946751343429405
0.38808332400003565 0.45481191988275516 0.47142159257449934
0.3882693570003539 0.4606741573033708 0.47239863214460187
0.3884563910005454 0.45969711773326827 0.4655593551538837
0.3886424990005253 0.4606741573033708 0.46165119687347334
0.38882868100063206 0.45676599902296044 0.46165119687347334
0.38901510300001974 0.45969711773326827 0.46165119687347334
0.38920176700048614 0.457743038593063 0.4587200781631655
0.38938815199981036 0.46165119687347334 0.457743038593063
0.38957531600044604 0.46262823644357587 0.457743038593063
0.38976183100021444 0.45969711773326827 0.45969711773326827
0.3899802900004943 0.46165119687347334 0.4557889594528579
0.39016771299975517 0.4587200781631655 0.45481191988275516
0.39035395000064455 0.45676599902296044 0.4538348803126526
0.3905402239997784 0.457743038593063 0.4528578407425501
0.39072653600032936 0.45676599902296044 0.4509037616023448
0.39091421800003445 0.457743038593063 0.44992672203224227
0.3911021769999934 0.4587200781631655 0.4460185637518319
0.39128854400041746 0.4636052760136786 0.44992672203224227
0.3914747630005877 0.4587200781631655 0.4450415241817294
0.39166155600014463 0.4557889594528579 0.4460185637518319
0.391847941999913 0.45969711773326827 0.44406448461162684
0.39203427200027363 0.457743038593063 0.44699560332193444
0.392227768000339 0.45969711773326827 0.441133365901319
0.3924461719998362 0.45676599902296044 0.441133365901319
0.39263270599985844 0.4606741573033708 0.44211040547142155
0.3928194620002614 0.46262823644357587 0.43722520762090866
0.3930058840005586 0.46165119687347334 0.4382022471910112
0.3931928070005597 0.45969711773326827 0.4382022471910112
0.3933793780006454 0.4587200781631655 0.43917928676111373
0.39356618900001195 0.45969711773326827 0.43722520762090866
0.3937577599999713 0.4655593551538837 0.43624816805080613
0.3939663669998481 0.45481191988275516 0.43429408891060084
0.39418521500010684 0.4538348803126526 0.431362970200293
0.3944048040002599 0.45481191988275516 0.4303859306301905
0.3946028190002835 0.45481191988275516 0.43429408891060084
0.39479548200051795 0.45481191988275516 0.43429408891060084
0.3949824970004556 0.457743038593063 0.4352711284807034
0.39517138300016086 0.45481191988275516 0.43722520762090866
0.39535756500026764 0.457743038593063 0.4382022471910112
0.39554630200018437 0.45481191988275516 0.4382022471910112
0.39573165100046026 0.4538348803126526 0.43722520762090866
0.39591744400058815 0.4557889594528579 0.4382022471910112
0.39610414399976435 0.45969711773326827 0.4401563263312165
0.3962904930003788 0.45481191988275516 0.4352711284807034
0.3964759890004643 0.45188080117244755 0.43624816805080613
0.39666206000038073 0.45188080117244755 0.43722520762090866
0.3968482420004875 0.45188080117244755 0.43624816805080613
0.397034239000277 0.4509037616023448 0.4382022471910112
0.39722116099983396 0.4528578407425501 0.43917928676111373
0.3974069169998984 0.4538348803126526 0.441133365901319
0.397592803000407 0.44699560332193444 0.4450415241817294
0.3977813359997526 0.44406448461162684 0.44406448461162684
0.3980599610003992 0.4450415241817294 0.4460185637518319
0.3982475319999139 0.44699560332193444 0.44699560332193444
0.39843523200033815 0.4479726428920372 0.44992672203224227
0.39862259900019126 0.4430874450415241 0.45188080117244755
0.3988101889999598 0.44406448461162684 0.45188080117244755
0.39900774099987757 0.4479726428920372 0.4528578407425501
0.39919612599987886 0.44699560332193444 0.44992672203224227
0.39938354900004924 0.44992672203224227 0.44699560332193444
0.3995713419999447 0.44699560332193444 0.4538348803126526
0.39975741200032644 0.44894968246213973 0.44992672203224227
0.39994329799992556 0.4460185637518319 0.44992672203224227
0.4001299060000747 0.44894968246213973 0.4509037616023448
0.40031710600032966 0.44699560332193444 0.4509037616023448
0.4005033809999077 0.4450415241817294 0.4557889594528579
0.40069519200005743 0.4479726428920372 0.46165119687347334
0.4008839670004818 0.4450415241817294 0.46165119687347334
0.4010704080001233 0.44894968246213973 0.46165119687347334
0.40126190400042105 0.4460185637518319 0.46946751343429405
0.401450289999957 0.4460185637518319 0.4684904738641915
0.40163717500036 0.4528578407425501 0.467513434294089
0.4018250050003189 0.45188080117244755 0.467513434294089
0.40201440900000307 0.4528578407425501 0.47239863214460187
0.402212850000069 0.4528578407425501 0.4665363947239862
0.4024020880005992 0.44699560332193444 0.467513434294089
0.4025881580000714 0.4460185637518319 0.47142159257449934
0.4027754700000514 0.44992672203224227 0.4733756717147044
0.4029625410003064 0.4460185637518319 0.46946751343429405
0.4031486109997786 0.4479726428920372 0.4733756717147044
0.403336627000499 0.44992672203224227 0.47239863214460187
0.4035239940003521 0.44992672203224227 0.4753297508549097
0.4037108239999725 0.4460185637518319 0.47728382999511476
0.4038979679999102 0.44992672203224227 0.4753297508549097
0.4040856689998691 0.4479726428920372 0.4753297508549097
0.4042723689999548 0.44992672203224227 0.47239863214460187
0.4044598099999348 0.44699560332193444 0.47239863214460187
0.404646937000507 0.4479726428920372 0.4763067904250122
0.404833544000212 0.44894968246213973 0.4753297508549097
0.40502017100061494 0.45188080117244755 0.47239863214460187
0.4052239450002162 0.4538348803126526 0.4782608695652173
0.4054128120005771 0.4528578407425501 0.4733756717147044
0.40560045700021874 0.4528578407425501 0.4733756717147044
0.4057877679997546 0.4557889594528579 0.4704445530043966
0.40601217200037354 0.4538348803126526 0.47239863214460187
0.40621111300060875 0.45481191988275516 0.47142159257449934
0.40639705400008097 0.45676599902296044 0.47142159257449934
