0 0.4538348803126526 0.4303859306301905
0.0005244730000413256 0.45481191988275516 0.42745481191988266
0.0007456169996657991 0.4538348803126526 0.42940889106008795
0.0009483350004302338 0.4528578407425501 0.4323400097703958
0.0011773870000979514 0.44894968246213973 0.42940889106008795
0.0013900310004828498 0.4538348803126526 0.4323400097703958
0.0015877870000622352 0.4538348803126526 0.4323400097703958
0.0018393930004094727 0.4538348803126526 0.43722520762090866
0.0020335939998403774 0.45188080117244755 0.4303859306301905
0.002226775000053749 0.4557889594528579 0.431362970200293
0.0024213090000557713 0.4538348803126526 0.4333170493404983
0.0026116389999515377 0.4509037616023448 0.4303859306301905
0.0028005240001220955 0.44992672203224227 0.431362970200293
0.0029897249996793107 0.4509037616023448 0.4333170493404983
0.003180702999998175 0.45188080117244755 0.43429408891060084
0.0033711810001477716 0.45188080117244755 0.43429408891060084
0.003560011000445229 0.44992672203224227 0.4333170493404983
0.00375243300004513 0.45188080117244755 0.43624816805080613
0.003948837000280037 0.4509037616023448 0.441133365901319
0.004163630000221019 0.4509037616023448 0.44406448461162684
0.004365996000160521 0.45188080117244755 0.4460185637518319
0.004557197000394808 0.4479726428920372 0.44894968246213973
0.004747304000375152 0.44894968246213973 0.45188080117244755
0.004937505000270903 0.44699560332193444 0.4538348803126526
0.005129334999764978 0.4479726428920372 0.4538348803126526
0.005318534999787516 0.44992672203224227 0.4538348803126526
0.005509530999916024 0.44992672203224227 0.4528578407425501
0.005747879000409739 0.44992672203224227 0.45481191988275516
0.005938819999755651 0.44699560332193444 0.4557889594528579
0.00612652000017988 0.44992672203224227 0.457743038593063
0.006317997999758518 0.44699560332193444 0.45676599902296044
0.0065138279996972415 0.44699560332193444 0.45676599902296044
0.0067031770004177815 0.4538348803126526 0.45481191988275516
0.006900266000229749 0.44699560332193444 0.45676599902296044
0.007088911000209919 0.4528578407425501 0.45676599902296044
0.007277554999745917 0.44894968246213973 0.4606741573033708
0.007465644999683718 0.44894968246213973 0.45969711773326827
0.007653437000044505 0.4460185637518319 0.4606741573033708
0.007841933999770845 0.4479726428920372 0.4655593551538837
0.008031375000427943 0.4479726428920372 0.4636052760136786
0.008219649999773537 0.44699560332193444 0.46262823644357587
0.00842566400024225 0.44992672203224227 0.4655593551538837
0.008620067999800085 0.4528578407425501 0.4655593551538837
0.008811286999844015 0.44992672203224227 0.4665363947239862
0.009012301999973715 0.44992672203224227 0.467513434294089
0.009202612999615667 0.4479726428920372 0.4704445530043966
0.009392814000420913 0.44992672203224227 0.4704445530043966
0.00958123600048566 0.44992672203224227 0.4704445530043966
0.009802714000215929 0.44992672203224227 0.47435271128480694
0.010012431999712135 0.44894968246213973 0.4733756717147044
0.010206169999946724 0.4509037616023448 0.47239863214460187
0.010394666000138386 0.4450415241817294 0.47239863214460187
0.010583811000287824 0.4460185637518319 0.4763067904250122
0.010775530000501021 0.4450415241817294 0.4763067904250122
0.010975785000482574 0.4460185637518319 0.47728382999511476
0.011190485000042827 0.4479726428920372 0.4782608695652173
0.011428351000176917 0.4460185637518319 0.4763067904250122
0.011648235999928147 0.44699560332193444 0.4753297508549097
0.011874677000378142 0.4450415241817294 0.47728382999511476
0.012083599000106915 0.44699560332193444 0.47728382999511476
0.01230433599994285 0.44699560332193444 0.4733756717147044
0.012551331000395294 0.44894968246213973 0.47435271128480694
0.012770715999977256 0.44894968246213973 0.4733756717147044
0.01302389700049389 0.44894968246213973 0.47239863214460187
0.013263447999634081 0.45188080117244755 0.4704445530043966
0.013477907000378764 0.4528578407425501 0.46946751343429405
0.013746790999903169 0.44894968246213973 0.46946751343429405
0.013978564999888476 0.4479726428920372 0.467513434294089
0.01418567200016696 0.4479726428920372 0.46262823644357587
0.01438879800025461 0.44894968246213973 0.4655593551538837
0.01460018299985677 0.44894968246213973 0.467513434294089
0.01487758599978406 0.44894968246213973 0.46458231558378116
0.015115100000002712 0.4509037616023448 0.46262823644357587
0.015329984999880253 0.44992672203224227 0.4606741573033708
0.015545610999652126 0.44992672203224227 0.45969711773326827
0.01577121799982706 0.4450415241817294 0.45676599902296044
0.016028195000217238 0.44894968246213973 0.4557889594528579
0.01630339399980585 0.45188080117244755 0.4557889594528579
0.016564962999837007 0.45188080117244755 0.457743038593063
0.016808199000479362 0.45188080117244755 0.4528578407425501
0.017043103000105475 0.45481191988275516 0.4509037616023448
0.017288097999880847 0.4509037616023448 0.44894968246213973
0.01755226000022958 0.4528578407425501 0.44211040547142155
0.01867907300038496 0.4528578407425501 0.4401563263312165
0.019067066000388877 0.45481191988275516 0.43917928676111373
0.01934928399987257 0.4538348803126526 0.4382022471910112
0.019649593000394816 0.4528578407425501 0.441133365901319
0.019930624999688007 0.45481191988275516 0.43624816805080613
0.02020508300029178 0.4538348803126526 0.4333170493404983
0.020506689000285405 0.4538348803126526 0.43429408891060084
0.020779665000191017 0.4538348803126526 0.4333170493404983
0.021067994000077306 0.4528578407425501 0.4382022471910112
0.021347765999962576 0.4528578407425501 0.4352711284807034
0.021759889000350086 0.4557889594528579 0.4352711284807034
0.022113938000074995 0.45481191988275516 0.4382022471910112
0.022410006999962206 0.4538348803126526 0.43429408891060084
0.022706001000187825 0.4557889594528579 0.4323400097703958
0.022992070000327658 0.4509037616023448 0.431362970200293
0.023280194999642845 0.45188080117244755 0.431362970200293
0.023555781999675673 0.4509037616023448 0.43429408891060084
0.0238399620002383 0.44894968246213973 0.43722520762090866
0.024134291000336816 0.4557889594528579 0.43722520762090866
0.02440693399967131 0.45188080117244755 0.43917928676111373
0.0246460959997421 0.44992672203224227 0.4382022471910112
0.024852685000041674 0.44992672203224227 0.44211040547142155
0.025078143999962776 0.4528578407425501 0.44211040547142155
0.025333565000437375 0.45676599902296044 0.4450415241817294
0.025688577000437363 0.45188080117244755 0.44894968246213973
0.026012700999672234 0.4479726428920372 0.44992672203224227
0.026311399999940477 0.4479726428920372 0.4557889594528579
0.02660865400048351 0.44992672203224227 0.457743038593063
0.026854575000470504 0.4479726428920372 0.45676599902296044
0.027076997000222036 0.4479726428920372 0.457743038593063
0.027307678000397573 0.44699560332193444 0.45969711773326827
0.02786072399976547 0.4479726428920372 0.46165119687347334
0.028202477000377257 0.4460185637518319 0.46262823644357587
0.028452139000364696 0.4479726428920372 0.46262823644357587
0.02867267199962953 0.44992672203224227 0.46946751343429405
0.02886853899963171 0.4460185637518319 0.46458231558378116
0.029059313000288967 0.4450415241817294 0.46165119687347334
0.029249494999930903 0.44699560332193444 0.467513434294089
0.029440492000503582 0.4479726428920372 0.467513434294089
0.029683339000257547 0.44992672203224227 0.4704445530043966
0.029881854000450403 0.44992672203224227 0.4733756717147044
0.03007110999988072 0.4509037616023448 0.47239863214460187
0.03026006999971287 0.4479726428920372 0.47239863214460187
0.030452807000074245 0.44992672203224227 0.47239863214460187
0.03067209900018497 0.44894968246213973 0.4704445530043966
0.03092816899970785 0.44894968246213973 0.47239863214460187
0.03154676899976039 0.4479726428920372 0.4684904738641915
0.0320290939998813 0.44992672203224227 0.4665363947239862
0.03226418200029002 0.4479726428920372 0.46946751343429405
0.03248467800040089 0.45188080117244755 0.46946751343429405
0.032742209999923944 0.457743038593063 0.4684904738641915
0.03294531800020195 0.4528578407425501 0.47142159257449934
0.03314638800020475 0.45188080117244755 0.46946751343429405
0.03334958800041932 0.4528578407425501 0.4684904738641915
0.03354986300018936 0.4528578407425501 0.46946751343429405
0.03375897000023542 0.4528578407425501 0.4665363947239862
0.03395128099964495 0.4538348803126526 0.46458231558378116
0.0341436850003447 0.4557889594528579 0.467513434294089
0.034334255999965535 0.45188080117244755 0.467513434294089
0.03452947500045411 0.4538348803126526 0.46165119687347334
0.03471778600032849 0.4528578407425501 0.46165119687347334
0.034904672000266146 0.45481191988275516 0.4606741573033708
0.03509401999963302 0.4538348803126526 0.46262823644357587
0.03528131300026871 0.45481191988275516 0.4557889594528579
0.03547212499961461 0.4538348803126526 0.4587200781631655
0.035660380000081204 0.45188080117244755 0.45676599902296044
0.03585548800037941 0.45188080117244755 0.4587200781631655
0.036044725000465405 0.4528578407425501 0.46165119687347334
0.03623211099966284 0.4509037616023448 0.45676599902296044
0.03642034800031979 0.4509037616023448 0.457743038593063
0.03660708600000362 0.45188080117244755 0.4528578407425501
0.03679441599979327 0.45188080117244755 0.44894968246213973
0.036982079000154044 0.44992672203224227 0.44406448461162684
0.03717163100009202 0.45481191988275516 0.44699560332193444
0.037361276000410726 0.4528578407425501 0.44406448461162684
0.03755279100005282 0.4509037616023448 0.44211040547142155
0.03774721300032979 0.4509037616023448 0.43917928676111373
0.037936079999781214 0.45481191988275516 0.43917928676111373
0.03812331799963431 0.4538348803126526 0.4450415241817294
0.038310537000143086 0.4528578407425501 0.4401563263312165
0.03849864400035585 0.4528578407425501 0.441133365901319
0.03868578899982822 0.4528578407425501 0.441133365901319
0.03887298999961786 0.4528578407425501 0.44211040547142155
0.03906059699966136 0.4509037616023448 0.44406448461162684
0.039247945999704825 0.4509037616023448 0.44211040547142155
0.03943572000025597 0.44992672203224227 0.4401563263312165
0.03962430899991887 0.45188080117244755 0.43917928676111373
0.0398126019999836 0.45188080117244755 0.43917928676111373
0.04001683899969066 0.4528578407425501 0.4382022471910112
0.04020576200036885 0.4528578407425501 0.4382022471910112
0.04039437000028556 0.45481191988275516 0.43722520762090866
0.04058307000013883 0.45676599902296044 0.4382022471910112
0.04077680699992925 0.4528578407425501 0.4382022471910112
0.04096489699986705 0.4528578407425501 0.43722520762090866
0.04115272699982597 0.45188080117244755 0.43917928676111373
0.04134068599978491 0.45188080117244755 0.441133365901319
0.041527923999638006 0.45188080117244755 0.44406448461162684
0.041735105000043404 0.45188080117244755 0.44211040547142155
0.04193275000034191 0.4528578407425501 0.4401563263312165
0.04212567200011108 0.4528578407425501 0.43722520762090866
0.042316408999795385 0.4538348803126526 0.43722520762090866
0.042507627999839315 0.4528578407425501 0.4352711284807034
0.04269925399967178 0.44992672203224227 0.4333170493404983
0.042890583999906085 0.44894968246213973 0.431362970200293
0.04308121099984419 0.44992672203224227 0.4333170493404983
0.04327272600039578 0.4479726428920372 0.431362970200293
0.04346364800039737 0.44992672203224227 0.43624816805080613
0.04365505199984909 0.44894968246213973 0.43917928676111373
0.0438457339996603 0.44699560332193444 0.44211040547142155
0.044040230000064184 0.4479726428920372 0.4430874450415241
0.04424180099977093 0.4479726428920372 0.44699560332193444
0.04443816799994238 0.44992672203224227 0.4460185637518319
0.044637201000114146 0.4479726428920372 0.45188080117244755
0.04483142000026419 0.4460185637518319 0.4479726428920372
0.045104322000042885 0.4460185637518319 0.4479726428920372
0.045304410999960965 0.4479726428920372 0.44699560332193444
0.045536444000390475 0.4450415241817294 0.44699560332193444
0.04578068099999655 0.45188080117244755 0.44992672203224227
0.04598473300029582 0.44992672203224227 0.4509037616023448
0.04618335899976955 0.44699560332193444 0.45188080117244755
0.046374689000003855 0.44699560332193444 0.4538348803126526
0.04658577700047317 0.44992672203224227 0.45676599902296044
0.04679453300013847 0.44992672203224227 0.4606741573033708
0.047029176999785705 0.44992672203224227 0.46458231558378116
0.04728045000047132 0.4479726428920372 0.4655593551538837
0.04755779700008134 0.4460185637518319 0.4636052760136786
0.047786682000150904 0.4460185637518319 0.467513434294089
0.048006306999923254 0.45188080117244755 0.467513434294089
0.04821478499980003 0.44699560332193444 0.4704445530043966
0.04854270499981794 0.4460185637518319 0.4684904738641915
0.04877127500003553 0.4528578407425501 0.4684904738641915
0.04896904999986873 0.4509037616023448 0.46946751343429405
0.04916787900037889 0.44894968246213973 0.4665363947239862
0.04936632000044483 0.4528578407425501 0.46946751343429405
0.049683074000313354 0.4528578407425501 0.4684904738641915
0.04993344000013167 0.4479726428920372 0.46946751343429405
0.050370506000035675 0.44894968246213973 0.47239863214460187
0.05071990699980233 0.4479726428920372 0.47435271128480694
0.050991273000363435 0.4528578407425501 0.47435271128480694
0.05123165700024401 0.44992672203224227 0.47239863214460187
0.05146524599967961 0.4509037616023448 0.47239863214460187
0.05166113100040093 0.45188080117244755 0.4763067904250122
0.051857663999726356 0.4509037616023448 0.47239863214460187
0.052056456999707734 0.45188080117244755 0.47239863214460187
0.0522516569999425 0.45188080117244755 0.47142159257449934
0.05245465400003013 0.4538348803126526 0.4733756717147044
0.05264974300007452 0.4528578407425501 0.4704445530043966
0.05284757299978082 0.45481191988275516 0.4704445530043966
0.05304536499988899 0.4538348803126526 0.47142159257449934
0.05324958399978641 0.4538348803126526 0.4684904738641915
0.05345493200002238 0.45676599902296044 0.4684904738641915
0.05404477299998689 0.4509037616023448 0.46262823644357587
0.054539191000003484 0.4528578407425501 0.4606741573033708
0.054841592999764543 0.4528578407425501 0.4636052760136786
0.05510408800000732 0.4528578407425501 0.467513434294089
0.055396323000422854 0.45481191988275516 0.45969711773326827
0.05598336799994286 0.457743038593063 0.45481191988275516
0.05627338199974474 0.45481191988275516 0.4460185637518319
0.0565214879998166 0.4557889594528579 0.44211040547142155
0.05671878100019967 0.457743038593063 0.43722520762090866
0.05698479500006215 0.4557889594528579 0.43624816805080613
0.057180791000064346 0.45481191988275516 0.43429408891060084
0.05738060299972858 0.4557889594528579 0.4352711284807034
0.057579821000217635 0.4538348803126526 0.43624816805080613
0.05786118699961662 0.45676599902296044 0.4382022471910112
0.05806273899997905 0.457743038593063 0.4401563263312165
0.05825973500031978 0.457743038593063 0.43917928676111373
0.058456306000152836 0.457743038593063 0.441133365901319
0.05865320900011284 0.457743038593063 0.44406448461162684
0.05915518199981307 0.457743038593063 0.44406448461162684
0.05936219700015499 0.45676599902296044 0.44406448461162684
0.05958282200026588 0.4557889594528579 0.44211040547142155
0.059780874000352924 0.4557889594528579 0.4401563263312165
0.059971223000502505 0.4528578407425501 0.43624816805080613
0.06016081200050394 0.4528578407425501 0.4323400097703958
0.060349567999764986 0.4528578407425501 0.4323400097703958
0.06054113899972435 0.4538348803126526 0.4264777723497801
0.06073324600038177 0.45481191988275516 0.4264777723497801
0.06095105700023851 0.46165119687347334 0.4264777723497801
0.06114055400030338 0.46458231558378116 0.42745481191988266
0.06132932800028357 0.4606741573033708 0.4264777723497801
0.06151780599975609 0.45481191988275516 0.42940889106008795
0.06175132099997427 0.4557889594528579 0.4284318514899854
0.06194083599984879 0.4538348803126526 0.4303859306301905
0.06214081400048599 0.4538348803126526 0.4303859306301905
0.06245890100035467 0.45188080117244755 0.431362970200293
0.06271130300046934 0.4528578407425501 0.4333170493404983
0.06291602199962654 0.45188080117244755 0.4352711284807034
0.06311088900019968 0.4479726428920372 0.43722520762090866
0.06330910799988487 0.44894968246213973 0.43722520762090866
0.06351838200043858 0.4538348803126526 0.4401563263312165
0.06372515600014594 0.4509037616023448 0.4430874450415241
0.06396385500011093 0.45676599902296044 0.44894968246213973
0.06419227700007468 0.45188080117244755 0.4509037616023448
0.06443066199972236 0.44992672203224227 0.44699560332193444
0.06464017600046645 0.44894968246213973 0.441133365901319
0.0648408950000885 0.45188080117244755 0.43917928676111373
0.06504244700045092 0.44894968246213973 0.44406448461162684
0.06525088800026424 0.44992672203224227 0.4401563263312165
0.06545164300041506 0.44894968246213973 0.44211040547142155
0.06569539799966151 0.4538348803126526 0.4460185637518319
0.06592785700013337 0.4509037616023448 0.45481191988275516
0.06615629699990677 0.44992672203224227 0.45969711773326827
0.06638427500001853 0.44992672203224227 0.4606741573033708
0.06660793700029899 0.44699560332193444 0.46165119687347334
0.06682400800036703 0.4460185637518319 0.46165119687347334
0.06702978199973586 0.4479726428920372 0.46458231558378116
0.06722279699988576 0.4460185637518319 0.45969711773326827
0.06741425600012008 0.4479726428920372 0.46165119687347334
0.06760571599988907 0.4450415241817294 0.4606741573033708
0.06779745299991191 0.44699560332193444 0.45969711773326827
0.06798861599963857 0.44894968246213973 0.46165119687347334
0.068181464999725 0.44699560332193444 0.46165119687347334
0.0683749429999807 0.44699560332193444 0.46165119687347334
0.06856917999994039 0.4460185637518319 0.46262823644357587
0.06876308400023845 0.4479726428920372 0.4636052760136786
0.06901139399997192 0.44699560332193444 0.46262823644357587
0.06920526100020652 0.4460185637518319 0.4655593551538837
0.06939710999995441 0.4460185637518319 0.4684904738641915
0.06965362400023878 0.4479726428920372 0.4655593551538837
0.06987119400037045 0.4460185637518319 0.47435271128480694
0.07005996800035064 0.44699560332193444 0.4684904738641915
0.07024826100041537 0.44699560332193444 0.4684904738641915
0.07043764700028987 0.4450415241817294 0.46946751343429405
0.07062653200046043 0.44406448461162684 0.4704445530043966
0.07081449199995404 0.4460185637518319 0.4684904738641915
0.07100595100018836 0.4460185637518319 0.467513434294089
0.07173775299997942 0.4450415241817294 0.467513434294089
0.07193054599974857 0.4479726428920372 0.46458231558378116
0.07212011600040569 0.4479726428920372 0.4655593551538837
0.07230898299985711 0.44894968246213973 0.46946751343429405
0.07249683200006984 0.44699560332193444 0.4665363947239862
0.07268595799996547 0.44894968246213973 0.467513434294089
0.07287362100032624 0.44992672203224227 0.4665363947239862
0.07306232199971419 0.4509037616023448 0.467513434294089
0.07325022599980002 0.44992672203224227 0.467513434294089
0.07344216700039397 0.44894968246213973 0.46458231558378116
0.07365671899970039 0.4538348803126526 0.4655593551538837
0.0738553259998298 0.44894968246213973 0.46262823644357587
0.0740473040004872 0.44992672203224227 0.46165119687347334
0.07424013400031981 0.45188080117244755 0.46262823644357587
0.07443361199966603 0.44992672203224227 0.4606741573033708
0.07462520100034453 0.4528578407425501 0.4587200781631655
0.07481628999994427 0.44992672203224227 0.4636052760136786
0.07500804600022093 0.45188080117244755 0.46165119687347334
0.07520246900003258 0.45188080117244755 0.4655593551538837
0.07539527999961138 0.4509037616023448 0.4684904738641915
0.07558746199993038 0.45188080117244755 0.4704445530043966
0.07578021799963608 0.4528578407425501 0.46458231558378116
0.07597338100003981 0.4509037616023448 0.45969711773326827
0.07616404400050669 0.45481191988275516 0.45676599902296044
0.07635546700021223 0.4538348803126526 0.45188080117244755
0.07654648199968506 0.45481191988275516 0.44992672203224227
0.07673721900027886 0.4557889594528579 0.44992672203224227
0.0769281230004708 0.45676599902296044 0.44992672203224227
0.07712176800032466 0.457743038593063 0.44894968246213973
0.07731437500024185 0.4636052760136786 0.45188080117244755
0.07753609399969719 0.457743038593063 0.44992672203224227
0.07774520099974325 0.4557889594528579 0.4450415241817294
0.07794284600004175 0.4557889594528579 0.4430874450415241
0.0781557119998979 0.4557889594528579 0.4401563263312165
0.07836731899988081 0.457743038593063 0.441133365901319
0.0786017600003106 0.45676599902296044 0.441133365901319
0.0788119970002299 0.45676599902296044 0.43917928676111373
0.07901054900048621 0.45969711773326827 0.43917928676111373
0.07927232200017897 0.45481191988275516 0.4382022471910112
0.07958107499962352 0.457743038593063 0.43624816805080613
0.07989021800040064 0.4528578407425501 0.4382022471910112
0.08020513799965556 0.45481191988275516 0.44699560332193444
0.08045648600000277 0.4557889594528579 0.4401563263312165
0.08073316599984537 0.4528578407425501 0.44211040547142155
0.08094429199991282 0.4528578407425501 0.4509037616023448
0.08114986199962004 0.45188080117244755 0.4430874450415241
0.08139939499960747 0.45188080117244755 0.43917928676111373
0.08165748299961706 0.44992672203224227 0.43722520762090866
0.08187768199968559 0.44894968246213973 0.43429408891060084
0.082069216000491 0.45188080117244755 0.4333170493404983
0.08225830500032316 0.44894968246213973 0.43722520762090866
0.08244761700007075 0.4538348803126526 0.4333170493404983
0.08267115000035119 0.4606741573033708 0.4323400097703958
0.08286055400003534 0.4606741573033708 0.4333170493404983
0.08304853200024809 0.44992672203224227 0.4303859306301905
0.08323706600003788 0.45188080117244755 0.4303859306301905
0.08342752499993367 0.4509037616023448 0.431362970200293
0.08361618799972348 0.4528578407425501 0.43429408891060084
0.0838048699997671 0.4509037616023448 0.431362970200293
0.08399362599993765 0.44992672203224227 0.4323400097703958
0.08418204900044657 0.4509037616023448 0.4333170493404983
0.08436995299962291 0.4528578407425501 0.43722520762090866
0.08455813399996259 0.4528578407425501 0.4382022471910112
0.08474559400019643 0.4528578407425501 0.441133365901319
0.08493346100021881 0.4509037616023448 0.441133365901319
0.08512131000043155 0.45188080117244755 0.441133365901319
0.08530930600045394 0.45188080117244755 0.44211040547142155
0.0854963769997994 0.44992672203224227 0.4450415241817294
0.08570035499997175 0.44894968246213973 0.4460185637518319
0.08588820299974032 0.44894968246213973 0.44699560332193444
0.08607618099995307 0.44894968246213973 0.45676599902296044
0.08626812199963751 0.44894968246213973 0.4509037616023448
0.08647600800031796 0.4479726428920372 0.4538348803126526
0.0868762970003445 0.4479726428920372 0.4528578407425501
0.08711197800039372 0.4450415241817294 0.4557889594528579
0.08731978900050308 0.4460185637518319 0.45969711773326827
0.08751046999987011 0.4450415241817294 0.46262823644357587
0.08769948600001953 0.44699560332193444 0.4636052760136786
0.0879090560001714 0.4460185637518319 0.4606741573033708
0.0880988859998979 0.44699560332193444 0.4684904738641915
0.08828771600019536 0.4450415241817294 0.4665363947239862
0.08847584199975245 0.4460185637518319 0.4655593551538837
0.08866437600045174 0.44894968246213973 0.467513434294089
0.0889006489996973 0.4557889594528579 0.46946751343429405
0.08910157199989044 0.4460185637518319 0.4704445530043966
0.08929812400037918 0.4528578407425501 0.4782608695652173
0.08949874999962049 0.4450415241817294 0.4782608695652173
0.08974161599962827 0.4460185637518319 0.47728382999511476
0.08996903800016298 0.44699560332193444 0.4733756717147044
0.09020929300004354 0.4509037616023448 0.47142159257449934
0.09043617699990136 0.44894968246213973 0.4704445530043966
0.09063859999969281 0.4479726428920372 0.4763067904250122
0.09083774400005495 0.45481191988275516 0.4665363947239862
0.09103368500018405 0.44894968246213973 0.4655593551538837
0.09122423700046056 0.4509037616023448 0.4655593551538837
0.09143328899972403 0.4528578407425501 0.4655593551538837
0.09166935899975215 0.45188080117244755 0.4684904738641915
0.09189213300032861 0.4528578407425501 0.467513434294089
0.09209531400028936 0.4528578407425501 0.46946751343429405
0.0922966810003345 0.4509037616023448 0.4655593551538837
0.09249713999997766 0.45188080117244755 0.4665363947239862
0.0926967670002341 0.45188080117244755 0.467513434294089
0.09289492999960203 0.4538348803126526 0.4655593551538837
0.09309827800007042 0.4528578407425501 0.467513434294089
0.09333127399986552 0.4538348803126526 0.4636052760136786
0.09356641799968202 0.4557889594528579 0.4636052760136786
0.09376419199998054 0.4528578407425501 0.4606741573033708
0.09395691099962278 0.4587200781631655 0.4587200781631655
0.0941473330003646 0.45676599902296044 0.457743038593063
0.09433640400038712 0.45676599902296044 0.457743038593063
0.09452382600011333 0.4538348803126526 0.4606741573033708
0.09471185999973386 0.45676599902296044 0.4528578407425501
0.09490322700003162 0.457743038593063 0.45676599902296044
0.09509305699975812 0.45481191988275516 0.45676599902296044
0.09528383100041538 0.45676599902296044 0.45969711773326827
0.09547188299984555 0.45969711773326827 0.4538348803126526
0.09569928699966113 0.457743038593063 0.4538348803126526
0.09588761699978932 0.457743038593063 0.4528578407425501
0.09607874300036201 0.457743038593063 0.457743038593063
0.09626859099989815 0.457743038593063 0.4528578407425501
0.09648188400024083 0.45969711773326827 0.45188080117244755
0.09697404199960147 0.45676599902296044 0.4479726428920372
0.09726962900003855 0.45481191988275516 0.44406448461162684
0.09749434700006532 0.45481191988275516 0.441133365901319
0.09779674899982638 0.4538348803126526 0.441133365901319
0.09800443099993572 0.4528578407425501 0.4401563263312165
0.09820068600038212 0.4528578407425501 0.44406448461162684
0.0983927200004473 0.457743038593063 0.44211040547142155
0.09858590200019535 0.4538348803126526 0.4450415241817294
0.09877763900021819 0.4528578407425501 0.44211040547142155
0.09896939500049484 0.45969711773326827 0.43722520762090866
0.09916105800039077 0.4538348803126526 0.43624816805080613
0.09935220300030778 0.4557889594528579 0.4352711284807034
0.09954432900030952 0.457743038593063 0.4352711284807034
0.09973665899997286 0.45188080117244755 0.43624816805080613
0.09992808100014372 0.45481191988275516 0.43429408891060084
0.1001304479996179 0.45481191988275516 0.43429408891060084
0.10033181499966304 0.45481191988275516 0.43429408891060084
0.10053727400008938 0.45188080117244755 0.43722520762090866
0.10074054800043086 0.4528578407425501 0.4352711284807034
0.10094034099984128 0.4528578407425501 0.4323400097703958
0.10115655899971898 0.4528578407425501 0.4303859306301905
0.10134926000046107 0.45481191988275516 0.4303859306301905
0.10154184899965912 0.4528578407425501 0.4323400097703958
0.10173954899983073 0.45481191988275516 0.4303859306301905
0.10193198999968445 0.4528578407425501 0.4303859306301905
0.10212944900013099 0.45188080117244755 0.4333170493404983
0.10232409400032338 0.4509037616023448 0.4323400097703958
0.10251675699964835 0.4528578407425501 0.431362970200293
0.102709106000475 0.45188080117244755 0.43429408891060084
0.10290045399960945 0.45188080117244755 0.43429408891060084
0.10309158000018215 0.45188080117244755 0.4333170493404983
0.10328298399963387 0.4509037616023448 0.4323400097703958
0.10347466599978361 0.45188080117244755 0.4333170493404983
0.10366705199976423 0.44699560332193444 0.43429408891060084
0.10385949299961794 0.44894968246213973 0.43429408891060084
0.10405226700004278 0.4479726428920372 0.43722520762090866
0.10424342999976943 0.44699560332193444 0.43624816805080613
0.10443468599987682 0.4479726428920372 0.43917928676111373
0.10462642299989966 0.44699560332193444 0.4401563263312165
0.10481927199998609 0.44699560332193444 0.441133365901319
0.10501304599983996 0.44699560332193444 0.4450415241817294
0.10520504299984168 0.44894968246213973 0.4460185637518319
0.10542916800022795 0.44894968246213973 0.44894968246213973
0.10562305399980687 0.4479726428920372 0.4460185637518319
0.10581262400046398 0.44992672203224227 0.44992672203224227
0.1060053990004235 0.44894968246213973 0.44992672203224227
0.10619589500038273 0.44992672203224227 0.45188080117244755
0.10638670699972863 0.44894968246213973 0.4528578407425501
0.10657723999975133 0.4460185637518319 0.4528578407425501
0.10676747799971054 0.44894968246213973 0.4587200781631655
0.10708865699962189 0.4460185637518319 0.4557889594528579
0.10729800500030251 0.4460185637518319 0.4557889594528579
0.10749650199977623 0.4460185637518319 0.457743038593063
0.10769497900037095 0.4460185637518319 0.46262823644357587
0.10790305000045919 0.44699560332193444 0.4665363947239862
0.10809747199982667 0.44699560332193444 0.4636052760136786
0.10829124700012471 0.4479726428920372 0.46458231558378116
0.10848370599978807 0.44992672203224227 0.4655593551538837
0.1086766099997476 0.45188080117244755 0.467513434294089
0.10889423600019654 0.44894968246213973 0.467513434294089
0.10908765800013498 0.44699560332193444 0.4684904738641915
0.10928256199986208 0.44992672203224227 0.4704445530043966
0.10947592899992742 0.44894968246213973 0.46946751343429405
0.10969833200033463 0.44992672203224227 0.4665363947239862
0.10989164399961737 0.44992672203224227 0.47239863214460187
0.11008391799987294 0.44992672203224227 0.47142159257449934
0.11027524800010724 0.44699560332193444 0.4753297508549097
0.11046713399991859 0.45188080117244755 0.47142159257449934
0.11065924099966651 0.44992672203224227 0.47239863214460187
0.11085012700004881 0.44894968246213973 0.4733756717147044
0.11104138199971203 0.44894968246213973 0.47435271128480694
0.11123278600007325 0.44894968246213973 0.4733756717147044
0.11142426500009606 0.44992672203224227 0.47435271128480694
0.11161550199994963 0.44699560332193444 0.4733756717147044
0.11180964600043808 0.4528578407425501 0.4733756717147044
0.11200162499972066 0.44894968246213973 0.4733756717147044
0.11219308399995498 0.45188080117244755 0.47435271128480694
0.11238502499963943 0.44894968246213973 0.4733756717147044
0.11257663299966225 0.44992672203224227 0.47239863214460187
0.1127745000003415 0.4509037616023448 0.47239863214460187
0.11300403299992468 0.44894968246213973 0.46946751343429405
0.11332667500028037 0.45188080117244755 0.4704445530043966
0.11362122500031546 0.4528578407425501 0.46946751343429405
0.1138407210000878 0.4528578407425501 0.467513434294089
0.11405930999990233 0.45481191988275516 0.4655593551538837
0.11425293600041186 0.4538348803126526 0.4655593551538837
0.11444461799965211 0.45188080117244755 0.46458231558378116
0.11463644800005568 0.4528578407425501 0.4636052760136786
0.11482848099967669 0.4538348803126526 0.46262823644357587
0.11502305199974217 0.45188080117244755 0.45969711773326827
0.11522001100001944 0.4538348803126526 0.4587200781631655
0.11541145200044411 0.4557889594528579 0.457743038593063
0.11560250500042457 0.4538348803126526 0.457743038593063
0.11579455700029939 0.45188080117244755 0.45676599902296044
0.11598644199966657 0.4528578407425501 0.45676599902296044
0.11617799400028161 0.4528578407425501 0.45481191988275516
0.11637739799971314 0.45188080117244755 0.4538348803126526
0.11657680200005416 0.45188080117244755 0.4509037616023448
0.11677792800037423 0.45188080117244755 0.45188080117244755
0.11697877599999629 0.45188080117244755 0.44699560332193444
0.11718590199961909 0.45481191988275516 0.4479726428920372
0.11738739799966424 0.4538348803126526 0.4479726428920372
0.1175823390003643 0.4538348803126526 0.4450415241817294
0.11782151999977941 0.4538348803126526 0.4450415241817294
0.11803160900035436 0.4538348803126526 0.44211040547142155
0.11824003099991387 0.4528578407425501 0.4401563263312165
0.11845210200044676 0.4528578407425501 0.4401563263312165
0.11865472800036514 0.4557889594528579 0.4382022471910112
0.11885024300045188 0.4538348803126526 0.4401563263312165
0.11904220199994597 0.45676599902296044 0.44699560332193444
0.11923377299990534 0.4538348803126526 0.4401563263312165
0.11942582499978016 0.4528578407425501 0.43722520762090866
0.11961878399961279 0.4528578407425501 0.43624816805080613
0.11981035500048165 0.4538348803126526 0.43722520762090866
0.12000225900010264 0.45188080117244755 0.43429408891060084
0.12019369999961782 0.4538348803126526 0.431362970200293
0.12038527100048668 0.4528578407425501 0.4323400097703958
0.12057972999991762 0.45481191988275516 0.42940889106008795
0.12085520700020425 0.45188080117244755 0.4303859306301905
0.12107649900008255 0.45188080117244755 0.4303859306301905
0.12128014399968379 0.4528578407425501 0.4284318514899854
0.12148332499964454 0.44992672203224227 0.4255007327796776
0.12172043200007465 0.4528578407425501 0.4255007327796776
0.12195148299997527 0.45188080117244755 0.4264777723497801
0.12215631300023233 0.4528578407425501 0.4235466536394723
0.12258428699988144 0.4538348803126526 0.42745481191988266
0.12281294900003559 0.4528578407425501 0.4323400097703958
0.12310451800021838 0.45481191988275516 0.431362970200293
0.12330095899960725 0.4538348803126526 0.4323400097703958
0.12349391899988404 0.45188080117244755 0.43429408891060084
0.12368739700013975 0.4538348803126526 0.43624816805080613
0.12388307800028997 0.45188080117244755 0.4382022471910112
0.12407520499982638 0.4528578407425501 0.43722520762090866
0.12426721999963775 0.4538348803126526 0.43917928676111373
0.12445884600037971 0.45188080117244755 0.4401563263312165
0.12465143500048725 0.4538348803126526 0.44211040547142155
0.12484413499987568 0.45188080117244755 0.44699560332193444
0.1250362060000043 0.45188080117244755 0.44406448461162684
0.12522738799998478 0.45188080117244755 0.4450415241817294
0.12541821800004982 0.4509037616023448 0.44406448461162684
0.1256196579997777 0.44992672203224227 0.44699560332193444
0.12581211799988523 0.4509037616023448 0.4460185637518319
0.12600305900014064 0.45188080117244755 0.44894968246213973
0.12620070400043915 0.45188080117244755 0.45188080117244755
0.12639783000031457 0.44992672203224227 0.45188080117244755
0.12659012299991446 0.4509037616023448 0.45481191988275516
0.12678137800048717 0.44894968246213973 0.457743038593063
0.1269728560000658 0.4479726428920372 0.4538348803126526
0.12716507500044827 0.44992672203224227 0.45969711773326827
0.1273571270003231 0.4460185637518319 0.4606741573033708
0.1275570500001777 0.44699560332193444 0.46458231558378116
0.12776180499986367 0.44699560332193444 0.46262823644357587
0.12796172799971828 0.44699560332193444 0.4636052760136786
0.12817759399968054 0.44406448461162684 0.467513434294089
0.12837883100019098 0.44699560332193444 0.46165119687347334
0.12858149400017282 0.4450415241817294 0.46165119687347334
0.12878013899990037 0.44992672203224227 0.4636052760136786
0.1290531340000598 0.44699560332193444 0.4684904738641915
0.12943288600035885 0.44992672203224227 0.4763067904250122
0.1300428570002623 0.4460185637518319 0.47435271128480694
0.1303149260002101 0.4460185637518319 0.4704445530043966
0.1305249039996852 0.4460185637518319 0.46946751343429405
0.13072460399962438 0.4479726428920372 0.467513434294089
0.13092528600009246 0.44699560332193444 0.46946751343429405
0.13112700399960886 0.44699560332193444 0.4684904738641915
0.13132125999982236 0.44699560332193444 0.4684904738641915
0.13151544199990894 0.4509037616023448 0.4733756717147044
0.13171762300044065 0.44894968246213973 0.467513434294089
0.13194517499960057 0.44699560332193444 0.4704445530043966
0.1322261699997398 0.44992672203224227 0.47239863214460187
0.13263218100019003 0.44992672203224227 0.4733756717147044
0.13291367600049853 0.4528578407425501 0.467513434294089
0.13316743100040185 0.4538348803126526 0.4655593551538837
0.13340338899979542 0.4538348803126526 0.46262823644357587
0.13368314400031522 0.4557889594528579 0.4606741573033708
0.13391971399960312 0.4528578407425501 0.457743038593063
0.13416739399963262 0.4557889594528579 0.4587200781631655
0.1343970010002522 0.4557889594528579 0.457743038593063
0.13460288700025558 0.4557889594528579 0.4557889594528579
0.13480166099998314 0.4557889594528579 0.4557889594528579
0.1350010090000069 0.4557889594528579 0.45676599902296044
0.1352009869997346 0.45481191988275516 0.45676599902296044
0.13540255699990666 0.45676599902296044 0.4587200781631655
0.13560547999986738 0.45676599902296044 0.4557889594528579
0.13583304999974644 0.45676599902296044 0.45188080117244755
0.1360567310002807 0.4557889594528579 0.45481191988275516
0.13630526300039492 0.4587200781631655 0.4528578407425501
0.13649955599976238 0.45969711773326827 0.44992672203224227
0.13669781200042053 0.457743038593063 0.4479726428920372
0.13690775299983216 0.45969711773326827 0.4460185637518319
0.1370965090000027 0.45969711773326827 0.4450415241817294
0.13728552399970795 0.4587200781631655 0.4430874450415241
0.13747392799996305 0.45969711773326827 0.44699560332193444
0.13766599799964752 0.4587200781631655 0.44406448461162684
0.13785775399992417 0.45969711773326827 0.44406448461162684
0.13804841700039105 0.4606741573033708 0.44211040547142155
0.13823654400039231 0.46165119687347334 0.4430874450415241
0.13842507699973794 0.45676599902296044 0.43917928676111373
0.1386130549999507 0.45676599902296044 0.4401563263312165
0.13880501499988895 0.45676599902296044 0.43917928676111373
0.13899321500048245 0.45676599902296044 0.43722520762090866
0.13918384200042055 0.4587200781631655 0.4382022471910112
0.1393721900003584 0.4606741573033708 0.43917928676111373
0.13956057599989435 0.45676599902296044 0.441133365901319
0.1397479610004666 0.4557889594528579 0.441133365901319
0.13993547599966405 0.45481191988275516 0.441133365901319
0.14012376899972878 0.45676599902296044 0.4401563263312165
0.14031184000032226 0.4557889594528579 0.4382022471910112
0.14049991100000625 0.4557889594528579 0.43429408891060084
0.1406876849996479 0.4538348803126526 0.42940889106008795
0.14087555199967028 0.44992672203224227 0.42940889106008795
0.14106547400024283 0.4528578407425501 0.4235466536394723
0.14127213699975982 0.4528578407425501 0.42452369320957506
0.1414604120000149 0.4528578407425501 0.42256961406936977
0.14164857499963546 0.4538348803126526 0.42256961406936977
0.141837924000356 0.4538348803126526 0.42745481191988266
0.14202756800023053 0.4538348803126526 0.42940889106008795
0.14221573200029525 0.4528578407425501 0.431362970200293
0.14240356200025417 0.4538348803126526 0.4323400097703958
0.1425931320000018 0.4528578407425501 0.43624816805080613
0.1427808879998338 0.4528578407425501 0.4382022471910112
0.14296857000044838 0.45481191988275516 0.4401563263312165
0.14315617800002656 0.4538348803126526 0.441133365901319
0.14334397099992202 0.4528578407425501 0.44211040547142155
0.14353198600019823 0.45481191988275516 0.44406448461162684
0.1437193900001148 0.4538348803126526 0.44211040547142155
0.1439073499996084 0.45481191988275516 0.4450415241817294
0.14410442000007606 0.4538348803126526 0.4479726428920372
0.1442915460002041 0.4528578407425501 0.4450415241817294
0.1444803390004381 0.4538348803126526 0.4557889594528579
0.14466846600043937 0.45188080117244755 0.44894968246213973
0.14485585100010212 0.4538348803126526 0.4509037616023448
0.14504445900001883 0.45188080117244755 0.4479726428920372
0.14523247400029504 0.4509037616023448 0.44894968246213973
0.1454201930000636 0.44992672203224227 0.4460185637518319
0.14563367000027938 0.44992672203224227 0.45188080117244755
0.14582440800040786 0.4557889594528579 0.45188080117244755
0.14601353400030348 0.44992672203224227 0.4509037616023448
0.14620401200045308 0.4509037616023448 0.4528578407425501
0.1463976940003704 0.44894968246213973 0.4557889594528579
0.14679876100035472 0.45188080117244755 0.4606741573033708
0.1470049609997659 0.4460185637518319 0.4606741573033708
0.14720858700002282 0.4460185637518319 0.46262823644357587
0.14740706500015222 0.4460185637518319 0.4665363947239862
0.14760274600030243 0.44699560332193444 0.46262823644357587
0.14779339100005018 0.44992672203224227 0.4655593551538837
0.14798296200024197 0.44894968246213973 0.46458231558378116
0.1481717180004125 0.44992672203224227 0.4655593551538837
0.14836369600016042 0.44699560332193444 0.467513434294089
0.14855345199976 0.44894968246213973 0.47239863214460187
0.14876676299991232 0.4538348803126526 0.47142159257449934
0.14895679599976575 0.4538348803126526 0.4655593551538837
0.1491445150004438 0.4479726428920372 0.46946751343429405
0.1493344000000434 0.44992672203224227 0.4704445530043966
0.14952887799972814 0.44992672203224227 0.47142159257449934
0.14973320799981593 0.44992672203224227 0.47239863214460187
0.14992518600047333 0.44894968246213973 0.47142159257449934
0.15011797900024249 0.4557889594528579 0.47239863214460187
0.1503112529999271 0.44992672203224227 0.4733756717147044
0.1505127310001626 0.4528578407425501 0.4704445530043966
0.15070493199982593 0.44992672203224227 0.47435271128480694
0.15089672399972187 0.44894968246213973 0.4763067904250122
0.15108796200001962 0.4528578407425501 0.4763067904250122
0.1512792730000001 0.4509037616023448 0.46946751343429405
0.1514703439997902 0.4538348803126526 0.47239863214460187
0.15166313700046885 0.44992672203224227 0.4704445530043966
0.15185872599977301 0.44992672203224227 0.46946751343429405
0.15205018500000733 0.4509037616023448 0.46946751343429405
0.15224131099967053 0.45188080117244755 0.47142159257449934
0.15243245600049704 0.4538348803126526 0.4684904738641915
0.15262404500026605 0.45188080117244755 0.4684904738641915
0.15284965200044098 0.45188080117244755 0.4665363947239862
0.1530576490004023 0.45188080117244755 0.467513434294089
0.1532584599999609 0.45188080117244755 0.4684904738641915
0.15345923400036554 0.4528578407425501 0.4665363947239862
0.15367167499971401 0.45188080117244755 0.46458231558378116
0.15388674499990884 0.4528578407425501 0.4655593551538837
0.1540890380001656 0.4528578407425501 0.4665363947239862
0.15429207099987252 0.4538348803126526 0.4655593551538837
0.15449095599979046 0.45676599902296044 0.46165119687347334
0.1546959160004917 0.4587200781631655 0.4655593551538837
0.15497078099997452 0.457743038593063 0.4684904738641915
0.1552808129999903 0.4557889594528579 0.4636052760136786
0.15553214099963952 0.4587200781631655 0.4606741573033708
0.15576632200009044 0.4538348803126526 0.45969711773326827
0.15608087199962029 0.45676599902296044 0.45481191988275516
0.15638269999999466 0.45676599902296044 0.44992672203224227
0.15666551000049367 0.457743038593063 0.44894968246213973
0.1569387640001878 0.457743038593063 0.4450415241817294
0.15720890800002962 0.45676599902296044 0.4430874450415241
0.15749927300021227 0.45481191988275516 0.44211040547142155
0.15780024900050194 0.4587200781631655 0.4401563263312165
0.158112983999672 0.45481191988275516 0.4430874450415241
0.15842170100040676 0.45676599902296044 0.441133365901319
0.15869175100033317 0.4538348803126526 0.43624816805080613
0.15896208000049228 0.45481191988275516 0.4382022471910112
0.15923598199970002 0.45481191988275516 0.43722520762090866
0.1595445140001175 0.45969711773326827 0.4323400097703958
0.15983730500011006 0.45481191988275516 0.431362970200293
0.16018216900010884 0.4528578407425501 0.4284318514899854
0.1605117369999789 0.4557889594528579 0.4303859306301905
0.16082362100041792 0.4528578407425501 0.4333170493404983
0.16114500399999088 0.4538348803126526 0.4303859306301905
0.16145170199979475 0.4538348803126526 0.4333170493404983
0.16182636200028355 0.45188080117244755 0.4303859306301905
0.16219266999996762 0.44894968246213973 0.42745481191988266
0.16255510799965123 0.44992672203224227 0.4284318514899854
0.1628980089999459 0.4479726428920372 0.4333170493404983
0.16323898500013456 0.44894968246213973 0.43722520762090866
0.16368895800042083 0.4460185637518319 0.43917928676111373
0.1641733380001824 0.44699560332193444 0.44211040547142155
0.16464825599996402 0.44699560332193444 0.44699560332193444
0.16586480800015124 0.44894968246213973 0.45481191988275516
0.1664981860003536 0.45188080117244755 0.4587200781631655
0.16710667500046839 0.44699560332193444 0.46262823644357587
0.16761183200014784 0.4450415241817294 0.4655593551538837
0.16804519499964954 0.44992672203224227 0.4684904738641915
0.16846905800048262 0.4479726428920372 0.4665363947239862
0.16890206900006888 0.44894968246213973 0.4684904738641915
0.16926571000021795 0.44992672203224227 0.47239863214460187
0.16971890599961625 0.44992672203224227 0.4763067904250122
0.17007002900027146 0.44992672203224227 0.4811919882755251
0.17041346699988935 0.4509037616023448 0.4811919882755251
0.17075783200016303 0.44992672203224227 0.48412310698583294
0.1711031400000138 0.44992672203224227 0.4811919882755251
0.17144109699984256 0.44992672203224227 0.47728382999511476
0.1717842580001161 0.45188080117244755 0.4753297508549097
0.17212710300009348 0.4538348803126526 0.4733756717147044
0.17247994900026242 0.4509037616023448 0.4733756717147044
0.1728281280002193 0.4538348803126526 0.4782608695652173
0.17317688100047235 0.45481191988275516 0.4763067904250122
0.17352233800011163 0.4538348803126526 0.47142159257449934
0.1738811089999217 0.45481191988275516 0.46262823644357587
0.17424504700011312 0.45676599902296044 0.45969711773326827
0.1745730230004483 0.4538348803126526 0.45481191988275516
0.17489692399976775 0.457743038593063 0.4528578407425501
0.1752204550002716 0.4587200781631655 0.44894968246213973
0.17554437600028905 0.4587200781631655 0.44894968246213973
0.17587227700005315 0.4606741573033708 0.4450415241817294
0.17619853100040928 0.45969711773326827 0.4460185637518319
0.1765640430003259 0.46165119687347334 0.4460185637518319
0.1768927220000478 0.45969711773326827 0.4430874450415241
0.1772206969999388 0.46165119687347334 0.44211040547142155
0.17754667300050642 0.4606741573033708 0.44211040547142155
0.17787514900010137 0.46165119687347334 0.4430874450415241
0.17820186500011914 0.45969711773326827 0.4460185637518319
0.1785264330001155 0.4587200781631655 0.4450415241817294
0.1788671490003253 0.45969711773326827 0.4401563263312165
0.17921097700036626 0.45676599902296044 0.42940889106008795
0.17976067000017792 0.45676599902296044 0.42745481191988266
0.18014066399973672 0.45676599902296044 0.4303859306301905
0.18049571299980016 0.457743038593063 0.42940889106008795
0.18082441099977586 0.45969711773326827 0.42940889106008795
0.18116581200047222 0.457743038593063 0.42940889106008795
0.18150760200023797 0.45676599902296044 0.431362970200293
0.1818614659996456 0.45481191988275516 0.43429408891060084
0.18219110799964255 0.45481191988275516 0.4333170493404983
0.18251662100010435 0.4528578407425501 0.4352711284807034
0.1828411340002276 0.45188080117244755 0.43722520762090866
0.18316657200011832 0.45188080117244755 0.4382022471910112
0.18349310400026297 0.44992672203224227 0.43917928676111373
0.18381865300034406 0.44992672203224227 0.44211040547142155
0.18414135100010753 0.44992672203224227 0.44406448461162684
0.18446390099961718 0.44894968246213973 0.4460185637518319
0.18478821000007883 0.44894968246213973 0.44699560332193444
0.18511977799971646 0.44894968246213973 0.44699560332193444
0.185448309000094 0.4479726428920372 0.4509037616023448
0.18584928400014178 0.44894968246213973 0.4538348803126526
0.18621603599967784 0.44699560332193444 0.4557889594528579
0.1865616229997613 0.44699560332193444 0.45969711773326827
0.18690869100009877 0.44699560332193444 0.46165119687347334
0.18750858699968376 0.4460185637518319 0.4665363947239862
0.18792372799998702 0.4460185637518319 0.4684904738641915
0.1883035729997573 0.4479726428920372 0.4684904738641915
0.18864673400003085 0.4460185637518319 0.467513434294089
0.1890136160000111 0.4460185637518319 0.4704445530043966
0.18936101700001018 0.4460185637518319 0.4733756717147044
0.18972962200041366 0.44894968246213973 0.47435271128480694
0.19014865099961753 0.44992672203224227 0.4753297508549097
0.19065501200020663 0.44992672203224227 0.4733756717147044
0.19102332100010244 0.44992672203224227 0.4733756717147044
0.19135137000012037 0.4538348803126526 0.47239863214460187
0.19166601300003094 0.4528578407425501 0.4704445530043966
0.19192293400010385 0.4538348803126526 0.47239863214460187
0.1921748929999012 0.4528578407425501 0.46946751343429405
0.1924273140002697 0.4528578407425501 0.46946751343429405
0.1926798280001094 0.4538348803126526 0.4684904738641915
0.19293243500032986 0.4557889594528579 0.46946751343429405
0.19318367100004252 0.45481191988275516 0.4655593551538837
0.19343470300009358 0.4538348803126526 0.46458231558378116
0.19372042099985265 0.46262823644357587 0.46458231558378116
0.19398197099963 0.457743038593063 0.46165119687347334
0.19426220700006525 0.46262823644357587 0.45969711773326827
0.19453875799990783 0.45676599902296044 0.45969711773326827
0.19480941999972856 0.45481191988275516 0.46165119687347334
0.19511720999980753 0.4538348803126526 0.46165119687347334
0.1953829650001353 0.46165119687347334 0.46165119687347334
0.19564838600035728 0.45481191988275516 0.4606741573033708
0.19592921399998886 0.4557889594528579 0.457743038593063
0.19640370599972812 0.4587200781631655 0.4528578407425501
0.19678982900040864 0.4587200781631655 0.45188080117244755
0.19713332199989964 0.4557889594528579 0.4509037616023448
0.19747709399962332 0.4557889594528579 0.4479726428920372
0.19787219800036837 0.4557889594528579 0.4430874450415241
0.19822133999969083 0.45676599902296044 0.44406448461162684
0.19855661200017494 0.45481191988275516 0.4430874450415241
0.19889719799994054 0.4557889594528579 0.441133365901319
0.19924015499964298 0.45676599902296044 0.4401563263312165
0.19958996399964235 0.45481191988275516 0.43624816805080613
0.1999386429997685 0.45676599902296044 0.43429408891060084
0.20028839600036008 0.45481191988275516 0.4323400097703958
0.2006442040001275 0.4528578407425501 0.4303859306301905
0.20098930899985135 0.4509037616023448 0.42940889106008795
0.20133821000035823 0.4479726428920372 0.43429408891060084
0.20170125900040148 0.44699560332193444 0.42940889106008795
0.20209327100019436 0.44894968246213973 0.4333170493404983
0.20247767100045166 0.45188080117244755 0.4352711284807034
0.2028020360003211 0.44894968246213973 0.43722520762090866
0.20312584499970399 0.4479726428920372 0.4382022471910112
0.20345094999993307 0.44699560332193444 0.441133365901319
0.20377464800003509 0.44992672203224227 0.441133365901319
0.20409804999962944 0.44992672203224227 0.44406448461162684
0.20442413599994325 0.44992672203224227 0.44211040547142155
0.20474866699987615 0.45188080117244755 0.4450415241817294
0.20512440200036508 0.44992672203224227 0.44894968246213973
0.20545902499998192 0.4479726428920372 0.44992672203224227
0.20582427800036385 0.44992672203224227 0.45188080117244755
0.20614951300012763 0.44699560332193444 0.4528578407425501
0.20647413700044126 0.4479726428920372 0.45676599902296044
0.20679696400020475 0.4479726428920372 0.4606741573033708
0.20712327300043398 0.4479726428920372 0.4636052760136786
0.207448600999669 0.4460185637518319 0.46458231558378116
0.20779115000004822 0.4460185637518319 0.4665363947239862
0.2081148850002137 0.45188080117244755 0.46946751343429405
0.2084372680001252 0.44894968246213973 0.47239863214460187
0.20876250299988897 0.44894968246213973 0.46946751343429405
0.20908507100011775 0.44894968246213973 0.46946751343429405
0.20940778800013504 0.44894968246213973 0.4704445530043966
0.209755892999965 0.44992672203224227 0.46946751343429405
0.2100821089998135 0.44894968246213973 0.47142159257449934
0.2104055480003808 0.4460185637518319 0.47142159257449934
0.21079315200040583 0.4479726428920372 0.47142159257449934
0.21111821999966196 0.4479726428920372 0.47142159257449934
0.21144230699974287 0.44992672203224227 0.4733756717147044
0.21176537500014092 0.4509037616023448 0.47239863214460187
0.2120944429998417 0.44894968246213973 0.4704445530043966
0.21243410399983986 0.44992672203224227 0.4655593551538837
0.21302820399978373 0.4509037616023448 0.45969711773326827
0.21339671599980647 0.45188080117244755 0.457743038593063
0.2137672280005063 0.44699560332193444 0.4587200781631655
0.2141013890004615 0.44894968246213973 0.4606741573033708
0.21443440100028965 0.44992672203224227 0.46262823644357587
0.21476548800001183 0.44699560332193444 0.46165119687347334
0.2151002780001363 0.45188080117244755 0.46165119687347334
0.21543049499996414 0.44992672203224227 0.4538348803126526
0.21576784100034274 0.44992672203224227 0.44894968246213973
0.21609853799964185 0.4528578407425501 0.4450415241817294
0.2164290880000408 0.4528578407425501 0.4430874450415241
0.21675913800027047 0.45481191988275516 0.43917928676111373
0.21711000200048147 0.457743038593063 0.43624816805080613
0.21745732900035364 0.4557889594528579 0.43624816805080613
0.21783080400018662 0.4557889594528579 0.43917928676111373
0.21818463100044028 0.4557889594528579 0.4382022471910112
0.21852993900029105 0.4538348803126526 0.4401563263312165
0.21906009600024845 0.4528578407425501 0.4382022471910112
0.2194646260004447 0.4528578407425501 0.43429408891060084
0.2198198420001063 0.45481191988275516 0.4323400097703958
0.22023027900013403 0.45676599902296044 0.4323400097703958
0.2205809209999643 0.4538348803126526 0.43429408891060084
0.22092698899996321 0.4528578407425501 0.43429408891060084
0.2212706860000253 0.45676599902296044 0.4382022471910112
0.22165195700017648 0.4528578407425501 0.4333170493404983
0.22204670999963128 0.44992672203224227 0.4352711284807034
0.22246905399970274 0.44699560332193444 0.4352711284807034
0.22285354700034077 0.4460185637518319 0.4323400097703958
0.2232156700001724 0.44699560332193444 0.43429408891060084
0.22359207099998457 0.4460185637518319 0.43722520762090866
0.22395449000032386 0.44894968246213973 0.44211040547142155
0.22430868799983728 0.44894968246213973 0.4460185637518319
0.22466234800049278 0.44699560332193444 0.4460185637518319
0.22502080400045088 0.44894968246213973 0.4479726428920372
0.22539172400047391 0.44699560332193444 0.4509037616023448
0.22591089999968972 0.44894968246213973 0.4538348803126526
0.22630774400022347 0.4479726428920372 0.45676599902296044
0.22668564499963395 0.4479726428920372 0.45969711773326827
0.22702008400028717 0.44894968246213973 0.4606741573033708
0.22735544799979834 0.44992672203224227 0.46165119687347334
0.2276879419996476 0.45481191988275516 0.46458231558378116
0.22801912100021582 0.44992672203224227 0.4655593551538837
0.22835239300002286 0.4528578407425501 0.4665363947239862
0.22869636799987347 0.44894968246213973 0.467513434294089
0.22903388099985023 0.4509037616023448 0.467513434294089
0.2293704860003345 0.45188080117244755 0.4704445530043966
0.22995378999985405 0.4479726428920372 0.47142159257449934
0.23031443200034118 0.44894968246213973 0.47239863214460187
0.23064942600012728 0.4509037616023448 0.46946751343429405
0.2309809939997649 0.44894968246213973 0.47239863214460187
0.2313124880001851 0.4479726428920372 0.46946751343429405
0.23160353799994482 0.44992672203224227 0.46946751343429405
0.2318635709998489 0.44894968246213973 0.467513434294089
0.23212280700045085 0.4538348803126526 0.46946751343429405
0.23238089500046044 0.45188080117244755 0.4704445530043966
0.23263951999979327 0.45188080117244755 0.4684904738641915
0.2329012190002686 0.44992672203224227 0.467513434294089
0.23315927000021475 0.4538348803126526 0.46458231558378116
0.23343835699961346 0.4557889594528579 0.46262823644357587
0.23371837099966797 0.4538348803126526 0.467513434294089
0.23397769999974116 0.4636052760136786 0.46946751343429405
0.23423669499970856 0.4528578407425501 0.46165119687347334
0.23449674600033177 0.4587200781631655 0.46165119687347334
0.23477074099992024 0.45676599902296044 0.46262823644357587
0.23503084700041654 0.457743038593063 0.46165119687347334
0.23529341700032091 0.4528578407425501 0.4606741573033708
0.23556185600045865 0.45188080117244755 0.46165119687347334
0.23583066599985614 0.4538348803126526 0.4606741573033708
0.23610138399999414 0.4538348803126526 0.45969711773326827
0.2363716010004282 0.4538348803126526 0.4538348803126526
0.23683275999974285 0.4538348803126526 0.4509037616023448
0.23716734600020573 0.4538348803126526 0.4450415241817294
0.2374454520004292 0.45676599902296044 0.44211040547142155
0.23776259500027663 0.4557889594528579 0.43917928676111373
0.23804710800050088 0.45481191988275516 0.4382022471910112
0.23836504700011574 0.4538348803126526 0.4401563263312165
0.2386649310001303 0.4557889594528579 0.4382022471910112
0.2390973120000126 0.45676599902296044 0.43624816805080613
0.23941395400015608 0.45676599902296044 0.4382022471910112
0.23968907899961778 0.4538348803126526 0.4382022471910112
0.23996751800041238 0.45676599902296044 0.43722520762090866
0.24023958799989487 0.4587200781631655 0.43722520762090866
0.2405088599998635 0.45676599902296044 0.43722520762090866
0.24077680000027613 0.457743038593063 0.43429408891060084
0.24104309199992713 0.45676599902296044 0.4352711284807034
0.24131782699987525 0.45969711773326827 0.4333170493404983
0.24169517300015286 0.45676599902296044 0.42940889106008795
0.24196818600012193 0.4557889594528579 0.4284318514899854
0.24223531099960383 0.4528578407425501 0.4303859306301905
0.24253878699983034 0.45676599902296044 0.4323400097703958
0.24281313400024374 0.457743038593063 0.431362970200293
0.24311379499977193 0.45676599902296044 0.4401563263312165
0.24341343800006143 0.4557889594528579 0.44406448461162684
0.2437017290003496 0.4538348803126526 0.4450415241817294
0.24397009499989508 0.45188080117244755 0.44894968246213973
0.24426651500016305 0.4528578407425501 0.45188080117244755
0.24453941800038592 0.45481191988275516 0.44992672203224227
0.24485181999989436 0.44992672203224227 0.44992672203224227
0.2451222219997362 0.44699560332193444 0.4528578407425501
0.24539801399987482 0.4509037616023448 0.44992672203224227
0.2456651940001393 0.44992672203224227 0.44894968246213973
0.24595920699994167 0.44699560332193444 0.4509037616023448
0.24638523700014048 0.44894968246213973 0.45481191988275516
0.24680372900002112 0.44992672203224227 0.457743038593063
0.24719477800044842 0.4528578407425501 0.4606741573033708
0.2476023079998413 0.45188080117244755 0.46165119687347334
0.24792972799968993 0.4509037616023448 0.4655593551538837
0.2482541110002785 0.4538348803126526 0.4655593551538837
0.24857886399968265 0.45188080117244755 0.46946751343429405
0.24890509899978497 0.4509037616023448 0.4733756717147044
0.24924449999980425 0.4509037616023448 0.4733756717147044
0.24958386500020424 0.4509037616023448 0.4753297508549097
0.2500203010004043 0.4509037616023448 0.47435271128480694
0.2503661649998321 0.4528578407425501 0.4763067904250122
0.25071665900031803 0.4528578407425501 0.47239863214460187
0.25128453799970885 0.45188080117244755 0.4704445530043966
0.2516935490002652 0.4528578407425501 0.4684904738641915
0.25204328400013765 0.4538348803126526 0.47239863214460187
0.2524031479997575 0.45188080117244755 0.47239863214460187
0.2527438449997135 0.45188080117244755 0.47142159257449934
0.25307902399981685 0.4528578407425501 0.46946751343429405
0.2534143149996453 0.45188080117244755 0.4665363947239862
0.2539678789999016 0.4557889594528579 0.46262823644357587
0.2544215739999345 0.45676599902296044 0.4636052760136786
0.2548469000003024 0.4606741573033708 0.4606741573033708
0.2552292079999461 0.4606741573033708 0.45969711773326827
0.2555776090002837 0.4587200781631655 0.4557889594528579
0.2559271030004311 0.45676599902296044 0.45188080117244755
0.25627806000011333 0.45969711773326827 0.4509037616023448
0.2568548640001609 0.4587200781631655 0.44894968246213973
0.2572110609999072 0.45969711773326827 0.4450415241817294
0.25746911199985334 0.457743038593063 0.4430874450415241
0.25778799599993363 0.45969711773326827 0.4430874450415241
0.2580289540001104 0.45969711773326827 0.4460185637518319
0.2582486350002 0.45676599902296044 0.43917928676111373
0.25846463200014114 0.4557889594528579 0.441133365901319
0.2586601470002279 0.45676599902296044 0.4401563263312165
0.2588479770001868 0.4587200781631655 0.4401563263312165
0.25903808400016715 0.45676599902296044 0.441133365901319
0.2592268400003377 0.457743038593063 0.4401563263312165
0.2594142260004446 0.457743038593063 0.43722520762090866
0.2596048699997482 0.4557889594528579 0.43722520762090866
0.25979232999998203 0.4655593551538837 0.4382022471910112
0.25998082699970837 0.4557889594528579 0.43624816805080613
0.26018104499962647 0.4538348803126526 0.43429408891060084
0.2603731159997551 0.4587200781631655 0.43624816805080613
0.26056629800041264 0.4557889594528579 0.43429408891060084
0.26077503499982413 0.4557889594528579 0.43624816805080613
0.2609638089998043 0.45481191988275516 0.43722520762090866
0.2611519350002709 0.4528578407425501 0.43917928676111373
0.2613397650002298 0.4538348803126526 0.4382022471910112
0.2615275210000618 0.4538348803126526 0.43624816805080613
0.2617284620000646 0.45188080117244755 0.43722520762090866
0.2619173290004255 0.45188080117244755 0.43624816805080613
0.2621114180001314 0.4538348803126526 0.43722520762090866
0.2623084150000068 0.45969711773326827 0.4382022471910112
0.26249607800036756 0.45481191988275516 0.43722520762090866
0.2626928339996084 0.4587200781631655 0.43624816805080613
0.26301938300002803 0.4528578407425501 0.43624816805080613
0.26324595300047804 0.45188080117244755 0.43917928676111373
0.2634431719998247 0.4528578407425501 0.441133365901319
0.2636313909997625 0.44992672203224227 0.44211040547142155
0.26382053599991195 0.4528578407425501 0.44406448461162684
0.2640088839998498 0.45188080117244755 0.4430874450415241
0.2641974179996396 0.45188080117244755 0.4479726428920372
0.2643861550004658 0.44992672203224227 0.44699560332193444
0.2645741520000229 0.44992672203224227 0.44992672203224227
0.2647619079998549 0.44992672203224227 0.4479726428920372
0.26494964500034257 0.44992672203224227 0.44699560332193444
0.2651376789999631 0.4528578407425501 0.4479726428920372
0.2653262490002817 0.4509037616023448 0.4479726428920372
0.2655136160001348 0.45188080117244755 0.44894968246213973
0.26572592699994857 0.45188080117244755 0.44992672203224227
0.2659143689998018 0.45481191988275516 0.4528578407425501
0.26610251300007803 0.4509037616023448 0.45481191988275516
0.2662910099998044 0.45188080117244755 0.4557889594528579
0.2664800250004191 0.4509037616023448 0.45676599902296044
0.2666671879997011 0.44992672203224227 0.45969711773326827
0.26685418499982916 0.44992672203224227 0.4587200781631655
0.2670423669997035 0.44992672203224227 0.4587200781631655
0.2672300300000643 0.44992672203224227 0.46165119687347334
0.26741886000036175 0.45188080117244755 0.46262823644357587
0.26760622700021486 0.44894968246213973 0.4636052760136786
0.2677942050004276 0.45188080117244755 0.46458231558378116
0.26799005399971065 0.44699560332193444 0.46458231558378116
0.2681780129996696 0.4479726428920372 0.4655593551538837
0.2684119349996763 0.4509037616023448 0.467513434294089
0.2686035799997626 0.44992672203224227 0.4665363947239862
0.2687924279998697 0.45188080117244755 0.46946751343429405
0.2689817399996173 0.44992672203224227 0.46946751343429405
0.26917953199972544 0.44992672203224227 0.47239863214460187
0.2693683620000229 0.44992672203224227 0.4733756717147044
0.26955680300034146 0.4479726428920372 0.4733756717147044
0.26974942899960297 0.44992672203224227 0.4733756717147044
0.26993801899971004 0.45188080117244755 0.4753297508549097
0.27012686699981714 0.44992672203224227 0.4753297508549097
0.2703157710002415 0.4528578407425501 0.4753297508549097
0.2705038229996717 0.457743038593063 0.47435271128480694
0.27069213499999023 0.45188080117244755 0.4733756717147044
0.2708803719997377 0.4509037616023448 0.4733756717147044
0.27106798000022536 0.44992672203224227 0.4802149487054226
0.27125605099990935 0.45481191988275516 0.4763067904250122
0.27144562099965697 0.4509037616023448 0.4704445530043966
0.27163402499991207 0.4528578407425501 0.4733756717147044
0.27182144800008246 0.45188080117244755 0.4733756717147044
0.2720130560001053 0.45188080117244755 0.47435271128480694
0.27220134900017 0.4538348803126526 0.4753297508549097
0.2723889750004673 0.4538348803126526 0.4753297508549097
0.2725766379999186 0.45188080117244755 0.4733756717147044
0.27276402400002553 0.45481191988275516 0.4733756717147044
0.27295165000032284 0.44992672203224227 0.47239863214460187
0.27313938699990103 0.45188080117244755 0.4684904738641915
0.2733268470001349 0.4528578407425501 0.47239863214460187
0.27351491799981886 0.44992672203224227 0.4684904738641915
0.273717895000118 0.4528578407425501 0.4665363947239862
0.27391015099965443 0.4528578407425501 0.4655593551538837
0.2741019260001849 0.4557889594528579 0.46458231558378116
0.27429329300048266 0.4509037616023448 0.46262823644357587
0.27448527100023057 0.4509037616023448 0.4606741573033708
0.27467748900016886 0.45481191988275516 0.45969711773326827
0.27486881900040316 0.4557889594528579 0.457743038593063
0.27506074200027797 0.45188080117244755 0.45676599902296044
0.2752560529997936 0.45188080117244755 0.45481191988275516
0.27547453100032726 0.4509037616023448 0.4528578407425501
0.2756808789999923 0.4528578407425501 0.45188080117244755
0.27588446800018573 0.45188080117244755 0.44992672203224227
0.2760890380004639 0.45481191988275516 0.4479726428920372
0.2762942569997904 0.4538348803126526 0.44699560332193444
0.2764961789998779 0.4538348803126526 0.4460185637518319
0.2766988240000501 0.457743038593063 0.4479726428920372
0.2769066159999056 0.45481191988275516 0.4479726428920372
0.2771131489998879 0.4528578407425501 0.44699560332193444
0.2773224980001032 0.45969711773326827 0.44211040547142155
0.277647861999867 0.45481191988275516 0.4401563263312165
0.27790546899996116 0.4528578407425501 0.4382022471910112
0.27813253899967094 0.45481191988275516 0.43917928676111373
0.2783377940004357 0.45481191988275516 0.43722520762090866
0.2785429940004178 0.45481191988275516 0.4382022471910112
0.2787495829998079 0.45481191988275516 0.43429408891060084
0.2789682829998128 0.4528578407425501 0.4352711284807034
0.27918870499979676 0.4538348803126526 0.43429408891060084
0.27942395999980363 0.4538348803126526 0.4382022471910112
0.27964682600031665 0.4538348803126526 0.43722520762090866
0.27985887799968623 0.4538348803126526 0.43624816805080613
0.2800767819999237 0.4606741573033708 0.4303859306301905
0.2802887220004777 0.4528578407425501 0.431362970200293
0.2804906450000999 0.44992672203224227 0.4323400097703958
0.28069315900029324 0.4528578407425501 0.4303859306301905
0.2809747660003268 0.44992672203224227 0.4323400097703958
0.281216520000271 0.45188080117244755 0.4333170493404983
0.2814229610003167 0.45481191988275516 0.4323400097703958
0.28165980900030263 0.44992672203224227 0.4303859306301905
0.2818643239997982 0.4528578407425501 0.43429408891060084
0.28209505999984685 0.44992672203224227 0.43429408891060084
0.28232916700017086 0.45481191988275516 0.43429408891060084
0.28256529299960675 0.4509037616023448 0.43429408891060084
0.2827974740002901 0.44992672203224227 0.4382022471910112
0.2832578170000488 0.4528578407425501 0.4352711284807034
0.2835562010004651 0.4460185637518319 0.4382022471910112
0.2837780859999839 0.44699560332193444 0.4382022471910112
0.284079099000337 0.44894968246213973 0.4401563263312165
0.28431914999964647 0.4460185637518319 0.44406448461162684
0.2845342199998413 0.4460185637518319 0.4460185637518319
0.28473371699965355 0.4450415241817294 0.44406448461162684
0.28493075000005774 0.44406448461162684 0.4450415241817294
0.28513963499972306 0.45188080117244755 0.4479726428920372
0.28539388999979565 0.4450415241817294 0.4460185637518319
0.28564086700043845 0.4460185637518319 0.44699560332193444
0.2858524929997657 0.4450415241817294 0.45188080117244755
0.28605615600008605 0.4460185637518319 0.4528578407425501
0.2862624119998145 0.4460185637518319 0.45676599902296044
0.28649637000035 0.4450415241817294 0.46262823644357587
0.2867255330002081 0.4460185637518319 0.4665363947239862
0.2869339549997676 0.44699560332193444 0.467513434294089
0.2871297849997063 0.44894968246213973 0.4665363947239862
0.28734422599973186 0.44894968246213973 0.4655593551538837
0.287536148000072 0.4450415241817294 0.4636052760136786
0.2877284039996084 0.4450415241817294 0.45969711773326827
0.28791995600022346 0.4450415241817294 0.4587200781631655
0.28811167500043666 0.4460185637518319 0.457743038593063
0.28830461600045965 0.44894968246213973 0.4606741573033708
0.2884967420004614 0.4460185637518319 0.46262823644357587
0.28868838699963817 0.4450415241817294 0.4636052760136786
0.2888806419996399 0.44894968246213973 0.46458231558378116
0.28907206500025495 0.44699560332193444 0.46458231558378116
0.28926383900034125 0.44699560332193444 0.467513434294089
0.2894567619996451 0.44699560332193444 0.4665363947239862
0.28964944400013337 0.4479726428920372 0.46946751343429405
0.289841050999712 0.45188080117244755 0.47142159257449934
0.2900326219996714 0.44894968246213973 0.4704445530043966
0.290224581000075 0.44894968246213973 0.4704445530043966
0.2904164669998863 0.44894968246213973 0.4684904738641915
0.29060826000022644 0.44699560332193444 0.467513434294089
0.2907996269996147 0.44992672203224227 0.467513434294089
0.290990641999997 0.44992672203224227 0.46946751343429405
0.29118237900001986 0.44992672203224227 0.46946751343429405
0.29137402400010615 0.45188080117244755 0.4684904738641915
0.2915662980003617 0.44992672203224227 0.46946751343429405
0.29175797999960196 0.45188080117244755 0.46946751343429405
0.29194962499968824 0.4528578407425501 0.47435271128480694
0.2921417690004091 0.4528578407425501 0.4733756717147044
0.29233317299986084 0.45188080117244755 0.47435271128480694
0.29252561399971455 0.44992672203224227 0.47142159257449934
0.29271688900007575 0.4557889594528579 0.47142159257449934
0.29290773699995043 0.44992672203224227 0.46946751343429405
0.293098844999804 0.45188080117244755 0.47239863214460187
0.29329047099963645 0.4538348803126526 0.4704445530043966
0.29348196699993423 0.45481191988275516 0.4684904738641915
0.29368711200004327 0.4538348803126526 0.4684904738641915
0.29387927500010846 0.4538348803126526 0.4655593551538837
0.29408293800042884 0.45481191988275516 0.4655593551538837
0.2942859530003261 0.45188080117244755 0.4587200781631655
0.2944934679999278 0.4528578407425501 0.44894968246213973
0.29476731500017195 0.4528578407425501 0.44699560332193444
0.29497695900045073 0.45676599902296044 0.4450415241817294
0.29517045600005076 0.45188080117244755 0.4450415241817294
0.2953599709999253 0.4509037616023448 0.4430874450415241
0.2955745970002681 0.44992672203224227 0.44894968246213973
0.29576496400022734 0.4528578407425501 0.44894968246213973
0.2959532200002286 0.45188080117244755 0.44699560332193444
0.29614521599978616 0.45676599902296044 0.4460185637518319
0.2963605089998964 0.4538348803126526 0.4479726428920372
0.29657206000047154 0.45188080117244755 0.4450415241817294
0.2967871490000107 0.4528578407425501 0.4460185637518319
0.29700997800046025 0.45188080117244755 0.4460185637518319
0.29720690100020875 0.4528578407425501 0.4450415241817294
0.29739478600004077 0.45481191988275516 0.45188080117244755
0.2975825049998093 0.45481191988275516 0.4401563263312165
0.29782085300030303 0.45969711773326827 0.441133365901319
0.298011163999945 0.45676599902296044 0.441133365901319
0.29819921600028465 0.4528578407425501 0.441133365901319
0.2983870650004974 0.4557889594528579 0.44211040547142155
0.298574710000139 0.45676599902296044 0.441133365901319
0.2987631690002672 0.4557889594528579 0.43722520762090866
0.29895151799973974 0.457743038593063 0.44406448461162684
0.2991394959999525 0.4538348803126526 0.4450415241817294
0.2993269179996787 0.4528578407425501 0.4382022471910112
0.29951417400025093 0.4538348803126526 0.43624816805080613
0.29970213399974455 0.4528578407425501 0.43624816805080613
0.29989125999964017 0.4509037616023448 0.4352711284807034
0.3000796269998318 0.4538348803126526 0.43624816805080613
0.30026688300040405 0.4528578407425501 0.43722520762090866
0.30045475000042643 0.45188080117244755 0.43429408891060084
0.3006425430003219 0.45188080117244755 0.4303859306301905
0.3008310770001117 0.4479726428920372 0.43429408891060084
0.30101918400032446 0.44992672203224227 0.4333170493404983
0.30120642200017755 0.44699560332193444 0.4323400097703958
0.30139464100011537 0.45481191988275516 0.43429408891060084
0.3015817479999896 0.4509037616023448 0.4303859306301905
0.3017803559996537 0.4509037616023448 0.4323400097703958
0.3019680010002048 0.4538348803126526 0.4352711284807034
0.30215571999997337 0.4509037616023448 0.4323400097703958
0.3023426979998476 0.4538348803126526 0.431362970200293
0.3025301939997007 0.44992672203224227 0.4303859306301905
0.30271952400016744 0.45188080117244755 0.4333170493404983
0.30290691000027437 0.45188080117244755 0.4333170493404983
0.30309483200016984 0.4509037616023448 0.43624816805080613
0.30328186600036133 0.45188080117244755 0.4382022471910112
0.30346912200002407 0.4509037616023448 0.43722520762090866
0.3036573219997081 0.4538348803126526 0.43722520762090866
0.3038584300002185 0.45188080117244755 0.4401563263312165
0.3040466299999025 0.4509037616023448 0.44211040547142155
0.3042351080002845 0.45188080117244755 0.44211040547142155
0.30442293800024345 0.4538348803126526 0.44406448461162684
0.30461043499963125 0.4557889594528579 0.4450415241817294
0.3047986720002882 0.4557889594528579 0.44699560332193444
0.3049865390003106 0.45481191988275516 0.4479726428920372
0.30517694300033327 0.4528578407425501 0.4460185637518319
0.3053642730001229 0.45481191988275516 0.4450415241817294
0.30555184399963764 0.45188080117244755 0.44992672203224227
0.30574337800044304 0.4528578407425501 0.4430874450415241
0.3059316710005078 0.45188080117244755 0.4450415241817294
0.3061199260000649 0.4509037616023448 0.4460185637518319
0.3063086270003623 0.4538348803126526 0.44992672203224227
0.30649640100000397 0.44992672203224227 0.4528578407425501
0.3066846390001956 0.44894968246213973 0.457743038593063
0.3068724309996469 0.4509037616023448 0.457743038593063
0.30706614999962767 0.4557889594528579 0.45969711773326827
0.3072554059999675 0.4538348803126526 0.45676599902296044
0.3074437730001591 0.44894968246213973 0.4587200781631655
0.30763152899999113 0.4538348803126526 0.45969711773326827
0.3078193960000135 0.44992672203224227 0.45969711773326827
0.3080068190001839 0.44894968246213973 0.45969711773326827
0.30819505599993136 0.4479726428920372 0.4636052760136786
0.3083832929996788 0.44894968246213973 0.46262823644357587
0.30857197499972244 0.44992672203224227 0.46165119687347334
0.3087600460003159 0.45188080117244755 0.46458231558378116
0.3089475240003594 0.4509037616023448 0.4655593551538837
0.3091357800003607 0.44992672203224227 0.467513434294089
0.30932349900012923 0.44699560332193444 0.46946751343429405
0.3095116800004689 0.4509037616023448 0.47239863214460187
0.30970641800013254 0.4509037616023448 0.4733756717147044
0.30989430299996457 0.4479726428920372 0.47435271128480694
0.3100822260003042 0.4509037616023448 0.4811919882755251
0.31026979699981894 0.44992672203224227 0.4753297508549097
0.310457645000497 0.44894968246213973 0.47239863214460187
0.3106454750004559 0.44992672203224227 0.47142159257449934
0.31085280499974033 0.44992672203224227 0.4733756717147044
0.3110418200003551 0.4528578407425501 0.47239863214460187
0.3112291309998909 0.4528578407425501 0.4733756717147044
0.31141651699999784 0.4509037616023448 0.47239863214460187
0.3116045500000837 0.45188080117244755 0.47239863214460187
0.3117930290000004 0.4509037616023448 0.47435271128480694
0.3119923399999607 0.45481191988275516 0.47239863214460187
0.31219826200049283 0.45481191988275516 0.47239863214460187
0.31240896199960844 0.4587200781631655 0.4733756717147044
0.3126068840001608 0.45676599902296044 0.4733756717147044
0.3128386389998923 0.457743038593063 0.47142159257449934
0.31302943199989386 0.45676599902296044 0.47142159257449934
0.3132177440002124 0.4557889594528579 0.4684904738641915
0.31340598099995987 0.4528578407425501 0.4665363947239862
0.31360620000032213 0.4557889594528579 0.46262823644357587
0.3137969740000699 0.457743038593063 0.4636052760136786
0.31398448900017684 0.45481191988275516 0.4636052760136786
0.3141718189999665 0.4557889594528579 0.4606741573033708
0.3143591309999465 0.4538348803126526 0.4606741573033708
0.3145463680002649 0.45481191988275516 0.4587200781631655
0.31473408700003347 0.45481191988275516 0.45969711773326827
0.31492143600007694 0.4538348803126526 0.45676599902296044
0.3151087650003319 0.4538348803126526 0.45676599902296044
0.31529596600012155 0.45481191988275516 0.45481191988275516
0.3154830370003765 0.45481191988275516 0.4557889594528579
0.31567127400012396 0.4557889594528579 0.45188080117244755
0.3158585299997867 0.45481191988275516 0.4509037616023448
0.31604573000004166 0.45481191988275516 0.44992672203224227
0.31623289399976784 0.4557889594528579 0.44992672203224227
0.3164204269996844 0.457743038593063 0.4460185637518319
0.3166080350001721 0.45676599902296044 0.4450415241817294
0.3167961059998561 0.457743038593063 0.44406448461162684
0.31698319499992067 0.457743038593063 0.441133365901319
0.3171702469999218 0.4557889594528579 0.4401563263312165
0.31735729899992293 0.4538348803126526 0.4382022471910112
0.3175444440003048 0.45188080117244755 0.43917928676111373
0.31773418099965056 0.45676599902296044 0.4382022471910112
0.3179214929996306 0.46262823644357587 0.4382022471910112
0.31810837800003355 0.45969711773326827 0.43722520762090866
0.318295727000077 0.45481191988275516 0.4382022471910112
0.3184828720004589 0.45676599902296044 0.4382022471910112
0.3186697390001427 0.45676599902296044 0.4450415241817294
0.318856957999742 0.457743038593063 0.4333170493404983
0.3190450100000817 0.45676599902296044 0.431362970200293
0.3192468770002961 0.45969711773326827 0.431362970200293
0.31943609500012826 0.457743038593063 0.4284318514899854
0.3196246659999815 0.46165119687347334 0.4284318514899854
0.3198126810002577 0.45481191988275516 0.4284318514899854
0.32000576999962504 0.45481191988275516 0.4303859306301905
0.32019386000047234 0.45188080117244755 0.42940889106008795
0.3203815229999236 0.4557889594528579 0.431362970200293
0.3205696490003902 0.4528578407425501 0.43429408891060084
0.32075757199982036 0.4528578407425501 0.43429408891060084
0.3209452720002446 0.45481191988275516 0.43429408891060084
0.3211335650003093 0.45676599902296044 0.4303859306301905
0.3213211539996337 0.4528578407425501 0.431362970200293
0.32150855800045974 0.457743038593063 0.4323400097703958
0.3217021099999329 0.4538348803126526 0.4235466536394723
0.3218898289997014 0.45481191988275516 0.42256961406936977
0.3220774370001891 0.45188080117244755 0.42159257449926724
0.32226535999961925 0.4538348803126526 0.42452369320957506
0.3224532080002973 0.45188080117244755 0.42159257449926724
0.32264072300040425 0.45481191988275516 0.42452369320957506
0.32282829399991897 0.4538348803126526 0.4255007327796776
0.32301675400049135 0.4509037616023448 0.42940889106008795
0.32320412100034446 0.45188080117244755 0.4303859306301905
0.3233915620003245 0.44699560332193444 0.4352711284807034
0.3235787989997334 0.44992672203224227 0.4382022471910112
0.323765887999798 0.4460185637518319 0.43722520762090866
0.3239531070003068 0.4538348803126526 0.43917928676111373
0.3241406779998215 0.44699560332193444 0.441133365901319
0.32432878600047843 0.44699560332193444 0.4430874450415241
0.3245165790003739 0.4450415241817294 0.44406448461162684
0.3247049270003117 0.44894968246213973 0.44699560332193444
0.3248922200000379 0.4460185637518319 0.4460185637518319
0.32508051300010266 0.44699560332193444 0.4460185637518319
0.32526793499982887 0.4450415241817294 0.4450415241817294
0.3254551170002742 0.4460185637518319 0.44699560332193444
0.32564420600010635 0.441133365901319 0.4450415241817294
0.3258325919996423 0.44406448461162684 0.44894968246213973
0.3260207180001089 0.4430874450415241 0.44992672203224227
0.3262084930001947 0.44406448461162684 0.4509037616023448
0.32639624900002673 0.4450415241817294 0.45188080117244755
0.32658426400030294 0.4450415241817294 0.4528578407425501
0.32677196399981767 0.44406448461162684 0.45188080117244755
0.32695996100028424 0.44406448461162684 0.46165119687347334
0.32714810499965097 0.4450415241817294 0.4587200781631655
0.32733682399975805 0.4460185637518319 0.45969711773326827
0.3275247470000977 0.4479726428920372 0.46165119687347334
0.3277125770000566 0.4538348803126526 0.46165119687347334
0.3279069990003336 0.4460185637518319 0.467513434294089
0.32809518100020796 0.4460185637518319 0.46262823644357587
0.32828299300035724 0.44406448461162684 0.4636052760136786
0.3284704520001469 0.4479726428920372 0.4655593551538837
0.3286586710000847 0.4460185637518319 0.467513434294089
0.3288462600003186 0.45188080117244755 0.4665363947239862
0.3290341640004044 0.4460185637518319 0.467513434294089
0.3292218650003633 0.44894968246213973 0.4684904738641915
0.32940962100019533 0.4479726428920372 0.4684904738641915
0.32960830200045166 0.44992672203224227 0.4684904738641915
0.32980189099998825 0.44894968246213973 0.47142159257449934
0.3299942209996516 0.44699560332193444 0.47142159257449934
0.33018605100005516 0.4479726428920372 0.46946751343429405
0.330377344000226 0.44992672203224227 0.4733756717147044
0.33056902600037574 0.44894968246213973 0.47239863214460187
0.3307605780000813 0.44894968246213973 0.47239863214460187
0.33095226000023104 0.45188080117244755 0.47239863214460187
0.33115645999987464 0.45188080117244755 0.47239863214460187
0.3313482149997071 0.45188080117244755 0.47239863214460187
0.33154054500027996 0.45188080117244755 0.4753297508549097
0.3317324859999644 0.45188080117244755 0.47728382999511476
0.33192468699962774 0.4538348803126526 0.4753297508549097
0.33211646099971404 0.4538348803126526 0.4733756717147044
0.33230908699988504 0.4538348803126526 0.4733756717147044
0.3325007129997175 0.4528578407425501 0.4753297508549097
0.332692488000248 0.4528578407425501 0.47435271128480694
0.33288359499965736 0.4557889594528579 0.46946751343429405
0.3330748879998282 0.45481191988275516 0.46946751343429405
0.3332656439997663 0.45481191988275516 0.46458231558378116
0.3334568259997468 0.45676599902296044 0.4655593551538837
0.3336486190000869 0.457743038593063 0.4655593551538837
0.33383942999989813 0.4528578407425501 0.4606741573033708
0.33403016700049193 0.457743038593063 0.4636052760136786
0.3342209600004935 0.45481191988275516 0.46262823644357587
0.33441166099964903 0.4538348803126526 0.45969711773326827
0.3346038609997777 0.4538348803126526 0.457743038593063
0.33479522800007544 0.45481191988275516 0.45481191988275516
0.3349867240003732 0.45676599902296044 0.4557889594528579
0.3351774430002479 0.45969711773326827 0.4528578407425501
0.3353678100002071 0.4557889594528579 0.4538348803126526
0.335560510000505 0.4528578407425501 0.4528578407425501
0.3357513030005066 0.457743038593063 0.4528578407425501
0.33594207799978903 0.45481191988275516 0.45481191988275516
0.3361400740004683 0.4528578407425501 0.44699560332193444
0.33633164500042767 0.4557889594528579 0.4479726428920372
0.3365231970001332 0.4538348803126526 0.4460185637518319
0.33671408200007136 0.4557889594528579 0.4450415241817294
0.33690489400032675 0.4557889594528579 0.44406448461162684
0.33709576100045524 0.4528578407425501 0.4430874450415241
0.3372873130001608 0.45481191988275516 0.441133365901319
0.337478123999972 0.4557889594528579 0.441133365901319
0.3376820100002078 0.45676599902296044 0.43917928676111373
0.3378733760000614 0.457743038593063 0.4382022471910112
0.3380642430001899 0.45676599902296044 0.4382022471910112
0.3382550550004453 0.457743038593063 0.43917928676111373
0.33844570000019303 0.45676599902296044 0.441133365901319
0.33863682599985623 0.4606741573033708 0.4382022471910112
0.338827878000302 0.45676599902296044 0.43624816805080613
0.33901837400026125 0.4557889594528579 0.43429408891060084
0.3392093530001148 0.45676599902296044 0.43624816805080613
0.33940010799960874 0.4538348803126526 0.43429408891060084
0.3395903640002871 0.45676599902296044 0.4323400097703958
0.3397812310004156 0.457743038593063 0.43429408891060084
0.33997215399995184 0.4587200781631655 0.4352711284807034
0.34016303899989 0.45676599902296044 0.43429408891060084
0.3403542579999339 0.457743038593063 0.4333170493404983
0.3405448470002739 0.45676599902296044 0.43429408891060084
0.340735918000064 0.4538348803126526 0.431362970200293
0.34092689600038284 0.45481191988275516 0.42940889106008795
0.3411176890003844 0.4538348803126526 0.4284318514899854
0.3413081480002802 0.4538348803126526 0.4284318514899854
0.3414986260004298 0.45188080117244755 0.42940889106008795
0.34169964099965 0.44992672203224227 0.4284318514899854
0.3418910450000112 0.45188080117244755 0.42745481191988266
0.3420823200003724 0.4509037616023448 0.4284318514899854
0.3422733719999087 0.45188080117244755 0.4284318514899854
0.3424643130001641 0.44992672203224227 0.431362970200293
0.3426552350001657 0.44894968246213973 0.4333170493404983
0.34284680600012507 0.4509037616023448 0.4323400097703958
0.34303830200042285 0.44992672203224227 0.43429408891060084
0.34322891000010713 0.44699560332193444 0.43429408891060084
0.34342446200025734 0.4460185637518319 0.4382022471910112
0.34361527399960323 0.4479726428920372 0.43624816805080613
0.3438056779996259 0.44992672203224227 0.441133365901319
0.3439978409996911 0.44992672203224227 0.44211040547142155
0.3441892450000523 0.4509037616023448 0.4450415241817294
0.3443884260004779 0.44894968246213973 0.44406448461162684
0.34457951599961234 0.44992672203224227 0.4460185637518319
0.34477043799961393 0.44894968246213973 0.4460185637518319
0.34496080500048265 0.45188080117244755 0.44406448461162684
0.3451515790002304 0.44992672203224227 0.44406448461162684
0.34534242799963977 0.4460185637518319 0.4479726428920372
0.34553277600025467 0.44699560332193444 0.4450415241817294
0.34572473600019293 0.4450415241817294 0.4479726428920372
0.34591491799983487 0.4479726428920372 0.44992672203224227
0.3461055440002383 0.4460185637518319 0.45188080117244755
0.3462968550002188 0.4479726428920372 0.45188080117244755
0.34648751900022035 0.44699560332193444 0.4528578407425501
0.3466780890003065 0.44406448461162684 0.457743038593063
0.3468686969999908 0.44699560332193444 0.45676599902296044
0.34705889700035186 0.4479726428920372 0.45969711773326827
0.34724931999971886 0.44699560332193444 0.46262823644357587
0.3474402789997839 0.4450415241817294 0.4606741573033708
0.34763142399970093 0.44894968246213973 0.467513434294089
0.34782186499978707 0.4450415241817294 0.4636052760136786
0.3480128990004232 0.4479726428920372 0.4655593551538837
0.3482033769996633 0.44699560332193444 0.4665363947239862
0.3483941699996649 0.4479726428920372 0.46946751343429405
0.3485849070002587 0.4460185637518319 0.46946751343429405
0.34877653300009115 0.44699560332193444 0.4684904738641915
0.34896788199966977 0.44894968246213973 0.47142159257449934
0.3491588779997983 0.4460185637518319 0.46946751343429405
0.3493498190000537 0.44699560332193444 0.4704445530043966
0.3495402600001398 0.4450415241817294 0.47142159257449934
0.3497321639997608 0.4460185637518319 0.4733756717147044
0.34992253099972004 0.4460185637518319 0.47142159257449934
0.3501130650001869 0.44894968246213973 0.47435271128480694
0.3503033950000827 0.44992672203224227 0.4733756717147044
0.3504939470003592 0.4509037616023448 0.4753297508549097
0.3506841099997473 0.44992672203224227 0.4733756717147044
0.35087468100027763 0.4528578407425501 0.47142159257449934
0.3510651400001734 0.44992672203224227 0.4704445530043966
0.351255210999625 0.44992672203224227 0.47142159257449934
0.35144554100043024 0.44992672203224227 0.47142159257449934
0.35163648199977615 0.4479726428920372 0.46946751343429405
0.35182716400049685 0.44992672203224227 0.4704445530043966
0.35201745700032916 0.4460185637518319 0.4665363947239862
0.3522083420002673 0.44992672203224227 0.4665363947239862
0.35240452400012146 0.44894968246213973 0.46458231558378116
0.3525955020004403 0.4479726428920372 0.46165119687347334
0.3527858320003361 0.44894968246213973 0.4655593551538837
0.35297588400044333 0.44894968246213973 0.46458231558378116
0.35316617700027564 0.4479726428920372 0.4655593551538837
0.35335685900008684 0.44992672203224227 0.46262823644357587
0.3535477630002788 0.44992672203224227 0.45969711773326827
0.3537377780003226 0.4528578407425501 0.46165119687347334
0.35392857100032415 0.4538348803126526 0.45969711773326827
0.35411921499962773 0.45481191988275516 0.45969711773326827
0.3543092299996715 0.457743038593063 0.457743038593063
0.3545002079999904 0.4587200781631655 0.4587200781631655
0.35469081599967467 0.45969711773326827 0.45969711773326827
0.35488162799993006 0.45676599902296044 0.4587200781631655
0.35507221700027003 0.4557889594528579 0.457743038593063
0.3552629910000178 0.46262823644357587 0.45676599902296044
0.3554533950000405 0.45969711773326827 0.45481191988275516
0.35564907699972537 0.45969711773326827 0.45676599902296044
0.35584038799970585 0.45969711773326827 0.4528578407425501
0.3560306440003842 0.45676599902296044 0.44992672203224227
0.35622110399981466 0.457743038593063 0.4450415241817294
0.35641165600009117 0.45676599902296044 0.4450415241817294
0.3566022080003677 0.45676599902296044 0.441133365901319
0.3567928900001789 0.45969711773326827 0.44211040547142155
0.35698347899960936 0.45481191988275516 0.43917928676111373
0.35717458599992824 0.45969711773326827 0.4401563263312165
0.3573655649997818 0.45676599902296044 0.43722520762090866
0.3575557280000794 0.4606741573033708 0.4430874450415241
0.3577462800003559 0.45676599902296044 0.4401563263312165
0.3579362950003997 0.4587200781631655 0.4382022471910112
0.3581264029999147 0.457743038593063 0.4382022471910112
0.3583165290001489 0.46458231558378116 0.43722520762090866
0.35850672899960045 0.4587200781631655 0.4382022471910112
0.3586970960004692 0.457743038593063 0.43722520762090866
0.3588870740004495 0.45676599902296044 0.4382022471910112
0.35907734900047217 0.45481191988275516 0.4382022471910112
0.3592677899996488 0.457743038593063 0.43722520762090866
0.3594575269999041 0.46165119687347334 0.4352711284807034
0.3596475049998844 0.4538348803126526 0.43429408891060084
0.359837854000034 0.45676599902296044 0.4333170493404983
0.36002816499967594 0.4557889594528579 0.43429408891060084
0.3602185689996986 0.45481191988275516 0.43429408891060084
0.36041414000010263 0.4528578407425501 0.4303859306301905
0.3606056919998082 0.4528578407425501 0.4382022471910112
0.36079705900010595 0.45188080117244755 0.431362970200293
0.3609871660000863 0.4509037616023448 0.4303859306301905
0.36117760700017243 0.44992672203224227 0.43429408891060084
0.3613680669996029 0.44894968246213973 0.42940889106008795
0.3615583600003447 0.457743038593063 0.42940889106008795
0.36175089300013497 0.45188080117244755 0.4303859306301905
0.3619422970004962 0.44992672203224227 0.431362970200293
0.3621329790003074 0.4557889594528579 0.4303859306301905
0.3623231980000128 0.4528578407425501 0.4303859306301905
0.3625134350004373 0.4557889594528579 0.4323400097703958
0.3627036540001427 0.4528578407425501 0.43429408891060084
0.36289383599978464 0.45481191988275516 0.4352711284807034
0.36308412899961695 0.4528578407425501 0.43624816805080613
0.3632747550000204 0.4538348803126526 0.4352711284807034
0.36346501099978923 0.4538348803126526 0.4382022471910112
0.3636553960004676 0.4538348803126526 0.43917928676111373
0.36384611500034225 0.4528578407425501 0.4401563263312165
0.36403738999979396 0.4528578407425501 0.44211040547142155
0.36422773800040886 0.4509037616023448 0.4430874450415241
0.36441860499962786 0.44894968246213973 0.4450415241817294
0.36460919399996783 0.4528578407425501 0.44406448461162684
0.36480093099999067 0.4509037616023448 0.4538348803126526
0.3649913170002037 0.44992672203224227 0.44992672203224227
0.3651819059996342 0.44894968246213973 0.4538348803126526
0.3653725880003549 0.45188080117244755 0.45188080117244755
0.36556336200010264 0.4528578407425501 0.4528578407425501
0.3657544699999562 0.44894968246213973 0.45188080117244755
0.36594465200050763 0.45188080117244755 0.4509037616023448
0.36613512999974773 0.4479726428920372 0.4538348803126526
0.3663253860004261 0.44992672203224227 0.4528578407425501
0.3665156229999411 0.4479726428920372 0.4557889594528579
0.3667063049997523 0.44992672203224227 0.45481191988275516
0.3668967639996481 0.4479726428920372 0.457743038593063
0.3670870570003899 0.4450415241817294 0.4587200781631655
0.3672776089997569 0.4479726428920372 0.4606741573033708
0.36746825400041416 0.44699560332193444 0.4587200781631655
0.36765845399986574 0.44992672203224227 0.46262823644357587
0.3678545800003121 0.44699560332193444 0.46458231558378116
0.36804678099997545 0.44699560332193444 0.46458231558378116
0.36823738800012507 0.44992672203224227 0.4655593551538837
0.368427848000465 0.44992672203224227 0.46946751343429405
0.3686233999997057 0.44699560332193444 0.467513434294089
0.3688132110000879 0.4479726428920372 0.47239863214460187
0.3690033189996029 0.4479726428920372 0.46946751343429405
0.36919363099968905 0.44992672203224227 0.4704445530043966
0.3693844050003463 0.4460185637518319 0.4684904738641915
0.3695743640000728 0.44894968246213973 0.47142159257449934
0.3697797309996531 0.4479726428920372 0.4704445530043966
0.3699711170002047 0.44699560332193444 0.4704445530043966
0.37016222399961407 0.44699560332193444 0.4684904738641915
0.370352683999954 0.44992672203224227 0.4704445530043966
0.37054317999991326 0.44894968246213973 0.47142159257449934
0.37073419599983026 0.4557889594528579 0.4753297508549097
0.3709245810005086 0.4528578407425501 0.4753297508549097
0.37111531800019293 0.4538348803126526 0.47728382999511476
0.37130588899981376 0.45481191988275516 0.47923790913532005
0.3714969040001961 0.4557889594528579 0.47728382999511476
0.3716871779997746 0.45676599902296044 0.47923790913532005
0.3718772860001991 0.45481191988275516 0.4782608695652173
0.37206774599962955 0.45676599902296044 0.4763067904250122
0.3722586499998215 0.4587200781631655 0.4763067904250122
0.3724494059997596 0.457743038593063 0.4753297508549097
0.372641828000269 0.457743038593063 0.4733756717147044
0.3728338620003342 0.4528578407425501 0.4704445530043966
0.37302435800029343 0.44992672203224227 0.4684904738641915
0.373214428999745 0.44992672203224227 0.467513434294089
0.37340525899981003 0.45188080117244755 0.4655593551538837
0.37360536600044725 0.45188080117244755 0.4655593551538837
0.37379688100008934 0.4528578407425501 0.4636052760136786
0.37398758200015436 0.45188080117244755 0.46458231558378116
0.37417778199960594 0.45188080117244755 0.45969711773326827
0.3743684270002632 0.44992672203224227 0.46165119687347334
0.3745590529997571 0.45676599902296044 0.45969711773326827
0.374749401000372 0.4509037616023448 0.4606741573033708
0.3749400650003736 0.4557889594528579 0.457743038593063
0.37513096899965603 0.45676599902296044 0.45676599902296044
0.37532159500005946 0.4557889594528579 0.45481191988275516
0.37551103599980706 0.4557889594528579 0.4538348803126526
0.37570086600044306 0.4528578407425501 0.4538348803126526
0.3758912880002754 0.457743038593063 0.4528578407425501
0.37608124800044607 0.4538348803126526 0.44992672203224227
0.3762710410001091 0.4538348803126526 0.45188080117244755
0.3764615000000049 0.457743038593063 0.44992672203224227
0.37665234900032374 0.4557889594528579 0.44992672203224227
0.3768514379999033 0.4538348803126526 0.4479726428920372
0.37704287900032796 0.45481191988275516 0.44406448461162684
0.3772337640002661 0.4557889594528579 0.44406448461162684
0.37742461299967545 0.4528578407425501 0.4430874450415241
0.3776163689999521 0.45481191988275516 0.4430874450415241
0.37780771699999605 0.4538348803126526 0.441133365901319
0.37799878799978615 0.4538348803126526 0.4430874450415241
0.3781892839997454 0.45188080117244755 0.4401563263312165
0.3783797070000219 0.4528578407425501 0.441133365901319
0.3785708329996851 0.45188080117244755 0.43722520762090866
0.3787613849999616 0.4509037616023448 0.43917928676111373
0.37895165999998426 0.45188080117244755 0.43624816805080613
0.3791420449997531 0.45481191988275516 0.4333170493404983
0.37933239300036803 0.4538348803126526 0.43429408891060084
0.37952340900028503 0.4509037616023448 0.431362970200293
0.3797136089997366 0.4557889594528579 0.431362970200293
0.37990977200024645 0.45481191988275516 0.42940889106008795
0.3801007499996558 0.4557889594528579 0.4303859306301905
0.38029126499986887 0.45676599902296044 0.431362970200293
0.3804822250003781 0.45676599902296044 0.42940889106008795
0.3806740179998087 0.457743038593063 0.431362970200293
0.3808653100004449 0.45481191988275516 0.431362970200293
0.3810558069999388 0.45969711773326827 0.4323400097703958
0.381247655000152 0.4587200781631655 0.4333170493404983
0.38144713299971045 0.4557889594528579 0.4323400097703958
0.3816443519999666 0.45481191988275516 0.4303859306301905
0.38183616300011636 0.45188080117244755 0.4333170493404983
0.3820278639996104 0.44894968246213973 0.4333170493404983
0.3822187120003946 0.4557889594528579 0.4323400097703958
0.3824091899996347 0.4509037616023448 0.4323400097703958
0.3825994090002496 0.45188080117244755 0.431362970200293
0.3827900539999973 0.4479726428920372 0.4323400097703958
0.38298086499980855 0.45188080117244755 0.4382022471910112
0.3831720839998525 0.44894968246213973 0.4333170493404983
0.3833628949996637 0.4479726428920372 0.43429408891060084
0.38355304000015167 0.44406448461162684 0.4323400097703958
0.3837435369996456 0.4430874450415241 0.4352711284807034
0.3839339779997317 0.441133365901319 0.43722520762090866
0.38412458499988134 0.4430874450415241 0.43722520762090866
0.3843146750004962 0.4450415241817294 0.4401563263312165
0.38450543100043433 0.4430874450415241 0.44211040547142155
0.3846980380003515 0.44406448461162684 0.4382022471910112
0.3849014970001008 0.44992672203224227 0.44211040547142155
0.38509223500022927 0.4450415241817294 0.4401563263312165
0.3852825280000616 0.4479726428920372 0.4430874450415241
0.38547270900016883 0.4479726428920372 0.4479726428920372
0.38566444699972635 0.44699560332193444 0.4460185637518319
0.3858574799996859 0.44894968246213973 0.44894968246213973
0.3860483469998144 0.4479726428920372 0.44992672203224227
0.38623945499966794 0.45188080117244755 0.4528578407425501
0.38643039599992335 0.44699560332193444 0.45481191988275516
0.3866211889999249 0.4479726428920372 0.457743038593063
0.38681176000045525 0.44699560332193444 0.45969711773326827
0.38700268200045684 0.4479726428920372 0.46165119687347334
0.3871932530000777 0.44699560332193444 0.4606741573033708
0.3873835639997196 0.44992672203224227 0.46262823644357587
0.3875739129998692 0.4450415241817294 0.4606741573033708
0.387764371999765 0.44992672203224227 0.4665363947239862
0.3879552389998935 0.45676599902296044 0.46458231558378116
0.38814582800023345 0.4460185637518319 0.4655593551538837
0.3883361400003196 0.4479726428920372 0.46946751343429405
0.38853304399981425 0.4460185637518319 0.4684904738641915
0.3887404659999447 0.44894968246213973 0.4704445530043966
0.3889378880003278 0.44992672203224227 0.47239863214460187
0.3891290700003083 0.4479726428920372 0.47142159257449934
0.3893201040000349 0.44992672203224227 0.46946751343429405
0.3895108220003749 0.44699560332193444 0.46946751343429405
0.38971668900012446 0.4479726428920372 0.467513434294089
0.38990861199999927 0.4479726428920372 0.46458231558378116
0.3901005529996837 0.4460185637518319 0.467513434294089
0.39029162299993914 0.4450415241817294 0.4684904738641915
0.39048274899960234 0.4479726428920372 0.46946751343429405
0.3906728940000903 0.4450415241817294 0.4665363947239862
0.39086392799981695 0.4479726428920372 0.4753297508549097
0.39105466500041075 0.44699560332193444 0.4704445530043966
0.39124592099960864 0.44894968246213973 0.47142159257449934
0.3914363249996313 0.44992672203224227 0.4704445530043966
0.39162661800037313 0.45188080117244755 0.4733756717147044
0.39181761400050164 0.44992672203224227 0.4704445530043966
0.39200811099999555 0.45188080117244755 0.4733756717147044
0.3922079410003789 0.4509037616023448 0.47239863214460187
0.3923981970001478 0.4509037616023448 0.47435271128480694
0.39258867500029737 0.45188080117244755 0.47142159257449934
0.39285428099992714 0.44894968246213973 0.4704445530043966
0.39305190699997183 0.45188080117244755 0.47142159257449934
0.39324362600018503 0.45188080117244755 0.46946751343429405
0.3934349190003559 0.4528578407425501 0.4684904738641915
0.39362589699976525 0.4528578407425501 0.467513434294089
0.39381683800002065 0.45481191988275516 0.4665363947239862
0.3940080009997473 0.4538348803126526 0.467513434294089
0.39419877500040457 0.45188080117244755 0.4665363947239862
0.39438893900023686 0.45188080117244755 0.4655593551538837
0.3945793060001961 0.44894968246213973 0.47239863214460187
0.39476976500009187 0.45188080117244755 0.46262823644357587
0.394959483999628 0.45188080117244755 0.4636052760136786
0.39515040700007376 0.45188080117244755 0.46262823644357587
0.3953410330004772 0.45188080117244755 0.4655593551538837
0.3955313260003095 0.4509037616023448 0.45676599902296044
0.39572171100007836 0.4557889594528579 0.45969711773326827
0.39591213400035485 0.4538348803126526 0.4557889594528579
0.39610188999995444 0.4528578407425501 0.4538348803126526
0.39629251600035786 0.457743038593063 0.4528578407425501
0.3964817160003804 0.4538348803126526 0.45188080117244755
0.39667204600027617 0.45481191988275516 0.4509037616023448
0.39686206100031995 0.457743038593063 0.44992672203224227
0.3970530209999197 0.45481191988275516 0.4460185637518319
0.3972431840002173 0.45481191988275516 0.45481191988275516
0.39743375499983813 0.4557889594528579 0.44211040547142155
0.3976247139999032 0.4557889594528579 0.44406448461162684
0.3978156740004124 0.45481191988275516 0.4430874450415241
0.39800637400003325 0.4557889594528579 0.44406448461162684
0.3981968890002463 0.4528578407425501 0.441133365901319
0.3983871629998248 0.4557889594528579 0.44211040547142155
0.39857782699982636 0.45481191988275516 0.4382022471910112
0.39876782299961633 0.4538348803126526 0.43917928676111373
0.3989581719997659 0.45676599902296044 0.4401563263312165
0.3991491130000213 0.457743038593063 0.43722520762090866
0.39934001700021327 0.45676599902296044 0.4352711284807034
0.3995310130003418 0.45676599902296044 0.43624816805080613
0.3997210659999837 0.4587200781631655 0.4352711284807034
0.3999113030004082 0.45969711773326827 0.43429408891060084
0.40010211400021944 0.4587200781631655 0.4352711284807034
0.40029261099971336 0.45969711773326827 0.43429408891060084
0.40048288500020135 0.4587200781631655 0.43624816805080613
0.4006728260001182 0.45969711773326827 0.4352711284807034
0.4008627860002889 0.45676599902296044 0.4333170493404983
0.4010539310002059 0.46165119687347334 0.43917928676111373
0.40125009399980627 0.45969711773326827 0.43624816805080613
0.4014405899997655 0.457743038593063 0.43429408891060084
0.4016322349998518 0.45676599902296044 0.43624816805080613
0.40182254600040324 0.45676599902296044 0.43722520762090866
0.40201363600044715 0.4528578407425501 0.4333170493404983
0.4022041509997507 0.4557889594528579 0.43624816805080613
0.4023946289999003 0.45481191988275516 0.4382022471910112
0.40258571800040954 0.4538348803126526 0.43624816805080613
0.40277690000039 0.44894968246213973 0.441133365901319
0.40297208100037096 0.4509037616023448 0.4460185637518319
0.40316248500039364 0.45188080117244755 0.4450415241817294
0.40335259299990867 0.44699560332193444 0.44211040547142155
0.40354320100050245 0.44699560332193444 0.441133365901319
0.40373395700044057 0.44699560332193444 0.43722520762090866
0.4039245639996807 0.44992672203224227 0.43917928676111373
0.4041152460004014 0.4450415241817294 0.43722520762090866
0.40430596500027605 0.44699560332193444 0.43917928676111373
0.4045113129996025 0.44894968246213973 0.4450415241817294
0.40470271699996374 0.4460185637518319 0.44699560332193444
0.40489384299962694 0.44699560332193444 0.44699560332193444
0.40508495100039 0.45188080117244755 0.4450415241817294
0.40527546599969355 0.44699560332193444 0.4460185637518319
0.40546531499967386 0.44699560332193444 0.44699560332193444
0.4056564590000562 0.4450415241817294 0.4479726428920372
0.40584793699963484 0.4450415241817294 0.44992672203224227
0.4060384519998479 0.4450415241817294 0.4509037616023448
0.40622955999970145 0.4460185637518319 0.4557889594528579
0.4064203899997665 0.44406448461162684 0.4557889594528579
0.40661053500025446 0.4430874450415241 0.4528578407425501
0.4068012349998753 0.4450415241817294 0.457743038593063
0.4069915830004902 0.4450415241817294 0.4538348803126526
0.4071818210004494 0.44894968246213973 0.45969711773326827
0.4073729470001126 0.4509037616023448 0.45676599902296044
0.40756287000021985 0.4479726428920372 0.46262823644357587
0.4077535140004329 0.44699560332193444 0.4636052760136786
0.4079443070004345 0.4450415241817294 0.46165119687347334
0.40813474799961114 0.4479726428920372 0.45969711773326827
0.4083247629996549 0.44699560332193444 0.45969711773326827
0.4085149270003967 0.4450415241817294 0.4606741573033708
0.40870562700001756 0.4509037616023448 0.46165119687347334
0.40889623499970185 0.44406448461162684 0.4655593551538837
0.40908867600046506 0.4479726428920372 0.4636052760136786
0.40927972800000134 0.4479726428920372 0.46458231558378116
0.40947965000032127 0.44894968246213973 0.4665363947239862
0.4096833499997956 0.44894968246213973 0.47142159257449934
0.4098746800000299 0.4479726428920372 0.46946751343429405
0.41006576899962965 0.4479726428920372 0.47728382999511476
0.4102563579999696 0.45188080117244755 0.4753297508549097
0.4104469659996539 0.44992672203224227 0.47239863214460187
0.41063766600018425 0.4479726428920372 0.47239863214460187
0.41082860700043966 0.4509037616023448 0.47239863214460187
0.411019455999849 0.4509037616023448 0.47142159257449934
0.4112097859997448 0.44894968246213973 0.47239863214460187
0.4114002080004866 0.4557889594528579 0.4733756717147044
0.41159053800038237 0.4509037616023448 0.47142159257449934
0.411780534999707 0.4528578407425501 0.4802149487054226
0.4119708830003219 0.4528578407425501 0.46946751343429405
0.4121610279999004 0.4509037616023448 0.4684904738641915
0.412351062000198 0.4538348803126526 0.4704445530043966
0.41254155800015724 0.4509037616023448 0.47142159257449934
0.4127322770000319 0.4557889594528579 0.47239863214460187
0.4129217919999064 0.45188080117244755 0.47142159257449934
0.41311282599963306 0.4528578407425501 0.4704445530043966
0.41330311900037486 0.45188080117244755 0.47142159257449934
0.41349339299995336 0.4509037616023448 0.4665363947239862
0.4136940930002311 0.4509037616023448 0.4665363947239862
0.41388475599978847 0.44894968246213973 0.4655593551538837
0.41407523399993806 0.4509037616023448 0.46458231558378116
0.41426604600019346 0.4479726428920372 0.46165119687347334
0.4144560240001738 0.44699560332193444 0.4606741573033708
0.4146461319996888 0.45188080117244755 0.46165119687347334
0.41483690600034606 0.44699560332193444 0.46165119687347334
0.4150277360004111 0.4538348803126526 0.4655593551538837
0.41521836199990503 0.4528578407425501 0.45676599902296044
0.41540904399971623 0.4557889594528579 0.4538348803126526
0.4155987069998446 0.4538348803126526 0.4538348803126526
0.415788481999698 0.4528578407425501 0.4509037616023448
0.4159790149997207 0.4557889594528579 0.44992672203224227
0.41616936399987026 0.45481191988275516 0.4450415241817294
0.4163593419998506 0.4528578407425501 0.44406448461162684
0.41654926400042314 0.4557889594528579 0.44211040547142155
0.4167470200000025 0.4538348803126526 0.441133365901319
0.41693966500042734 0.4538348803126526 0.43917928676111373
0.41713053199964634 0.45481191988275516 0.4401563263312165
0.41732113899979595 0.45481191988275516 0.43917928676111373
0.417517394999777 0.45481191988275516 0.4382022471910112
0.41770957700009603 0.45481191988275516 0.4333170493404983
0.41790005500024563 0.45676599902296044 0.43624816805080613
0.4180907740001203 0.4528578407425501 0.4352711284807034
0.41828121500020643 0.45676599902296044 0.4382022471910112
0.41847165600029257 0.4538348803126526 0.4323400097703958
0.41866213400044217 0.45481191988275516 0.4333170493404983
0.41885350099983043 0.4557889594528579 0.431362970200293
0.419049922999875 0.45481191988275516 0.431362970200293
0.4192450310001732 0.4606741573033708 0.4284318514899854
0.41945330500038835 0.45676599902296044 0.4323400097703958
0.41966406000028655 0.4557889594528579 0.43429408891060084
0.41988359300012235 0.45481191988275516 0.431362970200293
0.4200922010004433 0.4528578407425501 0.4284318514899854
0.42029088199979014 0.4538348803126526 0.4284318514899854
0.4204926009997507 0.4509037616023448 0.4284318514899854
0.4206948940000075 0.44699560332193444 0.42745481191988266
0.42089770500024315 0.45188080117244755 0.431362970200293
0.42109968299973843 0.45188080117244755 0.42940889106008795
0.4212976239996351 0.44992672203224227 0.4284318514899854
0.4215022130001671 0.44699560332193444 0.42745481191988266
0.42173717100013164 0.44992672203224227 0.4303859306301905
0.4219635930003278 0.44992672203224227 0.431362970200293
0.42217684899969754 0.44894968246213973 0.43429408891060084
0.4223850300004415 0.4479726428920372 0.441133365901319
0.4225820270003169 0.45188080117244755 0.43624816805080613
0.4227755600004457 0.44894968246213973 0.4382022471910112
0.4229670009999609 0.44699560332193444 0.44211040547142155
0.4231593129998146 0.4460185637518319 0.4382022471910112
0.4233569569996689 0.4479726428920372 0.441133365901319
0.4235592129998622 0.4450415241817294 0.44211040547142155
0.4237590610000552 0.4430874450415241 0.44406448461162684
0.42396201999963523 0.44406448461162684 0.4460185637518319
0.4241628870004206 0.44406448461162684 0.44406448461162684
0.42436810599974706 0.4460185637518319 0.4460185637518319
0.4245828800003437 0.4430874450415241 0.4479726428920372
0.4247951170000306 0.44406448461162684 0.4509037616023448
0.4250120570004583 0.4430874450415241 0.44992672203224227
0.42521427599967865 0.441133365901319 0.44992672203224227
0.4254123090004214 0.44211040547142155 0.45188080117244755
0.4256338790000882 0.44211040547142155 0.45188080117244755
0.4258421719996477 0.44699560332193444 0.45188080117244755
0.42606759400041483 0.441133365901319 0.45969711773326827
0.426267609000206 0.4430874450415241 0.45676599902296044
0.42646879000039917 0.441133365901319 0.46165119687347334
0.4266764530002547 0.441133365901319 0.4684904738641915
0.42687652400036313 0.441133365901319 0.4636052760136786
0.4270753720002176 0.44211040547142155 0.46458231558378116
0.42728668299969286 0.44406448461162684 0.46458231558378116
0.42752228999961517 0.44406448461162684 0.467513434294089
0.4277283230003377 0.4430874450415241 0.4684904738641915
0.4279438379999192 0.44406448461162684 0.46946751343429405
0.42815788999996585 0.4430874450415241 0.47239863214460187
0.42835955299960915 0.4450415241817294 0.4704445530043966
0.4285884749997422 0.44699560332193444 0.47239863214460187
0.42882176700004493 0.44699560332193444 0.46946751343429405
0.42903600400040887 0.4479726428920372 0.46946751343429405
0.4292469069996514 0.44894968246213973 0.4704445530043966
0.42944010799965326 0.44894968246213973 0.4684904738641915
0.429657603999658 0.44699560332193444 0.46946751343429405
0.42986211799961893 0.4460185637518319 0.46946751343429405
0.43007322599987674 0.4460185637518319 0.4763067904250122
0.43027314800019667 0.44992672203224227 0.47239863214460187
0.43046445999971183 0.44992672203224227 0.47435271128480694
0.43065545599984034 0.45188080117244755 0.4753297508549097
0.43084680500032846 0.4509037616023448 0.4753297508549097
0.4310370969997166 0.4538348803126526 0.4753297508549097
0.43122768700050074 0.44992672203224227 0.4753297508549097
0.43146371900002123 0.4509037616023448 0.47435271128480694
0.4316684940004052 0.45188080117244755 0.4753297508549097
0.43186565700034407 0.45676599902296044 0.47239863214460187
0.43206937499962805 0.45188080117244755 0.47142159257449934
0.4322651680004128 0.4509037616023448 0.4733756717147044
0.43250410800010286 0.45188080117244755 0.4753297508549097
0.432701048999661 0.4538348803126526 0.46946751343429405
0.43289891600034025 0.45188080117244755 0.467513434294089
0.43312261600021884 0.45188080117244755 0.4655593551538837
0.43332357500003127 0.45188080117244755 0.46262823644357587
0.433528423000098 0.45188080117244755 0.467513434294089
0.4337881040000866 0.45481191988275516 0.4606741573033708
0.4340072670001973 0.4587200781631655 0.46165119687347334
0.4342298000001392 0.457743038593063 0.4587200781631655
0.4344599810001455 0.4538348803126526 0.46165119687347334
0.43472753100013506 0.4587200781631655 0.45481191988275516
0.43498289699982706 0.45969711773326827 0.4509037616023448
0.43522987400046986 0.4538348803126526 0.4538348803126526
0.4354216669999005 0.457743038593063 0.4509037616023448
0.435613089999606 0.4538348803126526 0.44699560332193444
0.4358018640004957 0.4538348803126526 0.4450415241817294
0.4359896010000739 0.4538348803126526 0.4450415241817294
0.4361773569999059 0.45481191988275516 0.4430874450415241
0.43636526099999173 0.4538348803126526 0.441133365901319
0.4365531280000141 0.45481191988275516 0.44406448461162684
0.4367417729999943 0.45676599902296044 0.4450415241817294
0.43692984399967827 0.4557889594528579 0.44406448461162684
0.4371195069998066 0.45481191988275516 0.44211040547142155
0.43730968900035805 0.4538348803126526 0.44406448461162684
0.4374977970001055 0.45676599902296044 0.4401563263312165
0.4377240889998575 0.4587200781631655 0.4382022471910112
0.43791221500032407 0.457743038593063 0.4382022471910112
0.438099730000431 0.4557889594528579 0.441133365901319
0.43828756000038993 0.45676599902296044 0.43917928676111373
0.4384749640003065 0.4557889594528579 0.43624816805080613
0.43866346100003284 0.45676599902296044 0.4382022471910112
0.43885119799961103 0.45481191988275516 0.43722520762090866
0.4390392880004583 0.4557889594528579 0.43624816805080613
0.4392262290002691 0.45676599902296044 0.4382022471910112
0.4394132810002702 0.4538348803126526 0.4352711284807034
0.439600222000081 0.45481191988275516 0.4382022471910112
0.439787348000209 0.4538348803126526 0.43429408891060084
0.4399744370002736 0.457743038593063 0.4323400097703958
0.44016210100016906 0.45676599902296044 0.4323400097703958
0.440350060000128 0.45676599902296044 0.431362970200293
0.440538130999812 0.457743038593063 0.4323400097703958
0.4407251829998131 0.45481191988275516 0.43429408891060084
0.44091327200021624 0.4557889594528579 0.431362970200293
0.44110006499977317 0.4528578407425501 0.43429408891060084
0.4412873769997532 0.4528578407425501 0.431362970200293
0.4414750770001774 0.45188080117244755 0.4323400097703958
0.441665555000327 0.45188080117244755 0.4333170493404983
0.4418535699996937 0.4528578407425501 0.4323400097703958
0.4420411970004352 0.45188080117244755 0.43429408891060084
0.44222843399984413 0.45481191988275516 0.431362970200293
0.4424300789996778 0.44894968246213973 0.431362970200293
0.4426181489998271 0.44992672203224227 0.4333170493404983
0.44280542399974365 0.44699560332193444 0.4323400097703958
0.44299419799972384 0.44699560332193444 0.43624816805080613
0.44318189899968274 0.44406448461162684 0.43624816805080613
0.4433803580004678 0.4460185637518319 0.4382022471910112
0.44356909500038455 0.4479726428920372 0.4401563263312165
0.4437567029999627 0.44699560332193444 0.4430874450415241
0.4439439030002177 0.44406448461162684 0.4450415241817294
0.4441311959999439 0.44699560332193444 0.44992672203224227
0.444318712000495 0.4450415241817294 0.4479726428920372
0.44450611600041157 0.4509037616023448 0.44992672203224227
0.4446930940002858 0.44992672203224227 0.44894968246213973
0.44488057200032927 0.4509037616023448 0.44992672203224227
0.4450683459999709 0.4460185637518319 0.44894968246213973
0.4452552499997182 0.4479726428920372 0.44699560332193444
0.4454474320000372 0.4450415241817294 0.44699560332193444
0.4456442620003145 0.44406448461162684 0.4479726428920372
0.44585051700050826 0.4430874450415241 0.44992672203224227
0.4460683839997728 0.4430874450415241 0.44992672203224227
0.4462950839997575 0.4460185637518319 0.45188080117244755
0.4465413380003156 0.4460185637518319 0.4587200781631655
0.4467883899997105 0.4460185637518319 0.45676599902296044
0.44699607100028516 0.4460185637518319 0.457743038593063
0.44721580799978256 0.44894968246213973 0.46165119687347334
0.44741071200041915 0.4479726428920372 0.467513434294089
0.4475985600001877 0.44699560332193444 0.4655593551538837
0.44778726100048516 0.44992672203224227 0.4665363947239862
0.44797696099976747 0.4479726428920372 0.4655593551538837
0.44816593900031876 0.44992672203224227 0.467513434294089
0.44835297299960075 0.4460185637518319 0.46946751343429405
0.44854876499994134 0.4450415241817294 0.4665363947239862
0.44873628100049245 0.44406448461162684 0.46946751343429405
0.44892336999964755 0.4430874450415241 0.46946751343429405
0.4491119960002834 0.4450415241817294 0.4684904738641915
0.4492994929996712 0.4450415241817294 0.47435271128480694
0.4494870449998416 0.44406448461162684 0.47239863214460187
0.4497026340004595 0.44406448461162684 0.47728382999511476
0.44989090800027043 0.4450415241817294 0.4753297508549097
0.4500786449998486 0.44699560332193444 0.47435271128480694
0.450265753000167 0.4460185637518319 0.4733756717147044
0.45045280500016815 0.44406448461162684 0.4763067904250122
0.450640265000402 0.44992672203224227 0.4704445530043966
0.4508273729998109 0.4450415241817294 0.47142159257449934
0.4510145360000024 0.44406448461162684 0.47142159257449934
0.45120212500023626 0.4460185637518319 0.4704445530043966
0.45139078900047025 0.44992672203224227 0.46946751343429405
0.45159869199960667 0.4509037616023448 0.46946751343429405
0.45178805900013685 0.45188080117244755 0.47142159257449934
0.45197651899979974 0.44894968246213973 0.4665363947239862
0.45216414500009705 0.44992672203224227 0.467513434294089
0.4523522340005002 0.44699560332193444 0.4704445530043966
0.4525393049998456 0.44992672203224227 0.47142159257449934
0.4527270420003333 0.44894968246213973 0.46946751343429405
0.4529143910003768 0.44992672203224227 0.4684904738641915
0.45310179500029335 0.4479726428920372 0.4684904738641915
0.453289125000083 0.44992672203224227 0.467513434294089
0.4534762140001476 0.45188080117244755 0.4665363947239862
0.45366869200006477 0.45188080117244755 0.467513434294089
0.4538611329999185 0.4538348803126526 0.4655593551538837
0.45405172200025845 0.4528578407425501 0.46262823644357587
0.4542445710003449 0.4528578407425501 0.4636052760136786
0.45443582700045226 0.4538348803126526 0.46262823644357587
0.45462582300024224 0.4509037616023448 0.4636052760136786
0.454824004999864 0.44894968246213973 0.4636052760136786
0.45501477899961174 0.44992672203224227 0.45969711773326827
0.455205424000269 0.4509037616023448 0.4587200781631655
0.4553955869996571 0.45188080117244755 0.457743038593063
0.45558565800001816 0.4509037616023448 0.45481191988275516
0.4557765620002101 0.4538348803126526 0.44992672203224227
0.45596796599966183 0.4538348803126526 0.44992672203224227
0.4561582960004671 0.4528578407425501 0.4479726428920372
0.4563480520000667 0.4509037616023448 0.4460185637518319
0.4565382890004912 0.4538348803126526 0.44406448461162684
0.4567279339999004 0.4538348803126526 0.44406448461162684
0.45691765300034604 0.45481191988275516 0.44894968246213973
0.45710857500034763 0.45676599902296044 0.441133365901319
0.4572988310001165 0.4528578407425501 0.441133365901319
0.4574888650004141 0.4528578407425501 0.44211040547142155
0.45768912000039563 0.457743038593063 0.44406448461162684
0.4578803209997204 0.45676599902296044 0.4450415241817294
0.4580705210000815 0.457743038593063 0.44699560332193444
0.45826079499966 0.45481191988275516 0.44699560332193444
0.4584547360000215 0.4538348803126526 0.4460185637518319
0.4586504919998333 0.45676599902296044 0.44406448461162684
0.4588486920001742 0.4528578407425501 0.441133365901319
0.4590495769998597 0.4528578407425501 0.4382022471910112
0.45925181500024337 0.45481191988275516 0.431362970200293
0.45947086599971954 0.4538348803126526 0.431362970200293
0.45970730600038223 0.4538348803126526 0.4303859306301905
0.4599297100003241 0.45481191988275516 0.43429408891060084
0.46013222500005213 0.4538348803126526 0.4323400097703958
0.4603354060000129 0.45481191988275516 0.4303859306301905
0.46054919899961533 0.45676599902296044 0.4303859306301905
0.4607559730002322 0.45969711773326827 0.4303859306301905
