0 0.46165119687347334 0.4655593551538837
0.000434011000834289 0.4587200781631655 0.4655593551538837
0.0006955990002097678 0.45969711773326827 0.4655593551538837
0.0009354280000479775 0.4587200781631655 0.4665363947239862
0.0011936090004383004 0.4587200781631655 0.4655593551538837
0.001429661000656779 0.45481191988275516 0.467513434294089
0.0016412130007665837 0.45969711773326827 0.45969711773326827
0.0018637460007084883 0.45676599902296044 0.45969711773326827
0.0020947430002706824 0.45676599902296044 0.457743038593063
0.002303998000570573 0.4557889594528579 0.46165119687347334
0.002514550000341842 0.4528578407425501 0.46262823644357587
0.002721454000493395 0.4557889594528579 0.4655593551538837
0.002923525000369409 0.4557889594528579 0.47142159257449934
0.003125096000076155 0.45676599902296044 0.4665363947239862
0.00331933300003584 0.4557889594528579 0.4665363947239862
0.0035168110007361975 0.4528578407425501 0.4665363947239862
0.0037195300001258147 0.4538348803126526 0.467513434294089
0.003927101000044786 0.4557889594528579 0.4606741573033708
0.004125283000576019 0.45676599902296044 0.45969711773326827
0.004334316000495164 0.45481191988275516 0.45676599902296044
0.004539572000794578 0.4528578407425501 0.4557889594528579
0.004741180000564782 0.4557889594528579 0.4509037616023448
0.0049360290004187846 0.45188080117244755 0.44992672203224227
0.0051338030007173074 0.4509037616023448 0.4460185637518319
0.0053294480003387434 0.4538348803126526 0.44406448461162684
0.005522555999959877 0.45188080117244755 0.4401563263312165
0.0057132010006171186 0.45188080117244755 0.4382022471910112
0.005903698000111035 0.44992672203224227 0.43917928676111373
0.006095269000070402 0.45188080117244755 0.4382022471910112
0.006285673000093084 0.4509037616023448 0.4352711284807034
0.006477521000306297 0.4509037616023448 0.43624816805080613
0.006667944000582793 0.45188080117244755 0.4382022471910112
0.006872330000078364 0.4509037616023448 0.43722520762090866
0.007096493000062765 0.45188080117244755 0.43624816805080613
0.007288045000677812 0.45188080117244755 0.4382022471910112
0.0074796710005102796 0.45188080117244755 0.4382022471910112
0.007672483000533248 0.44894968246213973 0.43624816805080613
0.007867461000387266 0.44699560332193444 0.43429408891060084
0.008056477000536688 0.44699560332193444 0.4333170493404983
0.008249048000834591 0.4450415241817294 0.4333170493404983
0.008472266000353557 0.44699560332193444 0.431362970200293
0.00867737400039914 0.44699560332193444 0.4323400097703958
0.00887498200063419 0.44406448461162684 0.431362970200293
0.009071645000403805 0.4450415241817294 0.4323400097703958
0.00926545700076531 0.4450415241817294 0.4323400097703958
0.009470657000747451 0.4460185637518319 0.4323400097703958
0.00966187600079138 0.4460185637518319 0.4333170493404983
0.009853928000666201 0.4450415241817294 0.431362970200293
0.010054777000732429 0.4460185637518319 0.43624816805080613
0.01024410700028966 0.4450415241817294 0.4333170493404983
0.010432622000735137 0.44699560332193444 0.43624816805080613
0.010629971000525984 0.44699560332193444 0.43722520762090866
0.010826448999978311 0.4450415241817294 0.4382022471910112
0.011019853000107105 0.4430874450415241 0.4401563263312165
0.011210480000045209 0.44406448461162684 0.441133365901319
0.011402254000131506 0.4450415241817294 0.441133365901319
0.01159349200042925 0.4430874450415241 0.44406448461162684
0.011785822000092594 0.4430874450415241 0.441133365901319
0.011979208000411745 0.4430874450415241 0.44211040547142155
0.012170593000519148 0.44406448461162684 0.441133365901319
0.012464680999983102 0.44211040547142155 0.4430874450415241
0.012669289000768913 0.44211040547142155 0.4460185637518319
0.012866452000707795 0.44211040547142155 0.44992672203224227
0.01306369000030827 0.44406448461162684 0.4557889594528579
0.013267186000121 0.44406448461162684 0.4538348803126526
0.01347072000044136 0.4460185637518319 0.45676599902296044
0.013669735000803485 0.44406448461162684 0.457743038593063
0.01386688000002323 0.4450415241817294 0.45676599902296044
0.014062136000575265 0.44406448461162684 0.457743038593063
0.014262336000683717 0.44406448461162684 0.4587200781631655
0.014479666000625002 0.4479726428920372 0.457743038593063
0.014703366000503593 0.44406448461162684 0.45676599902296044
0.0149296770005094 0.4430874450415241 0.45969711773326827
0.015147062000323785 0.4430874450415241 0.45969711773326827
0.015368225000202074 0.44406448461162684 0.457743038593063
0.015588222000587848 0.44406448461162684 0.4606741573033708
0.015809570000783424 0.4460185637518319 0.4636052760136786
0.016096213000309945 0.44894968246213973 0.4636052760136786
0.01638446800006932 0.44699560332193444 0.467513434294089
0.01663244500014116 0.44992672203224227 0.4655593551538837
0.016921718000048713 0.4509037616023448 0.46262823644357587
0.017172714000480482 0.4528578407425501 0.4665363947239862
0.017389858000569802 0.45481191988275516 0.4665363947239862
0.017693372000394447 0.45188080117244755 0.47142159257449934
0.01799464500072645 0.4538348803126526 0.4665363947239862
0.018237381000290043 0.45481191988275516 0.467513434294089
0.018661263000467443 0.45676599902296044 0.46458231558378116
0.019006943000022147 0.4557889594528579 0.46262823644357587
0.0192334760004087 0.45481191988275516 0.46262823644357587
0.019455898000160232 0.457743038593063 0.46262823644357587
0.01966128399999434 0.4528578407425501 0.46165119687347334
0.019884206000824634 0.4538348803126526 0.4587200781631655
0.02014427600079216 0.4479726428920372 0.45969711773326827
0.020445474000553077 0.45188080117244755 0.457743038593063
0.020685729999968316 0.45481191988275516 0.4557889594528579
0.020933280999997805 0.45481191988275516 0.45481191988275516
0.02123640600075305 0.45188080117244755 0.4557889594528579
0.02155586300068535 0.44699560332193444 0.45676599902296044
0.021873247000257834 0.4460185637518319 0.4538348803126526
0.02208779900047375 0.4450415241817294 0.45676599902296044
0.02229772100054106 0.44406448461162684 0.457743038593063
0.022499070000776555 0.4450415241817294 0.45481191988275516
0.02269619600065198 0.44406448461162684 0.45676599902296044
0.022892526000759972 0.44699560332193444 0.45481191988275516
0.023084690000359842 0.44699560332193444 0.4528578407425501
0.02327661200069997 0.44894968246213973 0.4509037616023448
0.02346883100017294 0.44894968246213973 0.45188080117244755
0.02366458699998475 0.44992672203224227 0.44894968246213973
0.023865158000262454 0.4509037616023448 0.4479726428920372
0.024072377000265988 0.4509037616023448 0.44699560332193444
0.024302003000229888 0.4528578407425501 0.4430874450415241
0.024539573000765813 0.45676599902296044 0.4401563263312165
0.024795661000098335 0.45188080117244755 0.4401563263312165
0.025117582000348193 0.45188080117244755 0.43722520762090866
0.025392244000613573 0.4509037616023448 0.44211040547142155
0.02561583300030179 0.4528578407425501 0.441133365901319
0.025841866000519076 0.4538348803126526 0.441133365901319
0.026059788000566186 0.4509037616023448 0.44406448461162684
0.026288340000064636 0.45188080117244755 0.44211040547142155
0.02651579900066281 0.44894968246213973 0.4430874450415241
0.026734185000350408 0.44992672203224227 0.44406448461162684
0.02694186600001558 0.44992672203224227 0.441133365901319
0.02716482600044401 0.4538348803126526 0.441133365901319
0.02738234000025841 0.45188080117244755 0.44406448461162684
0.027603670000644343 0.44992672203224227 0.441133365901319
0.027849685000546742 0.45188080117244755 0.441133365901319
0.028084958000363258 0.44992672203224227 0.4401563263312165
0.02829493600074784 0.44992672203224227 0.44406448461162684
0.028511970000181464 0.44992672203224227 0.4401563263312165
0.028744410000399512 0.44699560332193444 0.43722520762090866
0.028964499000721844 0.45188080117244755 0.43722520762090866
0.02920147700024245 0.44992672203224227 0.4382022471910112
0.029509657000744483 0.45188080117244755 0.4382022471910112
0.029806096000356774 0.44992672203224227 0.4401563263312165
0.030041278000680904 0.4479726428920372 0.43917928676111373
0.03029707000041526 0.44992672203224227 0.4430874450415241
0.030522640000526735 0.44699560332193444 0.44406448461162684
0.03078141400055756 0.44699560332193444 0.44406448461162684
0.031031465000523895 0.4479726428920372 0.44406448461162684
0.031274128000404744 0.44699560332193444 0.44406448461162684
0.031522735000180546 0.44894968246213973 0.44406448461162684
0.03173799000069266 0.4479726428920372 0.4450415241817294
0.03195241299999907 0.44699560332193444 0.4479726428920372
0.03218407500025933 0.44894968246213973 0.44699560332193444
0.032425127000351495 0.44894968246213973 0.44992672203224227
0.032642994000525505 0.44894968246213973 0.44894968246213973
0.032878545000130543 0.4460185637518319 0.4538348803126526
0.03310119000070699 0.44894968246213973 0.4557889594528579
0.03334833400003845 0.4460185637518319 0.4557889594528579
0.03362540300076944 0.44699560332193444 0.4587200781631655
0.03391582400035986 0.44699560332193444 0.4587200781631655
0.034178339000391134 0.44894968246213973 0.4606741573033708
0.03445279700008541 0.44992672203224227 0.4606741573033708
0.03474745900075504 0.44894968246213973 0.45969711773326827
0.03502452800057654 0.44992672203224227 0.4606741573033708
0.035328412000126264 0.4479726428920372 0.4587200781631655
0.03560042600020097 0.4460185637518319 0.4587200781631655
0.03582827400077804 0.4479726428920372 0.45676599902296044
0.03603003000080207 0.4479726428920372 0.45676599902296044
0.03622504500071955 0.44699560332193444 0.4557889594528579
0.03679168400049093 0.44992672203224227 0.45676599902296044
0.03703114300060406 0.44992672203224227 0.4606741573033708
0.03722989900052198 0.4528578407425501 0.4655593551538837
0.03742591400077799 0.45481191988275516 0.46458231558378116
0.03762500300035754 0.4538348803126526 0.467513434294089
0.03781916700063448 0.4538348803126526 0.4655593551538837
0.03801384899998084 0.4538348803126526 0.46262823644357587
0.03820960500070214 0.4528578407425501 0.45676599902296044
0.03840119400047115 0.4538348803126526 0.4528578407425501
0.03859287600062089 0.4538348803126526 0.4528578407425501
0.03878591000011511 0.4557889594528579 0.44894968246213973
0.03903088700008084 0.45481191988275516 0.4557889594528579
0.03938247400037653 0.45969711773326827 0.46165119687347334
0.039670766000199364 0.4587200781631655 0.46262823644357587
0.04005642600077408 0.4557889594528579 0.4636052760136786
0.04063763900012418 0.44699560332193444 0.4606741573033708
0.0410110770008032 0.4479726428920372 0.45676599902296044
0.04124633200081007 0.4450415241817294 0.45676599902296044
0.04148043900022458 0.44406448461162684 0.4538348803126526
0.04174926800078538 0.4450415241817294 0.44894968246213973
0.04194989400002669 0.44406448461162684 0.4479726428920372
0.042142743000113114 0.4450415241817294 0.4460185637518319
0.042339314000855666 0.4479726428920372 0.44699560332193444
0.04253564400005416 0.45188080117244755 0.44894968246213973
0.04273251100039488 0.44992672203224227 0.44699560332193444
0.04292689700014307 0.45188080117244755 0.44894968246213973
0.04311954200056789 0.4538348803126526 0.45188080117244755
0.043318130999978166 0.4528578407425501 0.4509037616023448
0.04350998000063555 0.45481191988275516 0.4509037616023448
0.04370677300084935 0.4528578407425501 0.45969711773326827
0.043912806000662385 0.45676599902296044 0.45481191988275516
0.04412113600028533 0.4538348803126526 0.4528578407425501
0.04434485500041774 0.4538348803126526 0.4528578407425501
0.04455116600001929 0.4509037616023448 0.4538348803126526
0.04475771800025541 0.4528578407425501 0.4557889594528579
0.04522852500031149 0.4538348803126526 0.4509037616023448
0.045461669000360416 0.45481191988275516 0.4528578407425501
0.045692258000599395 0.4528578407425501 0.4460185637518319
0.045945680000841094 0.4538348803126526 0.4450415241817294
0.046173565000572125 0.4538348803126526 0.4450415241817294
0.04637861700030044 0.45188080117244755 0.4450415241817294
0.04658798400032538 0.4528578407425501 0.44406448461162684
0.04679859200041392 0.4528578407425501 0.44211040547142155
0.04700638400026946 0.4509037616023448 0.4430874450415241
0.047212140000738145 0.45188080117244755 0.43917928676111373
0.0474305630004892 0.4528578407425501 0.4382022471910112
0.047639429000810196 0.4528578407425501 0.43429408891060084
0.04783166700053698 0.4538348803126526 0.4333170493404983
0.04804495999997016 0.44992672203224227 0.4284318514899854
0.048315196000658034 0.44699560332193444 0.4264777723497801
0.048523600000407896 0.4460185637518319 0.42452369320957506
0.048754465999991226 0.4460185637518319 0.4235466536394723
0.04895770400071342 0.4460185637518319 0.42452369320957506
0.04915625600006024 0.4430874450415241 0.42256961406936977
0.0493659560006563 0.4430874450415241 0.4235466536394723
0.04957760100023734 0.441133365901319 0.4264777723497801
0.04979170800015709 0.44406448461162684 0.4323400097703958
0.0500114090000352 0.441133365901319 0.43624816805080613
0.05025027500050783 0.44406448461162684 0.43917928676111373
0.05046738200053369 0.44406448461162684 0.441133365901319
0.050690860000031535 0.44211040547142155 0.44406448461162684
0.05090669000037451 0.44406448461162684 0.44894968246213973
0.05112739000014699 0.44406448461162684 0.44894968246213973
0.051346627000384615 0.4460185637518319 0.4509037616023448
0.0516105120004795 0.44406448461162684 0.45188080117244755
0.051828249000209325 0.4430874450415241 0.45188080117244755
0.0520276900006138 0.44211040547142155 0.4509037616023448
0.052223890000277606 0.44406448461162684 0.4509037616023448
0.05242298000030132 0.44699560332193444 0.44992672203224227
0.05261605000032432 0.44211040547142155 0.44992672203224227
0.052809769000305096 0.4450415241817294 0.4538348803126526
0.05300178500056063 0.44894968246213973 0.44992672203224227
0.05319165200035059 0.4460185637518319 0.4509037616023448
0.05338751900035277 0.4450415241817294 0.44992672203224227
0.05357896000077744 0.4479726428920372 0.4528578407425501
0.05376677200001723 0.4479726428920372 0.44992672203224227
0.053953028000250924 0.44894968246213973 0.45481191988275516
0.05413967300046352 0.44992672203224227 0.45188080117244755
0.054325929000697215 0.44894968246213973 0.4528578407425501
0.05451213000014832 0.44894968246213973 0.4528578407425501
0.05470073800006503 0.4479726428920372 0.4538348803126526
0.05488751300072181 0.4479726428920372 0.45188080117244755
0.05507360200044786 0.4479726428920372 0.4528578407425501
0.0552601550007239 0.44992672203224227 0.4538348803126526
0.055446818000746134 0.4509037616023448 0.45481191988275516
0.055632908000006864 0.44894968246213973 0.4557889594528579
0.05581916400024056 0.44992672203224227 0.4557889594528579
0.056005957000706985 0.45188080117244755 0.45481191988275516
0.05619388000013714 0.45188080117244755 0.4557889594528579
0.056436542000483314 0.4528578407425501 0.4538348803126526
0.05662511300033657 0.4509037616023448 0.4509037616023448
0.05681149900010496 0.45188080117244755 0.44992672203224227
0.056997181000042474 0.4528578407425501 0.44894968246213973
0.05718499300019175 0.4528578407425501 0.44992672203224227
0.05737217500063707 0.4528578407425501 0.44894968246213973
0.05756796800051234 0.4528578407425501 0.4509037616023448
0.0577557060005347 0.4538348803126526 0.44992672203224227
0.0579420170006415 0.4538348803126526 0.4538348803126526
0.05812873600007151 0.4538348803126526 0.45676599902296044
0.05831580700032646 0.4538348803126526 0.4538348803126526
0.05850317500062374 0.45481191988275516 0.4557889594528579
0.05872278200058645 0.457743038593063 0.457743038593063
0.05891052000060881 0.4557889594528579 0.45969711773326827
0.059097330999975384 0.4557889594528579 0.4606741573033708
0.059283810000124504 0.457743038593063 0.4655593551538837
0.05947093600025255 0.45676599902296044 0.4684904738641915
0.05967143300040334 0.4587200781631655 0.4753297508549097
0.0598602080008277 0.4606741573033708 0.4753297508549097
0.06004679700072302 0.4606741573033708 0.4811919882755251
0.06023485000059736 0.46165119687347334 0.48216902784562765
0.06042371700004878 0.4655593551538837 0.4851001465559355
0.06061047300045175 0.46946751343429405 0.4782608695652173
0.06079748800038942 0.4665363947239862 0.4753297508549097
0.060983578000559646 0.4655593551538837 0.4733756717147044
0.061170612000751134 0.46262823644357587 0.4684904738641915
0.061357201000646455 0.4606741573033708 0.4684904738641915
0.06154345699997066 0.4587200781631655 0.46262823644357587
0.06172976900052163 0.4557889594528579 0.4606741573033708
0.061916285000734206 0.4557889594528579 0.45676599902296044
0.062102115000016056 0.45676599902296044 0.4528578407425501
0.062289204000080645 0.45481191988275516 0.44699560332193444
0.062475201000779634 0.4557889594528579 0.44406448461162684
0.06266219799999817 0.45481191988275516 0.43917928676111373
0.0628491950001262 0.45481191988275516 0.43917928676111373
0.06303524700069829 0.46165119687347334 0.4382022471910112
0.06322176300000137 0.4528578407425501 0.4401563263312165
0.06340907499998139 0.45481191988275516 0.43917928676111373
0.06359577500006708 0.4528578407425501 0.441133365901319
0.06379234600080963 0.45481191988275516 0.44211040547142155
0.06398043500030326 0.45676599902296044 0.4450415241817294
0.06418193200079259 0.4606741573033708 0.4479726428920372
0.06437765100054094 0.4606741573033708 0.4430874450415241
0.06456420400081697 0.46165119687347334 0.44992672203224227
0.06475047799995082 0.46165119687347334 0.4528578407425501
0.06493651200071326 0.4587200781631655 0.46458231558378116
0.06512399100029143 0.4557889594528579 0.4636052760136786
0.06531639500008168 0.44894968246213973 0.4665363947239862
0.06550279900056921 0.44699560332193444 0.4704445530043966
0.06568881400016835 0.4450415241817294 0.47239863214460187
0.0658747930001482 0.43917928676111373 0.4733756717147044
0.06606036400080484 0.43722520762090866 0.46946751343429405
0.06624650900084816 0.43624816805080613 0.46946751343429405
0.06643400600023597 0.43624816805080613 0.4665363947239862
0.06663313200078846 0.4382022471910112 0.4655593551538837
0.06682157300019753 0.4352711284807034 0.46262823644357587
0.06701084800079116 0.4382022471910112 0.46262823644357587
0.06719741899996734 0.4382022471910112 0.46262823644357587
0.06738402700011648 0.441133365901319 0.46165119687347334
0.06760535700050241 0.44406448461162684 0.46262823644357587
0.06779372400069406 0.4450415241817294 0.45676599902296044
0.06840249200013204 0.44211040547142155 0.44992672203224227
0.06859719200019754 0.44406448461162684 0.4430874450415241
0.06878420700013521 0.43917928676111373 0.44211040547142155
0.06897116700019978 0.441133365901319 0.43722520762090866
0.06915757200022199 0.43722520762090866 0.431362970200293
0.06934410600024421 0.4382022471910112 0.4264777723497801
0.06953095400058373 0.43624816805080613 0.4235466536394723
0.06971767300001375 0.4333170493404983 0.4206155349291647
0.0699040409999725 0.431362970200293 0.4206155349291647
0.07009009300054458 0.4323400097703958 0.4186614557889594
0.07027660900075716 0.43624816805080613 0.4176844162188569
0.07046329100012372 0.4352711284807034 0.4186614557889594
0.0706494730002305 0.4382022471910112 0.4186614557889594
0.07083580300059111 0.4401563263312165 0.4206155349291647
0.0710228370007826 0.44211040547142155 0.41963849535906195
0.07120918600048753 0.4430874450415241 0.41963849535906195
0.07139512699995976 0.44699560332193444 0.41670737664875435
0.07158092000008764 0.44894968246213973 0.4176844162188569
0.07176671300021553 0.44699560332193444 0.4157303370786516
0.07195287700051267 0.44699560332193444 0.41475329750854906
0.07213917000080983 0.44992672203224227 0.4137762579384465
0.07234224100011488 0.44992672203224227 0.41475329750854906
0.0725304600000527 0.44894968246213973 0.4137762579384465
0.0727182160007942 0.45188080117244755 0.4255007327796776
0.07291399100085982 0.45188080117244755 0.4186614557889594
0.07310989500001597 0.4538348803126526 0.42452369320957506
0.07330655800069508 0.4528578407425501 0.4264777723497801
0.07351159200061375 0.4557889594528579 0.4323400097703958
0.07371318100013013 0.4538348803126526 0.43722520762090866
0.0739087700003438 0.4538348803126526 0.44211040547142155
0.07410935999996582 0.4557889594528579 0.4479726428920372
0.07431002300018008 0.4538348803126526 0.4538348803126526
0.07450790900020365 0.4528578407425501 0.457743038593063
0.0747011460007343 0.45188080117244755 0.4606741573033708
0.07489888300005987 0.45188080117244755 0.46262823644357587
0.07509962100084522 0.4538348803126526 0.4665363947239862
0.07528835800076195 0.4509037616023448 0.4704445530043966
0.07547730000078445 0.4538348803126526 0.47239863214460187
0.07566816700000345 0.4557889594528579 0.4763067904250122
0.07586229300068226 0.4587200781631655 0.4763067904250122
0.07606160500017722 0.4538348803126526 0.4811919882755251
0.07631326700084173 0.4538348803126526 0.48216902784562765
0.07652217100076086 0.45481191988275516 0.48216902784562765
0.07671981600014988 0.4528578407425501 0.48216902784562765
0.07691249800063815 0.4528578407425501 0.48216902784562765
0.07710610600042855 0.45188080117244755 0.4802149487054226
0.07730254700072692 0.4509037616023448 0.4782608695652173
0.07749402600074973 0.4509037616023448 0.4753297508549097
0.07772387400018488 0.4557889594528579 0.46946751343429405
0.0779351660003158 0.44992672203224227 0.4665363947239862
0.07812481100063451 0.4479726428920372 0.4655593551538837
0.07831362300021283 0.44699560332193444 0.46458231558378116
0.07850132400017173 0.4460185637518319 0.46458231558378116
0.0786876910005958 0.44992672203224227 0.467513434294089
0.0788755769999625 0.44894968246213973 0.467513434294089
0.07907279600021866 0.4509037616023448 0.4665363947239862
0.07927231100075005 0.44992672203224227 0.4655593551538837
0.0794644560000961 0.45188080117244755 0.4684904738641915
0.07966319300066971 0.45188080117244755 0.46946751343429405
0.07985622700016393 0.45188080117244755 0.4665363947239862
0.08005589000003965 0.45188080117244755 0.467513434294089
0.08030631200017524 0.44894968246213973 0.467513434294089
0.08052854900051898 0.44992672203224227 0.4704445530043966
0.08073458300077618 0.4509037616023448 0.4655593551538837
0.08093428300071537 0.4538348803126526 0.4587200781631655
0.08113470600073924 0.44699560332193444 0.4606741573033708
0.08133046200055105 0.44992672203224227 0.45969711773326827
0.08152349600004527 0.4509037616023448 0.4557889594528579
0.08171819600011077 0.4528578407425501 0.4557889594528579
0.08192011900064244 0.4528578407425501 0.45676599902296044
0.08212239300064539 0.4538348803126526 0.4538348803126526
0.08231631600028777 0.4528578407425501 0.4587200781631655
0.08251153500077635 0.4538348803126526 0.4528578407425501
0.08270675400035543 0.4528578407425501 0.45188080117244755
0.08290858400050638 0.4538348803126526 0.45188080117244755
0.0831621350007481 0.45188080117244755 0.44992672203224227
0.08337416800077335 0.4479726428920372 0.44992672203224227
0.08356972100045823 0.44894968246213973 0.44992672203224227
0.08378395800082217 0.4479726428920372 0.4479726428920372
0.0839781580007184 0.44894968246213973 0.44699560332193444
0.08417071100029716 0.44992672203224227 0.4450415241817294
0.08445176200075366 0.4479726428920372 0.4460185637518319
0.08467003600071621 0.44894968246213973 0.44406448461162684
0.08486540300054912 0.4479726428920372 0.44406448461162684
0.08507762200042635 0.4509037616023448 0.4538348803126526
0.0852746919999845 0.44992672203224227 0.44406448461162684
0.08549174400013726 0.4538348803126526 0.4479726428920372
0.08569027800058393 0.4509037616023448 0.441133365901319
0.08589523800037568 0.45188080117244755 0.4401563263312165
0.08609180800067406 0.4509037616023448 0.4401563263312165
0.08628693500031659 0.45188080117244755 0.43624816805080613
0.08651582000038616 0.45188080117244755 0.4352711284807034
0.08675124199999118 0.4509037616023448 0.43917928676111373
0.08702016300048854 0.4538348803126526 0.4352711284807034
0.08726847400066617 0.4509037616023448 0.43722520762090866
0.08752495099997759 0.4509037616023448 0.4382022471910112
0.0877742250004303 0.4528578407425501 0.44211040547142155
0.08803199800058792 0.45188080117244755 0.43722520762090866
0.08841491800012591 0.44992672203224227 0.4401563263312165
0.08872243099995103 0.44992672203224227 0.43917928676111373
0.08895016800033773 0.45188080117244755 0.4401563263312165
0.08918479400017532 0.44894968246213973 0.4382022471910112
0.08939566100070806 0.4479726428920372 0.4382022471910112
0.08959388000039326 0.44992672203224227 0.43917928676111373
0.08978850600033184 0.44992672203224227 0.4382022471910112
0.09001944700048625 0.44894968246213973 0.43722520762090866
0.0902130180002132 0.44699560332193444 0.4382022471910112
0.09040825500051142 0.44992672203224227 0.43917928676111373
0.09060638200026006 0.44992672203224227 0.441133365901319
0.09080369300045277 0.4450415241817294 0.44406448461162684
0.09105113300029188 0.44699560332193444 0.44699560332193444
0.09124987100040016 0.44699560332193444 0.4479726428920372
0.09145701600027678 0.4450415241817294 0.4479726428920372
0.09166858600019623 0.44699560332193444 0.4509037616023448
0.09186989800036827 0.4460185637518319 0.4557889594528579
0.09208541200041509 0.4479726428920372 0.4538348803126526
0.09232368600078189 0.44406448461162684 0.45188080117244755
0.0925351830001091 0.4430874450415241 0.4528578407425501
0.09273351299998467 0.44406448461162684 0.4538348803126526
0.09293202800017752 0.4450415241817294 0.4528578407425501
0.09313589500015951 0.44406448461162684 0.4509037616023448
0.09344776000034472 0.4450415241817294 0.4538348803126526
0.09365355299996736 0.4460185637518319 0.4557889594528579
0.09385534600005485 0.4509037616023448 0.4557889594528579
0.09405376900031115 0.44699560332193444 0.45676599902296044
0.09425330200065218 0.44894968246213973 0.45481191988275516
0.09447378000004392 0.44894968246213973 0.457743038593063
0.09466874000008829 0.44894968246213973 0.45969711773326827
0.09486310700049216 0.44699560332193444 0.4587200781631655
0.09506093700019846 0.45481191988275516 0.45969711773326827
0.09525287800079241 0.44699560332193444 0.46262823644357587
0.09545093100041413 0.44699560332193444 0.46262823644357587
0.0956467240002894 0.44992672203224227 0.46458231558378116
0.09585822000008193 0.45188080117244755 0.4655593551538837
0.09606788300061453 0.44894968246213973 0.467513434294089
0.09630404600011389 0.4479726428920372 0.4665363947239862
0.09650782000062463 0.44894968246213973 0.4665363947239862
0.09670490999997128 0.4509037616023448 0.4655593551538837
0.09691336900050374 0.4528578407425501 0.4704445530043966
0.09713495800042438 0.44992672203224227 0.46262823644357587
0.09736251000049378 0.4509037616023448 0.46458231558378116
0.09758182100085833 0.44894968246213973 0.46458231558378116
0.09778167000058602 0.45188080117244755 0.4636052760136786
0.09797277800043958 0.4538348803126526 0.4655593551538837
0.09816220000084286 0.4538348803126526 0.4655593551538837
0.09834860499995557 0.4538348803126526 0.4655593551538837
0.09853469400059112 0.45676599902296044 0.4665363947239862
0.09872263500074041 0.45481191988275516 0.4665363947239862
0.09890907700082607 0.45481191988275516 0.4665363947239862
0.09909468500063667 0.4538348803126526 0.467513434294089
0.09928066300017235 0.4538348803126526 0.4655593551538837
0.0995696770005452 0.45969711773326827 0.4655593551538837
0.09975893299997551 0.4538348803126526 0.46458231558378116
0.09994665200065356 0.4538348803126526 0.46458231558378116
0.10013481600071827 0.4538348803126526 0.4606741573033708
0.10032407200014859 0.45188080117244755 0.45969711773326827
0.10051354999995965 0.44992672203224227 0.45676599902296044
0.10070078800072224 0.45188080117244755 0.45481191988275516
0.10088730300049065 0.4509037616023448 0.4557889594528579
0.10107468900059757 0.45188080117244755 0.4538348803126526
0.10126098199998523 0.45188080117244755 0.4557889594528579
0.10144672000024002 0.4538348803126526 0.4528578407425501
0.10163360600017768 0.4528578407425501 0.4528578407425501
0.10186099100064894 0.4557889594528579 0.4538348803126526
0.10204887600048096 0.45481191988275516 0.4509037616023448
0.10223529900031281 0.4538348803126526 0.45188080117244755
0.10242135200041957 0.4528578407425501 0.4538348803126526
0.10260779300006106 0.45676599902296044 0.4509037616023448
0.10279536400048528 0.4538348803126526 0.45188080117244755
0.10298943500038149 0.4538348803126526 0.44894968246213973
0.10317730200040387 0.4528578407425501 0.44992672203224227
0.10337181700015208 0.4509037616023448 0.44894968246213973
0.10358205500051554 0.4528578407425501 0.44699560332193444
0.1037854400001379 0.44894968246213973 0.44992672203224227
0.10400417700020625 0.44992672203224227 0.44894968246213973
0.1043336350003301 0.4509037616023448 0.44699560332193444
0.1045936670006995 0.44992672203224227 0.4479726428920372
0.10479366400068102 0.4528578407425501 0.44699560332193444
0.10498773500057723 0.4509037616023448 0.45188080117244755
0.105197250000856 0.45188080117244755 0.44992672203224227
0.10540213500007667 0.45481191988275516 0.4538348803126526
0.10561992800012376 0.44894968246213973 0.45188080117244755
0.1058246650000001 0.44894968246213973 0.4509037616023448
0.10602032900078484 0.44992672203224227 0.44992672203224227
0.10623504700015474 0.44992672203224227 0.44992672203224227
0.10643739600072877 0.44894968246213973 0.44894968246213973
0.1066473370001404 0.45188080117244755 0.4479726428920372
0.10685070399995311 0.44992672203224227 0.44406448461162684
0.10704846000044199 0.44992672203224227 0.44211040547142155
0.10724399400078255 0.45481191988275516 0.4382022471910112
0.10743812000055186 0.4450415241817294 0.4382022471910112
0.10763463500006765 0.441133365901319 0.43429408891060084
0.10783176200038724 0.4450415241817294 0.4333170493404983
0.10802629500085459 0.4460185637518319 0.4303859306301905
0.1082225890004338 0.44406448461162684 0.4303859306301905
0.10844582600020658 0.4450415241817294 0.4284318514899854
0.10865217400078109 0.44406448461162684 0.4255007327796776
0.10885641100048815 0.4450415241817294 0.42452369320957506
0.10905607500080805 0.44406448461162684 0.42159257449926724
0.10925323800074693 0.4450415241817294 0.41963849535906195
0.10946619700007432 0.44699560332193444 0.41670737664875435
0.10967132400037372 0.4450415241817294 0.41670737664875435
0.10985906099995191 0.44699560332193444 0.41475329750854906
0.11004529900037596 0.4479726428920372 0.41670737664875435
0.11023274000035599 0.44992672203224227 0.4206155349291647
0.11044138500074041 0.44699560332193444 0.42159257449926724
0.1106281600004877 0.4460185637518319 0.42452369320957506
0.11081461900084832 0.44699560332193444 0.42745481191988266
0.1110005420005109 0.4509037616023448 0.431362970200293
0.11118735400032165 0.4460185637518319 0.42940889106008795
0.1113756660006402 0.44406448461162684 0.431362970200293
0.11156479200053582 0.4430874450415241 0.43429408891060084
0.1117515670002831 0.44211040547142155 0.4382022471910112
0.11193784200077062 0.441133365901319 0.441133365901319
0.11212509800043335 0.441133365901319 0.44699560332193444
0.11231363200022315 0.4401563263312165 0.44992672203224227
0.11250659100005578 0.4401563263312165 0.45188080117244755
0.11269836600058625 0.43917928676111373 0.45188080117244755
0.11288451100062957 0.4382022471910112 0.45676599902296044
0.11312206300044636 0.4382022471910112 0.45676599902296044
0.11331113400046888 0.44211040547142155 0.4636052760136786
0.11349803800021618 0.4460185637518319 0.4655593551538837
0.11368549800045002 0.4479726428920372 0.4733756717147044
0.1138734950000071 0.4450415241817294 0.47728382999511476
0.11406115800036787 0.4460185637518319 0.4851001465559355
0.11424698800055921 0.44992672203224227 0.4880312652662433
0.11443385600068723 0.44992672203224227 0.48705422569614076
0.11462014900007489 0.45188080117244755 0.486077186126038
0.11480634899999131 0.44894968246213973 0.48216902784562765
0.11499221700069029 0.44992672203224227 0.47923790913532005
0.11517821400047978 0.45188080117244755 0.4782608695652173
0.1153664330004176 0.4528578407425501 0.4763067904250122
0.11556050400031381 0.4538348803126526 0.4704445530043966
0.11578622200067912 0.45676599902296044 0.47435271128480694
0.11597575600080745 0.4538348803126526 0.4684904738641915
0.1161855860000287 0.4528578407425501 0.46458231558378116
0.11641634100033116 0.45188080117244755 0.46165119687347334
0.1166075790006289 0.4528578407425501 0.4636052760136786
0.11679424200065114 0.45676599902296044 0.4606741573033708
0.11698149800031388 0.4538348803126526 0.45676599902296044
0.11716849500044191 0.44992672203224227 0.45676599902296044
0.11735454800054868 0.4528578407425501 0.457743038593063
0.11754102600025362 0.45481191988275516 0.45676599902296044
0.11772717100029695 0.45481191988275516 0.457743038593063
0.11791318700034026 0.45676599902296044 0.4538348803126526
0.11809922100019321 0.45188080117244755 0.45676599902296044
0.11828482900000381 0.4538348803126526 0.4538348803126526
0.11847143700015295 0.4528578407425501 0.4538348803126526
0.11866623000059917 0.45188080117244755 0.4528578407425501
0.11885257800076943 0.4528578407425501 0.44992672203224227
0.11903864900068584 0.44992672203224227 0.4538348803126526
0.11922492400026385 0.44992672203224227 0.45676599902296044
0.11941116200068791 0.4460185637518319 0.4509037616023448
0.11960195500068949 0.4479726428920372 0.45481191988275516
0.11979587800033187 0.4509037616023448 0.45676599902296044
0.11999446700065164 0.4509037616023448 0.45676599902296044
0.12019200100075977 0.45188080117244755 0.4587200781631655
0.1204403480005567 0.44699560332193444 0.4606741573033708
0.120641567000348 0.4509037616023448 0.4606741573033708
0.12083945300037158 0.44992672203224227 0.4587200781631655
0.12110733700046694 0.4509037616023448 0.46458231558378116
0.12135170300007303 0.4538348803126526 0.4606741573033708
0.1215727369999513 0.4528578407425501 0.4636052760136786
0.12178119600048376 0.45188080117244755 0.4665363947239862
0.12197630400078197 0.44992672203224227 0.45969711773326827
0.12217231900012848 0.4557889594528579 0.45676599902296044
0.12237314900085039 0.45188080117244755 0.45969711773326827
0.12256838700068329 0.44894968246213973 0.4587200781631655
0.12276951300009387 0.44992672203224227 0.4557889594528579
0.12299026900018362 0.45188080117244755 0.45481191988275516
0.12322006100021099 0.45188080117244755 0.4587200781631655
0.12347127900011401 0.45481191988275516 0.45481191988275516
0.12370068300060666 0.45481191988275516 0.44992672203224227
0.12390886499997578 0.4538348803126526 0.44894968246213973
0.12410551000084524 0.45481191988275516 0.44894968246213973
0.12432854300004692 0.45481191988275516 0.44699560332193444
0.12459990900060802 0.4528578407425501 0.4450415241817294
0.12481240500073909 0.44992672203224227 0.4450415241817294
0.12501314300061495 0.44992672203224227 0.44699560332193444
0.12521517599998333 0.4538348803126526 0.44211040547142155
0.1254196910003884 0.45188080117244755 0.44406448461162684
0.12562320699998963 0.45188080117244755 0.4430874450415241
0.12582720299997163 0.4509037616023448 0.4430874450415241
0.1260386070007371 0.44699560332193444 0.441133365901319
0.1262455290006983 0.4538348803126526 0.441133365901319
0.12643917400055216 0.4509037616023448 0.44406448461162684
0.12663813400013169 0.45188080117244755 0.4382022471910112
0.12682664900057716 0.45188080117244755 0.44211040547142155
0.12703059100022074 0.4538348803126526 0.441133365901319
0.1272187730000951 0.4509037616023448 0.4401563263312165
0.12740578800003277 0.44894968246213973 0.441133365901319
0.1276445990006323 0.44992672203224227 0.441133365901319
0.1278305960004218 0.4479726428920372 0.43722520762090866
0.12801688900071895 0.45188080117244755 0.4352711284807034
0.12820501500027603 0.44992672203224227 0.43429408891060084
0.12841484500040679 0.44699560332193444 0.43624816805080613
0.12862665700049547 0.4450415241817294 0.43429408891060084
0.1288140980004755 0.45188080117244755 0.43917928676111373
0.12900072400043427 0.4479726428920372 0.43722520762090866
0.12918692500079487 0.44699560332193444 0.43624816805080613
0.12937284800045745 0.44894968246213973 0.4382022471910112
0.1295887149999544 0.4460185637518319 0.441133365901319
0.12977517400031502 0.4450415241817294 0.4430874450415241
0.12996248600029503 0.44406448461162684 0.44211040547142155
0.13014809400010563 0.44894968246213973 0.44211040547142155
0.13033451700084697 0.4509037616023448 0.441133365901319
0.1305204030004461 0.44992672203224227 0.44211040547142155
0.13070643700029905 0.4528578407425501 0.4382022471910112
0.13089258200034237 0.4528578407425501 0.44211040547142155
0.1310782640002799 0.45188080117244755 0.43917928676111373
0.13126952000038727 0.4460185637518319 0.44211040547142155
0.1314563130008537 0.44699560332193444 0.44211040547142155
0.13164253200011444 0.4401563263312165 0.44699560332193444
0.13182840000081342 0.44406448461162684 0.44406448461162684
0.13201426700015872 0.441133365901319 0.44406448461162684
0.13219994900009624 0.44406448461162684 0.44699560332193444
0.13238720500066847 0.4430874450415241 0.4479726428920372
0.13257431300007738 0.4450415241817294 0.45188080117244755
0.1327605880005649 0.4479726428920372 0.44992672203224227
0.13294643700010056 0.44699560332193444 0.4557889594528579
0.13313235900022846 0.44894968246213973 0.4509037616023448
0.13332493000052636 0.44406448461162684 0.45676599902296044
0.13351137200061203 0.44699560332193444 0.4528578407425501
0.1336969610001688 0.4450415241817294 0.45481191988275516
0.13388427300014882 0.4450415241817294 0.4538348803126526
0.13407047300006525 0.4430874450415241 0.45676599902296044
0.1342565070008277 0.441133365901319 0.4528578407425501
0.1344425780007441 0.44211040547142155 0.4509037616023448
0.1346287600008509 0.43917928676111373 0.45969711773326827
0.13481490499998472 0.44406448461162684 0.4528578407425501
0.13500099500015494 0.44211040547142155 0.45676599902296044
0.13518654700055777 0.441133365901319 0.457743038593063
0.1353734890008127 0.441133365901319 0.457743038593063
0.13557130000026518 0.4401563263312165 0.45676599902296044
0.13576216800083785 0.4382022471910112 0.45676599902296044
0.13594833100069081 0.43917928676111373 0.45676599902296044
0.13613501300005737 0.441133365901319 0.4557889594528579
0.1363215470000796 0.4460185637518319 0.4606741573033708
0.1365085249999538 0.4450415241817294 0.4606741573033708
0.1366952450007375 0.4450415241817294 0.46458231558378116
0.13688127900059044 0.4460185637518319 0.467513434294089
0.13706720100071834 0.44992672203224227 0.47239863214460187
0.137253365000106 0.4528578407425501 0.47239863214460187
0.13743926900042425 0.4509037616023448 0.4704445530043966
0.13762687700000242 0.457743038593063 0.47728382999511476
0.13781398500032083 0.45969711773326827 0.4704445530043966
0.13800001900017378 0.457743038593063 0.4665363947239862
0.13818607200028055 0.457743038593063 0.46458231558378116
0.13837169800081028 0.45481191988275516 0.4655593551538837
0.1385575650001556 0.4606741573033708 0.4655593551538837
0.13874365500032582 0.4606741573033708 0.4655593551538837
0.13892987400049606 0.4606741573033708 0.4665363947239862
0.13911596400066628 0.4528578407425501 0.467513434294089
0.13930127500043454 0.4557889594528579 0.46165119687347334
0.1394879570007106 0.4557889594528579 0.4655593551538837
0.1396794360007334 0.4557889594528579 0.46458231558378116
0.13986806200045976 0.45481191988275516 0.4636052760136786
0.14005307800016453 0.45969711773326827 0.46458231558378116
0.14024016700022912 0.4528578407425501 0.4606741573033708
0.14044512700002088 0.45481191988275516 0.46262823644357587
0.14064104900080565 0.457743038593063 0.45969711773326827
0.14082743500057404 0.4557889594528579 0.45676599902296044
0.1410134140005539 0.4538348803126526 0.4587200781631655
0.14120048400036467 0.45481191988275516 0.457743038593063
0.14139761100068426 0.45481191988275516 0.45676599902296044
0.1416044220004551 0.4528578407425501 0.4557889594528579
0.14183715900071547 0.4538348803126526 0.4557889594528579
0.1420485810003811 0.4509037616023448 0.4538348803126526
0.14224937400013005 0.4509037616023448 0.4528578407425501
0.14244339000015316 0.44894968246213973 0.4557889594528579
0.1426376090003032 0.4460185637518319 0.4528578407425501
0.14284175300053903 0.44406448461162684 0.45188080117244755
0.1430995830005486 0.4382022471910112 0.44699560332193444
0.1433624860001146 0.43917928676111373 0.44211040547142155
0.1435865190005643 0.44406448461162684 0.43917928676111373
0.1438446070005739 0.44211040547142155 0.4401563263312165
0.1440587700008109 0.4460185637518319 0.44699560332193444
0.14425241500066477 0.44894968246213973 0.4382022471910112
0.14451715200084436 0.4509037616023448 0.44211040547142155
0.14471175900052913 0.44992672203224227 0.4450415241817294
0.14490020100038237 0.4538348803126526 0.4450415241817294
0.14508832700084895 0.4528578407425501 0.4479726428920372
0.14527615700080787 0.45188080117244755 0.44894968246213973
0.14546193200021662 0.45481191988275516 0.44992672203224227
0.14564794800025993 0.45481191988275516 0.44992672203224227
0.14583335200040892 0.45676599902296044 0.44992672203224227
0.14601940400007152 0.45188080117244755 0.4460185637518319
0.1462053270006436 0.45188080117244755 0.4430874450415241
0.14639130600062344 0.44992672203224227 0.4450415241817294
0.14657756200085714 0.44992672203224227 0.43722520762090866
0.14676342900020245 0.4509037616023448 0.4352711284807034
0.1469488150005418 0.4479726428920372 0.4352711284807034
0.14713686699997197 0.4509037616023448 0.43429408891060084
0.14732312300020567 0.44894968246213973 0.4333170493404983
0.14750934300082008 0.44894968246213973 0.4323400097703958
0.14769539500048268 0.44894968246213973 0.43722520762090866
0.14788078100082203 0.4460185637518319 0.43917928676111373
0.1480663700003788 0.4460185637518319 0.43722520762090866
0.14825260800080287 0.44699560332193444 0.441133365901319
0.14845686400076374 0.4479726428920372 0.43917928676111373
0.1486422500001936 0.44699560332193444 0.43624816805080613
0.14882787600072334 0.4479726428920372 0.4333170493404983
0.14903696500005026 0.4479726428920372 0.43624816805080613
0.14924205400075152 0.4430874450415241 0.4323400097703958
0.14942868100024498 0.4460185637518319 0.43429408891060084
0.1496730100006971 0.4460185637518319 0.43624816805080613
0.14986982200025523 0.4460185637518319 0.4401563263312165
0.15006220700070116 0.44699560332193444 0.4430874450415241
0.1502587040004073 0.44699560332193444 0.44406448461162684
0.1504543310002191 0.4479726428920372 0.4460185637518319
0.15065601200058154 0.4479726428920372 0.4460185637518319
0.1508503050008585 0.4479726428920372 0.4450415241817294
0.15104721000079735 0.4538348803126526 0.44894968246213973
0.1512490950008214 0.45188080117244755 0.4460185637518319
0.15145361000031698 0.4450415241817294 0.44894968246213973
0.15164608900067833 0.44699560332193444 0.45188080117244755
0.15183845600040513 0.4430874450415241 0.4509037616023448
0.15203923000080977 0.43722520762090866 0.45188080117244755
0.15236415100025624 0.4382022471910112 0.45481191988275516
0.15261775800081523 0.43917928676111373 0.45676599902296044
0.15285447600035695 0.4382022471910112 0.4538348803126526
0.15308115700008784 0.4382022471910112 0.44992672203224227
0.15330096800062165 0.441133365901319 0.44992672203224227
0.1535473350004395 0.43917928676111373 0.45188080117244755
0.1538237000004301 0.44211040547142155 0.4509037616023448
0.1540429190008581 0.44211040547142155 0.45188080117244755
0.15424397100014176 0.4430874450415241 0.44992672203224227
0.15443785700063017 0.44894968246213973 0.4509037616023448
0.1546355020000192 0.4509037616023448 0.44699560332193444
0.15489888600041013 0.45188080117244755 0.4479726428920372
0.15509240200026397 0.4528578407425501 0.45188080117244755
0.15528001000075164 0.4587200781631655 0.4538348803126526
0.15546632100085844 0.4606741573033708 0.457743038593063
0.15565292900009808 0.46165119687347334 0.4557889594528579
0.15584540800045943 0.45969711773326827 0.45969711773326827
0.1560443860007581 0.457743038593063 0.45969711773326827
0.15625032700063457 0.45481191988275516 0.46165119687347334
0.15653539600043587 0.4538348803126526 0.46458231558378116
0.15674617000058788 0.45481191988275516 0.46458231558378116
0.15694283400080167 0.4528578407425501 0.4655593551538837
0.15714446000038151 0.4538348803126526 0.4763067904250122
0.15733775300031994 0.4538348803126526 0.467513434294089
0.15753454600053374 0.44992672203224227 0.46946751343429405
0.15774156099996617 0.45188080117244755 0.4684904738641915
0.1579799830005868 0.4479726428920372 0.4684904738641915
0.15822396100065816 0.44699560332193444 0.46946751343429405
0.15850780800064967 0.45188080117244755 0.46946751343429405
0.15873319300044386 0.4538348803126526 0.4665363947239862
0.15894220800055336 0.45188080117244755 0.4684904738641915
0.15915564900024037 0.45188080117244755 0.4665363947239862
0.1593589600006453 0.45481191988275516 0.47239863214460187
0.15955912400022498 0.45676599902296044 0.4655593551538837
0.15976204600065103 0.4557889594528579 0.4655593551538837
0.15995826500056864 0.4557889594528579 0.4655593551538837
0.16015028000038 0.45969711773326827 0.47142159257449934
0.16039651700066315 0.4557889594528579 0.46165119687347334
0.1605869580007493 0.45676599902296044 0.46165119687347334
0.16077860300083557 0.4606741573033708 0.4587200781631655
0.16096763700079464 0.45481191988275516 0.4557889594528579
0.16115552300016134 0.4538348803126526 0.45481191988275516
0.161342409000099 0.4509037616023448 0.45676599902296044
0.16156212700025208 0.4460185637518319 0.45969711773326827
0.16175164300057077 0.4479726428920372 0.46165119687347334
0.16193921400008549 0.4479726428920372 0.467513434294089
0.1621260070005519 0.44894968246213973 0.4665363947239862
0.16231280000010884 0.4479726428920372 0.467513434294089
0.1624993520008502 0.4479726428920372 0.46458231558378116
0.16268597900034365 0.4430874450415241 0.4606741573033708
0.1628726060007466 0.44406448461162684 0.46165119687347334
0.1630592510000497 0.44992672203224227 0.4636052760136786
0.16324639600043156 0.44894968246213973 0.457743038593063
0.1634333179999885 0.45188080117244755 0.4538348803126526
0.16362057500009541 0.44992672203224227 0.45188080117244755
0.1638064230000964 0.4557889594528579 0.44894968246213973
0.16402586399999564 0.45481191988275516 0.44699560332193444
0.16421436100063147 0.4538348803126526 0.4430874450415241
0.16440298700035783 0.4557889594528579 0.44699560332193444
0.16458991000035894 0.45481191988275516 0.4450415241817294
0.16477655500057153 0.45188080117244755 0.43917928676111373
0.164963904000615 0.4538348803126526 0.4382022471910112
0.16515088200048922 0.4509037616023448 0.43624816805080613
0.1653383050006596 0.4509037616023448 0.4333170493404983
0.16552671000044938 0.45188080117244755 0.4323400097703958
0.16572216900021886 0.44992672203224227 0.42745481191988266
0.1659096480007065 0.4528578407425501 0.4284318514899854
0.16610151500026404 0.44699560332193444 0.4264777723497801
0.16632932600077766 0.4479726428920372 0.4235466536394723
0.16651767500025016 0.44894968246213973 0.42452369320957506
0.16672607800046535 0.45188080117244755 0.42452369320957506
0.16691885300042486 0.4509037616023448 0.42452369320957506
0.16710607200002414 0.44992672203224227 0.42256961406936977
0.16729508800017356 0.44992672203224227 0.4206155349291647
0.16748204700070346 0.44992672203224227 0.42256961406936977
0.1676686550008526 0.44992672203224227 0.4186614557889594
0.16785702300057892 0.4509037616023448 0.42256961406936977
0.16804348200003005 0.44992672203224227 0.42452369320957506
0.16823047900015808 0.4509037616023448 0.42256961406936977
0.16841834700062464 0.44992672203224227 0.42256961406936977
0.16860758400071063 0.45188080117244755 0.4255007327796776
0.16879547000007733 0.44699560332193444 0.4303859306301905
0.168982634000713 0.44699560332193444 0.43429408891060084
0.16916916700029105 0.4509037616023448 0.43429408891060084
0.169356238000546 0.44699560332193444 0.4382022471910112
0.16955229100040015 0.44992672203224227 0.44406448461162684
0.169739436000782 0.44992672203224227 0.44699560332193444
0.16992572900016967 0.44894968246213973 0.4450415241817294
0.17011266999998043 0.4509037616023448 0.4557889594528579
0.170300667000447 0.44992672203224227 0.4557889594528579
0.1704946640002163 0.4509037616023448 0.4557889594528579
0.17068142000061926 0.4528578407425501 0.45969711773326827
0.17086730600021838 0.45188080117244755 0.46262823644357587
0.17105300599996554 0.4528578407425501 0.467513434294089
0.17123917000026267 0.4509037616023448 0.46946751343429405
0.17142538900043292 0.4528578407425501 0.4684904738641915
0.17161220100024366 0.4509037616023448 0.467513434294089
0.171798031000435 0.45188080117244755 0.46262823644357587
0.17198421300054179 0.45188080117244755 0.46165119687347334
0.1721709510002256 0.44894968246213973 0.4606741573033708
0.17238102100054675 0.4538348803126526 0.457743038593063
0.1725695920004 0.44894968246213973 0.4538348803126526
0.1727563860004011 0.4528578407425501 0.4557889594528579
0.17295114200078388 0.45188080117244755 0.45481191988275516
0.17315845300072397 0.45188080117244755 0.45969711773326827
0.1733574870004304 0.45481191988275516 0.4587200781631655
0.1735576310002216 0.45188080117244755 0.45969711773326827
0.17375422100030846 0.4460185637518319 0.4606741573033708
0.1739509030003319 0.45188080117244755 0.4587200781631655
0.17415169600008085 0.4479726428920372 0.4606741573033708
0.17437539599995944 0.4479726428920372 0.4636052760136786
0.17462096600047516 0.44406448461162684 0.4606741573033708
0.17484512900045956 0.44406448461162684 0.45969711773326827
0.17515793800066604 0.4450415241817294 0.45676599902296044
0.17537595300018438 0.4460185637518319 0.45481191988275516
0.17557187600050383 0.4460185637518319 0.4509037616023448
0.17579194600057235 0.44699560332193444 0.4509037616023448
0.17601148000085232 0.4479726428920372 0.4538348803126526
0.17621453200081305 0.44992672203224227 0.4509037616023448
0.17644615800054453 0.44894968246213973 0.4557889594528579
0.17664217300080054 0.45188080117244755 0.44894968246213973
0.17683798400048545 0.44894968246213973 0.44992672203224227
0.17703518500002247 0.4509037616023448 0.4528578407425501
0.1772258110004259 0.4528578407425501 0.44992672203224227
0.1774183270008507 0.45481191988275516 0.45188080117244755
0.17761384200002794 0.4557889594528579 0.4528578407425501
0.1778152830002 0.457743038593063 0.4528578407425501
0.17806703800033574 0.45481191988275516 0.4557889594528579
0.17826673800027493 0.4528578407425501 0.4557889594528579
0.17848412400053348 0.4557889594528579 0.4606741573033708
0.17870493500049633 0.4538348803126526 0.46165119687347334
0.1789009130006889 0.45188080117244755 0.4636052760136786
0.17909350200079643 0.4538348803126526 0.4606741573033708
0.17930890600018756 0.4528578407425501 0.45969711773326827
0.1795081250002113 0.4528578407425501 0.4655593551538837
0.17970565900031943 0.4538348803126526 0.46946751343429405
0.17990161900070234 0.4528578407425501 0.46458231558378116
0.18009841200000665 0.44992672203224227 0.4606741573033708
0.1803967770001691 0.4509037616023448 0.46458231558378116
0.1806085880007231 0.4509037616023448 0.46458231558378116
0.18080454800019652 0.45188080117244755 0.46262823644357587
0.18099382300079014 0.4528578407425501 0.4606741573033708
0.18118191200028377 0.4538348803126526 0.45969711773326827
0.18137487200056057 0.4509037616023448 0.46165119687347334
0.1815612020000117 0.45188080117244755 0.4606741573033708
0.18174790300054156 0.45481191988275516 0.457743038593063
0.1819354180006485 0.45676599902296044 0.46262823644357587
0.18212174800009961 0.457743038593063 0.457743038593063
0.1823080040003333 0.45969711773326827 0.45969711773326827
0.18249363100039773 0.4606741573033708 0.45676599902296044
0.18267970200031414 0.4606741573033708 0.46165119687347334
0.1828980500004036 0.457743038593063 0.4528578407425501
0.1831029730001319 0.45676599902296044 0.45188080117244755
0.18332556200039107 0.45969711773326827 0.44992672203224227
0.18352687300011894 0.45676599902296044 0.44699560332193444
0.1837276660007774 0.4538348803126526 0.44406448461162684
0.18392897800003993 0.4538348803126526 0.4430874450415241
0.18413001099997928 0.4557889594528579 0.43917928676111373
0.18435019300068234 0.4538348803126526 0.441133365901319
0.18457309600034932 0.44992672203224227 0.441133365901319
0.18481657400025142 0.4557889594528579 0.4382022471910112
0.1851184209999701 0.4509037616023448 0.43917928676111373
0.18538486100078444 0.4509037616023448 0.43722520762090866
0.18559632000051351 0.4528578407425501 0.43624816805080613
0.18579968700032623 0.4528578407425501 0.4352711284807034
0.1860113500006264 0.45188080117244755 0.4323400097703958
0.1862074210002902 0.4509037616023448 0.43624816805080613
0.18641245500020887 0.4509037616023448 0.4303859306301905
0.18664804300078686 0.44992672203224227 0.4303859306301905
0.18689041000016005 0.44699560332193444 0.4284318514899854
0.18715759000042453 0.4460185637518319 0.4284318514899854
0.18740517900005216 0.44992672203224227 0.4284318514899854
0.18769058199995925 0.44894968246213973 0.4303859306301905
0.18793318900043232 0.44992672203224227 0.43429408891060084
0.1881375000002663 0.44992672203224227 0.43429408891060084
0.18838401500033797 0.44992672203224227 0.4352711284807034
0.18861521400049241 0.4479726428920372 0.43624816805080613
0.18882554400079243 0.45188080117244755 0.4430874450415241
0.18903194800077472 0.45188080117244755 0.44406448461162684
0.18922403800024767 0.4479726428920372 0.4460185637518319
0.18943834900073853 0.4538348803126526 0.44894968246213973
0.18962610500057053 0.45188080117244755 0.4509037616023448
0.18981328700010636 0.4528578407425501 0.44992672203224227
0.18999965400053043 0.44894968246213973 0.4557889594528579
0.19019137300074362 0.44894968246213973 0.45676599902296044
0.19037816700074472 0.4538348803126526 0.4587200781631655
0.19056503400042857 0.44699560332193444 0.45969711773326827
0.19075243800034514 0.44894968246213973 0.4606741573033708
0.19094228700032545 0.44406448461162684 0.4587200781631655
0.19113278400072886 0.44406448461162684 0.457743038593063
0.19132024300051853 0.4460185637518319 0.4557889594528579
0.1915068140006042 0.44699560332193444 0.45481191988275516
0.19169375600085914 0.44699560332193444 0.44992672203224227
0.19188001200018334 0.4450415241817294 0.4479726428920372
0.1920658420003747 0.4450415241817294 0.4479726428920372
0.1922533580000163 0.44406448461162684 0.4450415241817294
0.1924931130006371 0.4460185637518319 0.4430874450415241
0.19271636800021952 0.44699560332193444 0.44699560332193444
0.19294230900050025 0.44211040547142155 0.4528578407425501
0.19312830600028974 0.44406448461162684 0.45481191988275516
0.19331539500035433 0.44406448461162684 0.45676599902296044
0.19350311500056705 0.44406448461162684 0.45676599902296044
0.1936890740007584 0.44406448461162684 0.46262823644357587
0.19387629400080186 0.44699560332193444 0.46165119687347334
0.19406234600046446 0.44211040547142155 0.4684904738641915
0.19424847300069814 0.44699560332193444 0.4665363947239862
0.19443598800080508 0.4460185637518319 0.4753297508549097
0.19462159600061568 0.4450415241817294 0.47239863214460187
0.1948081300006379 0.4538348803126526 0.46946751343429405
0.19499481200000446 0.44406448461162684 0.4733756717147044
0.19518069800051308 0.4479726428920372 0.4753297508549097
0.1953689170004509 0.44992672203224227 0.47435271128480694
0.1955558950003251 0.4479726428920372 0.4763067904250122
0.1957563920004759 0.4509037616023448 0.4782608695652173
0.19594379600039247 0.44992672203224227 0.47239863214460187
0.1961299600006896 0.44699560332193444 0.4753297508549097
0.1963182900008178 0.44894968246213973 0.47239863214460187
0.19650628700037487 0.44992672203224227 0.4753297508549097
0.19669291300033365 0.44894968246213973 0.47142159257449934
0.1968788920003135 0.44894968246213973 0.47923790913532005
0.1970649439999761 0.45188080117244755 0.4704445530043966
0.19726964500023314 0.44894968246213973 0.467513434294089
0.19746049300010782 0.4509037616023448 0.4655593551538837
0.19764660100008768 0.45188080117244755 0.46458231558378116
0.19783215400002518 0.44894968246213973 0.4636052760136786
0.19801844700032234 0.45676599902296044 0.46165119687347334
0.19820509200053493 0.4557889594528579 0.4557889594528579
0.19839088500066282 0.4509037616023448 0.4509037616023448
0.19857677100026194 0.4460185637518319 0.44992672203224227
0.19876252700032637 0.4479726428920372 0.4509037616023448
0.1989486910006235 0.44992672203224227 0.4450415241817294
0.1991345390006245 0.4557889594528579 0.4430874450415241
0.19932024000081583 0.4509037616023448 0.44699560332193444
0.19950827400043636 0.4528578407425501 0.4479726428920372
0.1997256410004411 0.4528578407425501 0.44699560332193444
0.19991158200082282 0.4557889594528579 0.4450415241817294
0.20009778300027392 0.4528578407425501 0.4450415241817294
0.2002881130001697 0.4557889594528579 0.45481191988275516
0.20050210900080856 0.45188080117244755 0.45481191988275516
0.20069299500028137 0.4528578407425501 0.4557889594528579
0.20087947299998632 0.44992672203224227 0.4587200781631655
0.20106589600072766 0.4538348803126526 0.46458231558378116
0.20125344900043274 0.4528578407425501 0.46262823644357587
0.2014397420007299 0.4528578407425501 0.467513434294089
0.2016254050004136 0.45676599902296044 0.46946751343429405
0.2018180500008384 0.4528578407425501 0.4684904738641915
0.20200393600043753 0.4528578407425501 0.47435271128480694
0.20219500700022763 0.457743038593063 0.4684904738641915
0.20239009600027202 0.45676599902296044 0.46946751343429405
0.20259061200067663 0.45676599902296044 0.4704445530043966
0.20278642300036154 0.457743038593063 0.4684904738641915
0.20298588300011033 0.4557889594528579 0.4704445530043966
0.20319910100079142 0.4557889594528579 0.4684904738641915
0.2034050610000122 0.4538348803126526 0.4665363947239862
0.20360046500081808 0.4538348803126526 0.4655593551538837
0.20382731300014711 0.4557889594528579 0.46165119687347334
0.20401456900071935 0.4528578407425501 0.46165119687347334
0.20420252900021296 0.45188080117244755 0.45676599902296044
0.20441615500021726 0.4509037616023448 0.44992672203224227
0.2046027630003664 0.4538348803126526 0.4479726428920372
0.20478974200068478 0.4606741573033708 0.44699560332193444
0.20500384900060453 0.44992672203224227 0.4430874450415241
0.20519088300079602 0.4538348803126526 0.43917928676111373
0.2053985090005881 0.45676599902296044 0.43429408891060084
0.20558624700061046 0.45188080117244755 0.4333170493404983
0.20577276200037886 0.45676599902296044 0.42940889106008795
0.20595966700057033 0.45676599902296044 0.42256961406936977
0.20614631200078293 0.4528578407425501 0.42256961406936977
0.2063331970002764 0.4557889594528579 0.4186614557889594
0.20652039800006605 0.45676599902296044 0.41670737664875435
0.20670676500049012 0.4538348803126526 0.42159257449926724
0.2068932810007027 0.4557889594528579 0.4186614557889594
0.20709496300059982 0.44992672203224227 0.42159257449926724
0.2072851630000514 0.44992672203224227 0.4264777723497801
0.20747114200003125 0.4509037616023448 0.4323400097703958
0.2076574900002015 0.44992672203224227 0.4323400097703958
0.207844080000541 0.4509037616023448 0.4303859306301905
0.20803133600020374 0.44699560332193444 0.43429408891060084
0.20821761100069125 0.4479726428920372 0.43624816805080613
0.20852051300062158 0.44699560332193444 0.43429408891060084
0.20870982500036916 0.44699560332193444 0.44406448461162684
0.20889615500072978 0.44699560332193444 0.43722520762090866
0.20908609600064665 0.44699560332193444 0.43624816805080613
0.20927726000081748 0.4430874450415241 0.43429408891060084
0.20946542300043802 0.44406448461162684 0.43917928676111373
0.20965169800001604 0.4460185637518319 0.43722520762090866
0.20983749100014393 0.4460185637518319 0.43624816805080613
0.2100233950004622 0.4450415241817294 0.431362970200293
0.21020957700056897 0.4450415241817294 0.42745481191988266
0.21039551900048536 0.4430874450415241 0.4284318514899854
0.2105823860001692 0.4460185637518319 0.42452369320957506
0.2107687720008471 0.4450415241817294 0.4264777723497801
0.21095499100010784 0.44406448461162684 0.4303859306301905
0.21114074700017227 0.44699560332193444 0.4284318514899854
0.2113334110008509 0.44211040547142155 0.43624816805080613
0.2115195370006404 0.4450415241817294 0.43624816805080613
0.21170997800072655 0.4430874450415241 0.4382022471910112
0.21191829000053986 0.4460185637518319 0.441133365901319
0.21210547200007568 0.44992672203224227 0.44211040547142155
0.21229839500028902 0.44992672203224227 0.441133365901319
0.21248598400052288 0.45188080117244755 0.441133365901319
0.2126727770000798 0.45676599902296044 0.44406448461162684
0.21285910700044042 0.45188080117244755 0.4450415241817294
0.21305025200035743 0.4509037616023448 0.4450415241817294
0.21324610100054997 0.44992672203224227 0.45188080117244755
0.21344461600074283 0.4479726428920372 0.4538348803126526
0.21363776100042742 0.4450415241817294 0.46165119687347334
0.21382401700066112 0.44992672203224227 0.46458231558378116
0.2140097360006621 0.43917928676111373 0.46458231558378116
0.21419632600009209 0.441133365901319 0.46946751343429405
0.2143863600003897 0.4382022471910112 0.46458231558378116
0.21457274600015808 0.4430874450415241 0.467513434294089
0.2147588170000745 0.4450415241817294 0.4684904738641915
0.21494573900054093 0.4450415241817294 0.467513434294089
0.21513175500058423 0.44406448461162684 0.4655593551538837
0.21531775200037373 0.4450415241817294 0.4636052760136786
0.21550337799999397 0.4509037616023448 0.4636052760136786
0.2156894680001642 0.4528578407425501 0.4655593551538837
0.21587539100073627 0.4557889594528579 0.4655593551538837
0.21609496100063552 0.45481191988275516 0.4655593551538837
0.21641040000031353 0.4528578407425501 0.4665363947239862
0.2166033410003365 0.457743038593063 0.467513434294089
0.21679952300019067 0.45481191988275516 0.47142159257449934
0.21700426100051118 0.45188080117244755 0.46946751343429405
0.2172071090008103 0.45188080117244755 0.4665363947239862
0.2174414760002037 0.45188080117244755 0.4704445530043966
0.21764595400054532 0.44992672203224227 0.4704445530043966
0.21786954300023353 0.4460185637518319 0.4704445530043966
0.2181078540006638 0.4460185637518319 0.4733756717147044
0.21835257200018532 0.44211040547142155 0.467513434294089
0.21861917800015362 0.44894968246213973 0.4655593551538837
0.21886935900056415 0.44406448461162684 0.4655593551538837
0.2190955780006334 0.44211040547142155 0.46262823644357587
0.21929759300019214 0.4450415241817294 0.46458231558378116
0.2195100340004501 0.44699560332193444 0.46458231558378116
0.21971236400077032 0.4460185637518319 0.4587200781631655
0.21993199000007735 0.4460185637518319 0.457743038593063
0.2201869300006365 0.4479726428920372 0.45969711773326827
0.2204817580004601 0.4538348803126526 0.4528578407425501
0.22071862500069983 0.4557889594528579 0.4509037616023448
0.22099434300071152 0.4528578407425501 0.44992672203224227
0.22123165300035907 0.4528578407425501 0.4509037616023448
0.22146420500030217 0.4538348803126526 0.44894968246213973
0.22170553400064819 0.45188080117244755 0.44992672203224227
0.2219338080003581 0.44992672203224227 0.44894968246213973
0.22213413800000126 0.44992672203224227 0.44992672203224227
0.2223261540002568 0.4538348803126526 0.44894968246213973
0.22251272500034247 0.45676599902296044 0.4509037616023448
0.22269981400040706 0.45188080117244755 0.4538348803126526
0.222886885000662 0.4528578407425501 0.4538348803126526
0.22307290100070531 0.4557889594528579 0.4538348803126526
0.22325880500011408 0.45969711773326827 0.45188080117244755
0.22344691300077102 0.45969711773326827 0.45188080117244755
0.22363303900056053 0.4587200781631655 0.45188080117244755
0.2238196100006462 0.4606741573033708 0.44894968246213973
0.22400564400049916 0.4606741573033708 0.4509037616023448
0.22419195600014064 0.457743038593063 0.4509037616023448
0.2243921750005029 0.457743038593063 0.44699560332193444
0.22457919000044058 0.46165119687347334 0.4460185637518319
0.22476557600020897 0.4636052760136786 0.44992672203224227
0.22495307300050627 0.457743038593063 0.4479726428920372
0.22513916200023232 0.4606741573033708 0.44894968246213973
0.22532427100031782 0.4606741573033708 0.4479726428920372
0.22555843300051492 0.457743038593063 0.44894968246213973
0.22574618900034693 0.4587200781631655 0.44699560332193444
0.22593168599996716 0.457743038593063 0.4479726428920372
0.22611821999998938 0.45969711773326827 0.44699560332193444
0.2263046990001385 0.4528578407425501 0.44992672203224227
0.226491418000478 0.4538348803126526 0.45188080117244755
0.22667798900056368 0.45188080117244755 0.4538348803126526
0.2268632630002685 0.4538348803126526 0.4509037616023448
0.2270490939999945 0.45481191988275516 0.4460185637518319
0.22723501700056659 0.44406448461162684 0.44894968246213973
0.22742623600061052 0.4479726428920372 0.44406448461162684
0.2276130469999771 0.44406448461162684 0.4382022471910112
0.2277985440005068 0.43917928676111373 0.43429408891060084
0.22798502300065593 0.4401563263312165 0.4333170493404983
0.2281713160000436 0.43917928676111373 0.42940889106008795
0.22838925700034451 0.43917928676111373 0.4284318514899854
0.2285766050008533 0.43624816805080613 0.4284318514899854
0.22876271300083317 0.4401563263312165 0.4264777723497801
0.22895396900003107 0.43917928676111373 0.4303859306301905
0.2291417440001169 0.441133365901319 0.4323400097703958
0.2293556480008192 0.4401563263312165 0.431362970200293
0.22954212600052415 0.43624816805080613 0.43624816805080613
0.22972804900018673 0.4352711284807034 0.43917928676111373
0.22991399000056845 0.4333170493404983 0.43624816805080613
0.2300998390001041 0.431362970200293 0.43917928676111373
0.23029274300006364 0.43429408891060084 0.43722520762090866
0.23047907399995893 0.4303859306301905 0.44211040547142155
0.23066547800044646 0.43429408891060084 0.4450415241817294
0.23085140100010904 0.4333170493404983 0.4450415241817294
0.23103786100000434 0.4284318514899854 0.44894968246213973
0.23122458000034385 0.4323400097703958 0.44699560332193444
0.2314114470000277 0.4323400097703958 0.4450415241817294
0.2315977030002614 0.4323400097703958 0.4479726428920372
0.23178394100068545 0.4323400097703958 0.44894968246213973
0.2319700300004115 0.431362970200293 0.4450415241817294
0.23215686100047606 0.4323400097703958 0.44894968246213973
0.23235457999999198 0.43624816805080613 0.44992672203224227
0.23254105800060643 0.43722520762090866 0.4528578407425501
0.23273940600029164 0.43917928676111373 0.45481191988275516
0.23295760700057144 0.441133365901319 0.4538348803126526
0.23314543700053036 0.44211040547142155 0.45676599902296044
0.23333452600036253 0.44211040547142155 0.4538348803126526
0.23352198600059637 0.4430874450415241 0.45676599902296044
0.23370844600049168 0.441133365901319 0.457743038593063
0.23389455400047154 0.4450415241817294 0.457743038593063
0.23408179200032464 0.4479726428920372 0.457743038593063
0.2342689370007065 0.44699560332193444 0.45676599902296044
0.2344590259999677 0.4450415241817294 0.4557889594528579
0.23465057800058275 0.4460185637518319 0.45676599902296044
0.23484540800018294 0.4479726428920372 0.45481191988275516
0.23505405300056736 0.44894968246213973 0.457743038593063
0.23524882800029445 0.44699560332193444 0.45969711773326827
0.23543619500014756 0.4479726428920372 0.4606741573033708
0.23562213600052928 0.44992672203224227 0.46165119687347334
0.23580941100044583 0.45188080117244755 0.46165119687347334
0.23599609300072188 0.4509037616023448 0.46458231558378116
0.23618207100025757 0.44894968246213973 0.46458231558378116
0.23639029000059963 0.4509037616023448 0.46458231558378116
0.23657702800028346 0.4528578407425501 0.46262823644357587
0.23677656200015917 0.4509037616023448 0.4636052760136786
0.2369632250001814 0.4538348803126526 0.4606741573033708
0.23715035200075363 0.4557889594528579 0.4636052760136786
0.23737277400050516 0.4528578407425501 0.46165119687347334
0.23756060400046408 0.457743038593063 0.46262823644357587
0.23774815600063448 0.457743038593063 0.46262823644357587
0.2379340420002336 0.45969711773326827 0.4704445530043966
0.23812031700072112 0.457743038593063 0.46165119687347334
0.23830672100029915 0.45969711773326827 0.46458231558378116
0.23849473700011004 0.457743038593063 0.4665363947239862
0.2386827340005766 0.45481191988275516 0.46946751343429405
0.23886921200028155 0.45481191988275516 0.46946751343429405
0.23905565300083254 0.4528578407425501 0.46946751343429405
0.23924183500002982 0.45676599902296044 0.47239863214460187
0.23942966600043292 0.45481191988275516 0.4704445530043966
0.23961614400013787 0.45676599902296044 0.4733756717147044
0.2398026220007523 0.4557889594528579 0.4763067904250122
0.23998850800035143 0.4557889594528579 0.4782608695652173
0.24017459800052166 0.4606741573033708 0.4802149487054226
0.24038876100075868 0.4655593551538837 0.47728382999511476
0.24057536899999832 0.4655593551538837 0.48216902784562765
0.2407618100005493 0.467513434294089 0.4763067904250122
0.24094799200065609 0.46165119687347334 0.47435271128480694
0.2411345260006783 0.4655593551538837 0.47142159257449934
0.24134585600040737 0.4665363947239862 0.4655593551538837
0.2415326489999643 0.46262823644357587 0.4636052760136786
0.24171879400000762 0.467513434294089 0.46165119687347334
0.24190503200043167 0.4684904738641915 0.4538348803126526
0.24209258400060207 0.46458231558378116 0.45188080117244755
0.24227819200041267 0.4636052760136786 0.45188080117244755
0.24247587400077464 0.45969711773326827 0.44699560332193444
0.242663019000247 0.457743038593063 0.44406448461162684
0.24284953500045958 0.44992672203224227 0.44211040547142155
0.24304416100039816 0.4450415241817294 0.4450415241817294
0.24323108400039928 0.4450415241817294 0.44699560332193444
0.24341732100037916 0.44406448461162684 0.4430874450415241
0.24360422600057063 0.44211040547142155 0.44699560332193444
0.24379094500000065 0.4460185637518319 0.44894968246213973
0.2439774230006151 0.44699560332193444 0.4479726428920372
0.24416334600027767 0.44894968246213973 0.44992672203224227
0.24436376900030155 0.45188080117244755 0.4460185637518319
0.2445498030001545 0.4479726428920372 0.4479726428920372
0.24473672500062094 0.44894968246213973 0.4479726428920372
0.24492288900000858 0.4479726428920372 0.4450415241817294
0.24511699699996825 0.4460185637518319 0.44406448461162684
0.24531208600001264 0.44406448461162684 0.4450415241817294
0.2454987130004156 0.44406448461162684 0.4479726428920372
0.24568591300067055 0.4450415241817294 0.4460185637518319
0.24587255799997365 0.4538348803126526 0.4460185637518319
0.2460585920007361 0.4450415241817294 0.44894968246213973
0.24624477400084288 0.44699560332193444 0.44992672203224227
0.2464312340007382 0.45481191988275516 0.44699560332193444
0.2466240830008246 0.4460185637518319 0.4430874450415241
0.24682393100010813 0.44992672203224227 0.4401563263312165
0.2470108170000458 0.44894968246213973 0.4401563263312165
0.24719666600049095 0.44894968246213973 0.43624816805080613
0.2473839220001537 0.4460185637518319 0.42940889106008795
0.24760734400024376 0.44992672203224227 0.4264777723497801
0.24779658200077392 0.45188080117244755 0.42159257449926724
0.24798296800054231 0.44894968246213973 0.4186614557889594
0.24816892800026835 0.44894968246213973 0.41963849535906195
0.24837675700018735 0.45188080117244755 0.4157303370786516
0.24856412500048464 0.44699560332193444 0.412799218368344
0.2487502330004645 0.4509037616023448 0.4137762579384465
0.248936674000106 0.4509037616023448 0.41670737664875435
0.24912309700084734 0.44699560332193444 0.41670737664875435
0.24930907500038302 0.4479726428920372 0.4186614557889594
0.24955218200011586 0.44894968246213973 0.41963849535906195
0.24974566100081574 0.44894968246213973 0.4264777723497801
0.24994128700018337 0.44894968246213973 0.42940889106008795
0.25013632100035466 0.44699560332193444 0.43429408891060084
0.25033198400069523 0.44699560332193444 0.4352711284807034
0.25052851800046483 0.44406448461162684 0.44699560332193444
0.2507272370003193 0.4460185637518319 0.43917928676111373
0.2509398260008311 0.44211040547142155 0.44406448461162684
0.25114758200015785 0.4430874450415241 0.44211040547142155
0.25134404100026586 0.4430874450415241 0.44406448461162684
0.2515397050001411 0.44406448461162684 0.44211040547142155
0.25173586800065095 0.44211040547142155 0.4450415241817294
0.25195079100012663 0.44406448461162684 0.44406448461162684
0.2521603800005323 0.4450415241817294 0.4430874450415241
0.2524861340007192 0.4430874450415241 0.4479726428920372
0.2527823320006064 0.44992672203224227 0.44894968246213973
0.25310964200070885 0.44894968246213973 0.44992672203224227
0.2533813590007412 0.44699560332193444 0.45676599902296044
0.25360568900032376 0.4479726428920372 0.4538348803126526
0.2538011300002836 0.44992672203224227 0.45969711773326827
0.25400446000003285 0.44894968246213973 0.46262823644357587
0.25424253000073804 0.44699560332193444 0.46165119687347334
0.2544455450006353 0.44699560332193444 0.46262823644357587
0.2546652640003231 0.4509037616023448 0.4704445530043966
0.25491113000043697 0.45188080117244755 0.46458231558378116
0.2551468120000209 0.4538348803126526 0.4655593551538837
0.2553782520008099 0.4528578407425501 0.4665363947239862
0.25570563600012974 0.4538348803126526 0.46458231558378116
0.25598805700064986 0.4528578407425501 0.4655593551538837
0.256206535000274 0.4538348803126526 0.4684904738641915
0.25642114200036303 0.4557889594528579 0.4665363947239862
0.2566440460004742 0.457743038593063 0.46458231558378116
0.25686128300003475 0.45188080117244755 0.467513434294089
0.2570643349999955 0.45481191988275516 0.4684904738641915
0.25725799900010315 0.4557889594528579 0.4655593551538837
0.2574447360002523 0.4557889594528579 0.46946751343429405
0.25763149200065527 0.4528578407425501 0.467513434294089
0.25781710000046587 0.4538348803126526 0.46946751343429405
0.2580031710003823 0.4557889594528579 0.467513434294089
0.2581897790005314 0.45676599902296044 0.4665363947239862
0.2583760910001729 0.4528578407425501 0.46946751343429405
0.25856382900019526 0.45188080117244755 0.4636052760136786
0.2587542150004083 0.45676599902296044 0.4655593551538837
0.25894211900049413 0.4557889594528579 0.46165119687347334
0.25912787500055856 0.4528578407425501 0.46165119687347334
0.2593164460004118 0.45481191988275516 0.4606741573033708
0.25950292400011676 0.4557889594528579 0.46262823644357587
0.2596898470001179 0.45481191988275516 0.46262823644357587
0.2598762510006054 0.45188080117244755 0.46458231558378116
0.2600623040007122 0.45481191988275516 0.46262823644357587
0.2602481900003113 0.45481191988275516 0.4636052760136786
0.26047055600065505 0.4538348803126526 0.46262823644357587
0.2606567940001696 0.4528578407425501 0.4636052760136786
0.26084368000010727 0.4557889594528579 0.46165119687347334
0.2610304170002564 0.45188080117244755 0.46458231558378116
0.26121663699996134 0.4538348803126526 0.4655593551538837
0.2614029850001316 0.45676599902296044 0.4606741573033708
0.261589334000746 0.45481191988275516 0.46165119687347334
0.26177560900032404 0.45188080117244755 0.46458231558378116
0.2620210120003321 0.45481191988275516 0.45969711773326827
0.2622085090006294 0.4557889594528579 0.4606741573033708
0.2623945060004189 0.45481191988275516 0.45969711773326827
0.26258202100052586 0.4538348803126526 0.4606741573033708
0.26276838800004043 0.45676599902296044 0.4606741573033708
0.26299381100034225 0.45481191988275516 0.457743038593063
0.2631817330002377 0.4528578407425501 0.45676599902296044
0.2633678790007252 0.4528578407425501 0.4557889594528579
0.2635539680004513 0.4557889594528579 0.45481191988275516
0.26373994599998696 0.45676599902296044 0.44894968246213973
0.26392679500077065 0.45481191988275516 0.4479726428920372
0.2641144590006661 0.45676599902296044 0.4450415241817294
0.26430340000024444 0.45676599902296044 0.4479726428920372
0.26449089700054174 0.45676599902296044 0.4479726428920372
0.2646790790004161 0.4557889594528579 0.44699560332193444
0.26486578000003647 0.4587200781631655 0.4450415241817294
0.26505196200014325 0.45481191988275516 0.44211040547142155
0.26523821800037695 0.45188080117244755 0.441133365901319
0.26542680700003984 0.44992672203224227 0.43917928676111373
0.2656137490002948 0.45188080117244755 0.43917928676111373
0.26579946800029575 0.4509037616023448 0.43624816805080613
0.2659856310001487 0.44992672203224227 0.4303859306301905
0.26620533100049215 0.4538348803126526 0.4303859306301905
0.26639386500028195 0.4509037616023448 0.4284318514899854
0.266580547000558 0.44992672203224227 0.4255007327796776
0.2667676549999669 0.44992672203224227 0.4284318514899854
0.2669534670003486 0.4509037616023448 0.4284318514899854
0.2671394080007303 0.4509037616023448 0.4323400097703958
0.2673257390006256 0.4528578407425501 0.4284318514899854
0.2675117170001613 0.4509037616023448 0.42940889106008795
0.2676991400003317 0.45188080117244755 0.42940889106008795
0.2678848960003961 0.4509037616023448 0.42745481191988266
0.2680811330001234 0.45481191988275516 0.42452369320957506
0.26829468500000075 0.44992672203224227 0.4255007327796776
0.2684942380001303 0.4538348803126526 0.42159257449926724
0.2686907710003652 0.4509037616023448 0.42452369320957506
0.26889189800021995 0.45188080117244755 0.42159257449926724
0.26908446900051786 0.44992672203224227 0.4206155349291647
0.269270891000815 0.4528578407425501 0.41963849535906195
0.269457796000097 0.4528578407425501 0.4264777723497801
0.26964421900083835 0.45188080117244755 0.4264777723497801
0.26985688200056757 0.44992672203224227 0.431362970200293
0.2700484340002731 0.45188080117244755 0.43722520762090866
0.2702348200000415 0.44894968246213973 0.43917928676111373
0.2704209460007405 0.44894968246213973 0.44894968246213973
0.27060703600000124 0.44894968246213973 0.44406448461162684
0.27079414400031965 0.44699560332193444 0.44894968246213973
0.27100386300026 0.44894968246213973 0.44894968246213973
0.2711893780005994 0.4430874450415241 0.4509037616023448
0.27137593099996593 0.4460185637518319 0.45188080117244755
0.2715626870003689 0.4430874450415241 0.44992672203224227
0.27174905400079297 0.4450415241817294 0.44992672203224227
0.2719362550005826 0.4450415241817294 0.44894968246213973
0.2721219370005201 0.4460185637518319 0.4557889594528579
0.2723103780008387 0.4430874450415241 0.4538348803126526
0.2724976160006918 0.4430874450415241 0.4528578407425501
0.2726851870002065 0.44406448461162684 0.46165119687347334
0.2728719800006729 0.44992672203224227 0.46262823644357587
0.27305884700035676 0.4460185637518319 0.4684904738641915
0.27327845400031947 0.44406448461162684 0.4684904738641915
0.27346606200080714 0.4479726428920372 0.47435271128480694
0.2736546890000682 0.4450415241817294 0.4665363947239862
0.2738412040007461 0.44406448461162684 0.4655593551538837
0.27402738600085286 0.4450415241817294 0.4636052760136786
0.27421390200015594 0.44894968246213973 0.4636052760136786
0.27440075100003014 0.4460185637518319 0.4587200781631655
0.27458685900001 0.44992672203224227 0.46165119687347334
0.27477294800064556 0.44992672203224227 0.4606741573033708
0.2749589080003716 0.4479726428920372 0.45676599902296044
0.27514547900045727 0.45188080117244755 0.45969711773326827
0.2753323830002046 0.45188080117244755 0.46165119687347334
0.27551810200020554 0.45188080117244755 0.46458231558378116
0.2757059700006721 0.44699560332193444 0.467513434294089
0.2758919110001443 0.4479726428920372 0.467513434294089
0.2760780370008433 0.45188080117244755 0.4684904738641915
0.27628414500031795 0.4587200781631655 0.4684904738641915
0.2764730310000232 0.4538348803126526 0.47435271128480694
0.2766594350005107 0.4528578407425501 0.4753297508549097
0.27684559900080785 0.4509037616023448 0.46946751343429405
0.27703107700017426 0.4509037616023448 0.47142159257449934
0.27721783300057723 0.45481191988275516 0.4733756717147044
0.27740333000019746 0.4538348803126526 0.467513434294089
0.27758999400066386 0.4528578407425501 0.4655593551538837
0.277794157000244 0.45188080117244755 0.4655593551538837
0.27798154300035094 0.4557889594528579 0.46262823644357587
0.27816742900085956 0.4528578407425501 0.4636052760136786
0.2783533330002683 0.4587200781631655 0.4655593551538837
0.27853916300045967 0.45188080117244755 0.4636052760136786
0.2787272900004609 0.45188080117244755 0.4636052760136786
0.27892369400069583 0.45481191988275516 0.45969711773326827
0.27911119100008364 0.4528578407425501 0.4606741573033708
0.2792973730001904 0.4538348803126526 0.45969711773326827
0.27948585100057244 0.4538348803126526 0.45969711773326827
0.2796730700001717 0.45676599902296044 0.457743038593063
0.2798587890001727 0.4528578407425501 0.4587200781631655
0.2800624340006834 0.45676599902296044 0.45481191988275516
0.28024922700024035 0.45676599902296044 0.45481191988275516
0.28046500200071023 0.46458231558378116 0.45481191988275516
0.2806774980008413 0.4665363947239862 0.4528578407425501
0.2808678100000179 0.46458231558378116 0.44992672203224227
0.28105428800063237 0.46165119687347334 0.4509037616023448
0.28124048900008347 0.4606741573033708 0.45188080117244755
0.2814285040003597 0.45676599902296044 0.44894968246213973
0.28161551900029735 0.4538348803126526 0.44699560332193444
0.28180303500084847 0.44992672203224227 0.4460185637518319
0.28198988400072267 0.44894968246213973 0.44992672203224227
0.2821766580000258 0.44894968246213973 0.45481191988275516
0.28236265500072477 0.44406448461162684 0.4528578407425501
0.282548911000049 0.4450415241817294 0.4528578407425501
0.2827408340008333 0.4479726428920372 0.4538348803126526
0.2829632010007117 0.44406448461162684 0.45188080117244755
0.283158086000185 0.45188080117244755 0.4509037616023448
0.28335628700006055 0.4509037616023448 0.44992672203224227
0.28355698700033827 0.4557889594528579 0.44894968246213973
0.283763428000384 0.4528578407425501 0.44406448461162684
0.28396324000004824 0.45481191988275516 0.4401563263312165
0.28418714300005377 0.4538348803126526 0.441133365901319
0.2844275840006958 0.45481191988275516 0.44406448461162684
0.2846239880000212 0.4528578407425501 0.4382022471910112
0.2848217070004466 0.45188080117244755 0.44406448461162684
0.285049703000368 0.44992672203224227 0.4430874450415241
0.28527562500039494 0.4460185637518319 0.4401563263312165
0.2855418990002363 0.44992672203224227 0.4382022471910112
0.28580517200043687 0.45188080117244755 0.4401563263312165
0.2860390570003801 0.44894968246213973 0.43917928676111373
0.2862771640002393 0.4509037616023448 0.43722520762090866
0.2865263080002478 0.4538348803126526 0.4382022471910112
0.28675250800006324 0.45188080117244755 0.441133365901319
0.2869492830004674 0.4538348803126526 0.43624816805080613
0.2871520570006396 0.44992672203224227 0.43429408891060084
0.2873431830003028 0.44894968246213973 0.4323400097703958
0.2875320510001984 0.4450415241817294 0.4333170493404983
0.28775882500031 0.4460185637518319 0.42745481191988266
0.28794769200067094 0.4460185637518319 0.4352711284807034
0.2881343740000375 0.44406448461162684 0.4303859306301905
0.2883431850004854 0.44406448461162684 0.431362970200293
0.288533090000783 0.44211040547142155 0.4333170493404983
0.28872030900038226 0.4430874450415241 0.43624816805080613
0.28890702800072177 0.4450415241817294 0.4382022471910112
0.289092969000194 0.44406448461162684 0.4401563263312165
0.28928337300021667 0.4450415241817294 0.441133365901319
0.28946981500030233 0.4450415241817294 0.4430874450415241
0.28965596000034566 0.4450415241817294 0.4460185637518319
0.2898450490001778 0.4450415241817294 0.44211040547142155
0.2900332310000522 0.4479726428920372 0.4450415241817294
0.2902189320002435 0.4479726428920372 0.4460185637518319
0.29040507700028684 0.4479726428920372 0.4430874450415241
0.29059142599999177 0.44699560332193444 0.44699560332193444
0.2907812740004374 0.4430874450415241 0.4479726428920372
0.2909824380003556 0.4479726428920372 0.44992672203224227
0.29120680400046695 0.4460185637518319 0.4479726428920372
0.2914668930006883 0.44699560332193444 0.4528578407425501
0.2917184070001895 0.44406448461162684 0.4538348803126526
0.29194729200025904 0.44406448461162684 0.45188080117244755
0.29218017700077326 0.4430874450415241 0.44894968246213973
0.2924807650006187 0.441133365901319 0.45188080117244755
0.2927874630004226 0.44406448461162684 0.4509037616023448
0.29307673600033013 0.4460185637518319 0.44894968246213973
0.29330438100078027 0.44699560332193444 0.45188080117244755
0.29351830300038273 0.4460185637518319 0.4538348803126526
0.29370509600084915 0.44894968246213973 0.4528578407425501
0.29389192600046954 0.44894968246213973 0.4528578407425501
0.2940778310003225 0.44699560332193444 0.457743038593063
0.29426392000004853 0.44992672203224227 0.45676599902296044
0.2944506950007053 0.44894968246213973 0.45481191988275516
0.294636544000241 0.45188080117244755 0.45676599902296044
0.29482218900011503 0.44894968246213973 0.4587200781631655
0.2950084820004122 0.4538348803126526 0.457743038593063
0.29519590500058257 0.4528578407425501 0.457743038593063
0.29538182800024515 0.4538348803126526 0.45969711773326827
0.2955677130003096 0.4528578407425501 0.4636052760136786
0.29575408100026834 0.4509037616023448 0.4636052760136786
0.2959392070006288 0.4509037616023448 0.4606741573033708
0.2961253890007356 0.4509037616023448 0.46458231558378116
0.2963161269999546 0.4528578407425501 0.4655593551538837
0.29651653100063413 0.4509037616023448 0.4636052760136786
0.2967036760001065 0.4528578407425501 0.45969711773326827
0.2968898020008055 0.4528578407425501 0.4606741573033708
0.29707628100004513 0.4509037616023448 0.4636052760136786
0.2972623700006807 0.4557889594528579 0.46458231558378116
0.29744775600011053 0.45481191988275516 0.46165119687347334
0.2976339570004711 0.457743038593063 0.46458231558378116
0.297820065000451 0.4509037616023448 0.4636052760136786
0.2980052279999654 0.45481191988275516 0.46165119687347334
0.2981911700007913 0.4557889594528579 0.45969711773326827
0.2983772220004539 0.4538348803126526 0.4636052760136786
0.29857051500039233 0.4538348803126526 0.46165119687347334
0.29875801200068963 0.4528578407425501 0.4636052760136786
0.29894397200041567 0.45481191988275516 0.4655593551538837
0.29913080200003606 0.4538348803126526 0.4587200781631655
0.29931720700005826 0.4509037616023448 0.4606741573033708
0.29954290600016975 0.44992672203224227 0.4655593551538837
0.29973195900038263 0.45188080117244755 0.45969711773326827
0.29991816000074323 0.45481191988275516 0.45969711773326827
0.3001044530001309 0.4509037616023448 0.457743038593063
0.30029433800064 0.45481191988275516 0.45481191988275516
0.30048318700028176 0.45481191988275516 0.45481191988275516
0.30067055400013487 0.4509037616023448 0.4509037616023448
0.3008578290000514 0.4538348803126526 0.4538348803126526
0.3010442890008562 0.4557889594528579 0.44992672203224227
0.3012308410006881 0.4538348803126526 0.44992672203224227
0.3014197640004568 0.45676599902296044 0.45188080117244755
0.3016154650003955 0.45676599902296044 0.4528578407425501
0.3018564050007626 0.4509037616023448 0.45188080117244755
0.3020710130003863 0.4528578407425501 0.45481191988275516
0.30226725000011356 0.45676599902296044 0.457743038593063
0.3024545620000936 0.45481191988275516 0.4538348803126526
0.30264048500066565 0.45676599902296044 0.45481191988275516
0.3028261300005397 0.4587200781631655 0.45188080117244755
0.3030117930002234 0.4587200781631655 0.4509037616023448
0.30319962300018233 0.457743038593063 0.4557889594528579
0.30338584300079674 0.457743038593063 0.45188080117244755
0.3035715430005439 0.4538348803126526 0.4538348803126526
0.30375752200052375 0.4557889594528579 0.4509037616023448
0.3039435370001229 0.4538348803126526 0.4528578407425501
0.3041295340008219 0.4538348803126526 0.4528578407425501
0.30431949400008307 0.45481191988275516 0.4509037616023448
0.3045320270002776 0.45676599902296044 0.44992672203224227
0.3047182090003844 0.457743038593063 0.4509037616023448
0.3049040400001104 0.4538348803126526 0.4528578407425501
0.30509051800072484 0.44894968246213973 0.4528578407425501
0.30527679300030286 0.44894968246213973 0.44992672203224227
0.30546264100030385 0.44992672203224227 0.44992672203224227
0.30565541600026336 0.45188080117244755 0.44992672203224227
0.30584237600032793 0.4528578407425501 0.4460185637518319
0.3060301499999696 0.4509037616023448 0.44406448461162684
0.3062163510003302 0.45188080117244755 0.45188080117244755
0.30640973700064933 0.45188080117244755 0.44992672203224227
0.30659841900069296 0.44992672203224227 0.44894968246213973
0.3067842680002286 0.44894968246213973 0.4460185637518319
0.30697015300029307 0.44992672203224227 0.44406448461162684
0.307156187000146 0.44699560332193444 0.44211040547142155
0.30734225800006243 0.4479726428920372 0.441133365901319
0.3075286440007403 0.44992672203224227 0.43722520762090866
0.30771473400000104 0.4538348803126526 0.43917928676111373
0.30790019300002314 0.4557889594528579 0.43722520762090866
0.30808626400084904 0.4479726428920372 0.4352711284807034
0.3082920760007255 0.44699560332193444 0.43624816805080613
0.3084796470002402 0.4450415241817294 0.4303859306301905
0.30866545800017775 0.45188080117244755 0.4264777723497801
0.30885277000015776 0.45188080117244755 0.42940889106008795
0.3090383970002222 0.44992672203224227 0.4255007327796776
0.3092263200005618 0.4509037616023448 0.42745481191988266
0.30941231600081665 0.45188080117244755 0.4255007327796776
0.3095982390004792 0.44992672203224227 0.4235466536394723
0.30979186600052344 0.4479726428920372 0.4255007327796776
0.30997840000054566 0.4460185637518319 0.4235466536394723
0.31016426700080046 0.44894968246213973 0.4264777723497801
0.31035013400014577 0.45188080117244755 0.42940889106008795
0.3105364270004429 0.44699560332193444 0.4284318514899854
0.3107228690005286 0.4509037616023448 0.43624816805080613
0.31090903200038156 0.44894968246213973 0.4479726428920372
0.3110949920001076 0.44699560332193444 0.441133365901319
0.3112809890008066 0.4528578407425501 0.4460185637518319
0.3114671900002577 0.44699560332193444 0.4479726428920372
0.31165327899998374 0.4509037616023448 0.44894968246213973
0.31183916500049236 0.44894968246213973 0.44992672203224227
0.3120251059999646 0.4460185637518319 0.4450415241817294
0.31221167700005026 0.44699560332193444 0.44992672203224227
0.3124116369999683 0.4460185637518319 0.4509037616023448
0.31259843000043475 0.44699560332193444 0.44992672203224227
0.3127846680008588 0.44699560332193444 0.4538348803126526
0.31297062800058484 0.4450415241817294 0.45188080117244755
0.31315656900005706 0.4450415241817294 0.45676599902296044
0.31334847300058755 0.44406448461162684 0.45481191988275516
0.3135419879999972 0.4430874450415241 0.45481191988275516
0.31374120700002095 0.4450415241817294 0.4509037616023448
0.3139339260005727 0.44699560332193444 0.4557889594528579
0.3141209230007007 0.4479726428920372 0.457743038593063
0.31432840100023896 0.44894968246213973 0.457743038593063
0.31451656500030367 0.44992672203224227 0.4606741573033708
0.3147046730000511 0.4528578407425501 0.4606741573033708
0.31489042900011555 0.45481191988275516 0.45969711773326827
0.3150767220004127 0.45188080117244755 0.46458231558378116
0.3152627930003291 0.4538348803126526 0.46458231558378116
0.31544864200077427 0.44992672203224227 0.467513434294089
0.3156351200004792 0.4528578407425501 0.4684904738641915
0.31582095100020524 0.4538348803126526 0.467513434294089
0.3160084099999949 0.4509037616023448 0.46946751343429405
0.3162180920007813 0.45481191988275516 0.47239863214460187
0.31640747800065583 0.4538348803126526 0.4733756717147044
0.31659434500033967 0.44992672203224227 0.47923790913532005
0.3167824530000871 0.44699560332193444 0.4802149487054226
0.31696848700084956 0.44894968246213973 0.4763067904250122
0.3171556880006392 0.44894968246213973 0.4753297508549097
0.31734159200004797 0.4479726428920372 0.4811919882755251
0.3175286630003029 0.4460185637518319 0.4763067904250122
0.31773275200066564 0.4460185637518319 0.4753297508549097
0.3179225080002652 0.44894968246213973 0.4684904738641915
0.3181167090006056 0.44894968246213973 0.47142159257449934
0.31830309400083934 0.44992672203224227 0.47142159257449934
0.31848874000024807 0.4509037616023448 0.4684904738641915
0.318675217999953 0.44699560332193444 0.467513434294089
0.3188607330002924 0.45481191988275516 0.4684904738641915
0.3190474520006319 0.45481191988275516 0.4684904738641915
0.3192335230005483 0.457743038593063 0.46946751343429405
0.31941903900042234 0.45969711773326827 0.4655593551538837
0.3196048690006137 0.4557889594528579 0.4665363947239862
0.3197912730001917 0.457743038593063 0.4636052760136786
0.3199772150001081 0.45481191988275516 0.4655593551538837
0.3201631930005533 0.45676599902296044 0.45676599902296044
0.3203837080000085 0.4538348803126526 0.45188080117244755
0.32064998100031517 0.44699560332193444 0.45188080117244755
0.3208455520007192 0.44992672203224227 0.44699560332193444
0.32103380800072046 0.44699560332193444 0.44699560332193444
0.321220639000785 0.4450415241817294 0.4450415241817294
0.32140769100078614 0.4430874450415241 0.44211040547142155
0.3215939100000469 0.44406448461162684 0.44406448461162684
0.32178250000015396 0.44406448461162684 0.4382022471910112
0.32197468200047297 0.441133365901319 0.4382022471910112
0.32216184500066447 0.44699560332193444 0.4352711284807034
0.3223494900003061 0.4479726428920372 0.4382022471910112
0.32253635699998995 0.4460185637518319 0.4430874450415241
0.32272268800079473 0.44894968246213973 0.441133365901319
0.32290948100035166 0.44992672203224227 0.4460185637518319
0.3230958110007123 0.45188080117244755 0.4450415241817294
0.3232826040002692 0.45188080117244755 0.44992672203224227
0.32346863800012216 0.4557889594528579 0.45481191988275516
0.32365463500082114 0.4538348803126526 0.4538348803126526
0.3238413170001877 0.45188080117244755 0.4528578407425501
0.3240277029999561 0.4538348803126526 0.4509037616023448
0.3242137550005282 0.4557889594528579 0.45676599902296044
0.3244024560008256 0.4528578407425501 0.44699560332193444
0.3245894900001076 0.4538348803126526 0.44992672203224227
0.32477778300017235 0.45481191988275516 0.4460185637518319
0.32496411300053296 0.4528578407425501 0.4450415241817294
0.32518061000064336 0.4538348803126526 0.4430874450415241
0.32536771800005226 0.4538348803126526 0.43917928676111373
0.3255539370002225 0.45188080117244755 0.43917928676111373
0.32574152600045636 0.4528578407425501 0.43917928676111373
0.325927968000542 0.45188080117244755 0.4382022471910112
0.32611390900001425 0.4509037616023448 0.441133365901319
0.32630472100026964 0.4509037616023448 0.4450415241817294
0.3264911989999746 0.44992672203224227 0.4450415241817294
0.3266778440001872 0.4509037616023448 0.44406448461162684
0.3268641740005478 0.44894968246213973 0.4430874450415241
0.32705069000076037 0.44406448461162684 0.44894968246213973
0.32723685300061334 0.4509037616023448 0.4450415241817294
0.3274231840005086 0.4528578407425501 0.4460185637518319
0.32760969900027703 0.45188080117244755 0.44699560332193444
0.3277956770007222 0.44699560332193444 0.4450415241817294
0.32798182200076553 0.4509037616023448 0.44211040547142155
0.3281685420006397 0.45188080117244755 0.44406448461162684
0.3283684269999867 0.4479726428920372 0.4450415241817294
0.3285554240001147 0.44992672203224227 0.44992672203224227
0.3287565690006886 0.4479726428920372 0.441133365901319
0.32894334299999173 0.4430874450415241 0.441133365901319
0.32912984000086 0.44699560332193444 0.43624816805080613
0.32931705900045927 0.4460185637518319 0.43722520762090866
0.3295027789999949 0.4430874450415241 0.4382022471910112
0.32969523800056777 0.4450415241817294 0.43429408891060084
0.3298810129999765 0.44406448461162684 0.4303859306301905
0.3300677140005064 0.44211040547142155 0.43722520762090866
0.33025335900038044 0.44211040547142155 0.43429408891060084
0.3304390590001276 0.441133365901319 0.431362970200293
0.33062522300042474 0.441133365901319 0.431362970200293
0.33081149800000276 0.44211040547142155 0.4333170493404983
0.3309980310004903 0.44211040547142155 0.43429408891060084
0.3311837139999625 0.4479726428920372 0.4303859306301905
0.3313690620007037 0.4450415241817294 0.42745481191988266
0.331555522000599 0.4460185637518319 0.4255007327796776
0.3317413340000712 0.44699560332193444 0.4284318514899854
0.33192716400026256 0.4479726428920372 0.4303859306301905
0.3321130130007077 0.44992672203224227 0.43722520762090866
0.3323013250001168 0.4528578407425501 0.4323400097703958
0.33248926600026607 0.4460185637518319 0.43429408891060084
0.33267615200020373 0.4450415241817294 0.43624816805080613
0.33289414800037775 0.4460185637518319 0.44406448461162684
0.33308847800071817 0.4450415241817294 0.44699560332193444
0.3332834560005722 0.44699560332193444 0.4557889594528579
0.3334888230001525 0.4450415241817294 0.4528578407425501
0.333689413000684 0.4479726428920372 0.4587200781631655
0.3339024650003921 0.4430874450415241 0.4636052760136786
0.3340972210007749 0.44699560332193444 0.46458231558378116
0.3342935509999734 0.4479726428920372 0.46946751343429405
0.3344850480007153 0.4460185637518319 0.467513434294089
0.3346868410008028 0.44894968246213973 0.4753297508549097
0.3348957070002143 0.44992672203224227 0.47142159257449934
0.3351224440002625 0.4528578407425501 0.47142159257449934
0.33534295900062716 0.45188080117244755 0.4753297508549097
0.33555521500056784 0.4538348803126526 0.4753297508549097
0.3357701190006992 0.4528578407425501 0.4704445530043966
0.3359867260005558 0.45481191988275516 0.4684904738641915
0.33620183400034875 0.45481191988275516 0.4655593551538837
0.33641629300018394 0.44992672203224227 0.4665363947239862
0.33661327100071503 0.4528578407425501 0.4636052760136786
0.336809472000823 0.4509037616023448 0.4636052760136786
0.3370566900002814 0.44992672203224227 0.4606741573033708
0.3372542050001357 0.45481191988275516 0.4636052760136786
0.3374502950000533 0.4509037616023448 0.4636052760136786
0.33764638400043623 0.45481191988275516 0.4606741573033708
0.33785254700069345 0.4538348803126526 0.4636052760136786
0.33806871000069805 0.45188080117244755 0.4655593551538837
0.338268744000743 0.45676599902296044 0.46458231558378116
0.33847874000002776 0.4538348803126526 0.46946751343429405
0.33869445900018036 0.4509037616023448 0.46946751343429405
0.3389229180002076 0.4528578407425501 0.4665363947239862
0.3391925620007896 0.4528578407425501 0.4636052760136786
0.33947231599995575 0.4538348803126526 0.4655593551538837
0.33979607000037504 0.4538348803126526 0.46458231558378116
0.3400673989999632 0.45676599902296044 0.4636052760136786
0.3404652260005605 0.45481191988275516 0.45969711773326827
0.34074207300000126 0.44992672203224227 0.46165119687347334
0.34095368100042833 0.4557889594528579 0.45969711773326827
0.3411517520007692 0.4557889594528579 0.4587200781631655
0.3413410080001995 0.4557889594528579 0.46165119687347334
0.34153189300013764 0.457743038593063 0.4557889594528579
0.3417187050008579 0.4557889594528579 0.457743038593063
0.3419059060006475 0.4557889594528579 0.45676599902296044
0.3420920880007543 0.45481191988275516 0.457743038593063
0.34227882499999396 0.4538348803126526 0.4557889594528579
0.3424673220006298 0.45481191988275516 0.45676599902296044
0.3426539860001867 0.4538348803126526 0.4528578407425501
0.34286301900010585 0.45676599902296044 0.4538348803126526
0.34307964500021626 0.4528578407425501 0.45188080117244755
0.34326660500028083 0.45969711773326827 0.4509037616023448
0.3434530470003665 0.44992672203224227 0.45188080117244755
0.3436391920004098 0.45188080117244755 0.44894968246213973
0.34382552200077043 0.4509037616023448 0.44992672203224227
0.3440119630004119 0.4528578407425501 0.44699560332193444
0.3441981640007725 0.4509037616023448 0.441133365901319
0.3444051230007972 0.44992672203224227 0.44406448461162684
0.34459215700007917 0.44894968246213973 0.44211040547142155
0.3447790990003341 0.45188080117244755 0.441133365901319
0.34496485500039853 0.4538348803126526 0.44211040547142155
0.34515137000016693 0.4538348803126526 0.441133365901319
0.345337293000739 0.4538348803126526 0.4382022471910112
0.3455238080005074 0.44992672203224227 0.4382022471910112
0.34586300600039976 0.44894968246213973 0.4401563263312165
0.34606505900046614 0.44992672203224227 0.44406448461162684
0.3462569630000871 0.44894968246213973 0.43722520762090866
0.34644536700034223 0.4509037616023448 0.43722520762090866
0.34663117900072393 0.44992672203224227 0.43624816805080613
0.34681726800045 0.4509037616023448 0.4382022471910112
0.3470043760007684 0.44894968246213973 0.43722520762090866
0.34719089200007147 0.44699560332193444 0.43624816805080613
0.347376852000707 0.44699560332193444 0.43722520762090866
0.34756307099996775 0.44894968246213973 0.43624816805080613
0.34774867900068784 0.4460185637518319 0.43429408891060084
0.34793480500047735 0.45188080117244755 0.43722520762090866
0.34812061700085906 0.44992672203224227 0.43722520762090866
0.34830842900009884 0.45188080117244755 0.43624816805080613
0.3484963520004385 0.45188080117244755 0.43429408891060084
0.34868386700054543 0.4528578407425501 0.43722520762090866
0.3488712160005889 0.44992672203224227 0.43917928676111373
0.3490574720008226 0.4479726428920372 0.43624816805080613
0.3492432100001679 0.4509037616023448 0.4401563263312165
0.3494524650004678 0.4538348803126526 0.44211040547142155
0.3496625360003236 0.45188080117244755 0.4401563263312165
0.34984901400002855 0.45481191988275516 0.44406448461162684
0.3500364190003893 0.4528578407425501 0.44211040547142155
0.35022349000064423 0.4528578407425501 0.4460185637518319
0.35041046800051845 0.45481191988275516 0.4479726428920372
0.35059652000018104 0.4509037616023448 0.44699560332193444
0.35078409100060526 0.4528578407425501 0.4479726428920372
0.3509721250002258 0.4528578407425501 0.44992672203224227
0.35115875200062874 0.44992672203224227 0.4509037616023448
0.3513568230000601 0.4479726428920372 0.4538348803126526
0.35156533800000034 0.45188080117244755 0.4528578407425501
0.35176998200040543 0.44992672203224227 0.45481191988275516
0.35196179400008987 0.44894968246213973 0.45676599902296044
0.3521496430003026 0.44894968246213973 0.45676599902296044
0.35236888000054023 0.44894968246213973 0.45188080117244755
0.3525592840005629 0.4479726428920372 0.45188080117244755
0.3527508730003319 0.44894968246213973 0.4538348803126526
0.3529377220002061 0.4460185637518319 0.45188080117244755
0.35312394100037636 0.4479726428920372 0.45188080117244755
0.3533100120002928 0.4479726428920372 0.44992672203224227
0.3534964910004419 0.4450415241817294 0.4528578407425501
0.3536831360006545 0.4460185637518319 0.4509037616023448
0.35387067000010575 0.44699560332193444 0.4509037616023448
0.3540590180000436 0.4460185637518319 0.4509037616023448
0.35426645900042786 0.44406448461162684 0.44992672203224227
0.3544530120007039 0.45481191988275516 0.4538348803126526
0.3546475460007059 0.44211040547142155 0.45188080117244755
0.3548360419999881 0.44406448461162684 0.4528578407425501
0.3550239470005181 0.4450415241817294 0.457743038593063
0.3552104620002865 0.44699560332193444 0.45481191988275516
0.3554150510008185 0.44894968246213973 0.457743038593063
0.35560188199997356 0.4509037616023448 0.45676599902296044
0.3557880270000169 0.45188080117244755 0.45969711773326827
0.3559743010000602 0.45481191988275516 0.46165119687347334
0.3561609460002728 0.4538348803126526 0.4636052760136786
0.3564184610004304 0.45676599902296044 0.46262823644357587
0.3566081610006222 0.45676599902296044 0.4606741573033708
0.35679515800075023 0.45676599902296044 0.4636052760136786
0.356981377000011 0.45481191988275516 0.46165119687347334
0.3571904850005012 0.4557889594528579 0.4587200781631655
0.35737740800050233 0.4557889594528579 0.4557889594528579
0.3575636450004822 0.4557889594528579 0.457743038593063
0.3577506790006737 0.4587200781631655 0.4557889594528579
0.3579365650002728 0.4587200781631655 0.45481191988275516
0.35812361700027395 0.4606741573033708 0.45969711773326827
0.3583105220004654 0.45969711773326827 0.4587200781631655
0.3584963150005933 0.45969711773326827 0.4587200781631655
0.358681978000277 0.45676599902296044 0.46165119687347334
0.3588681790006376 0.45188080117244755 0.4655593551538837
0.3590548430001945 0.4430874450415241 0.4684904738641915
0.35924163600066095 0.4401563263312165 0.46165119687347334
0.359427596000387 0.43722520762090866 0.4636052760136786
0.3596142590004092 0.43429408891060084 0.45969711773326827
0.3598001820000718 0.43429408891060084 0.4587200781631655
0.35998590100007277 0.43624816805080613 0.4528578407425501
0.36017145400001027 0.43722520762090866 0.44992672203224227
0.3603748210007325 0.43917928676111373 0.4528578407425501
0.3605612060000567 0.4382022471910112 0.45188080117244755
0.36074716600069223 0.44406448461162684 0.45481191988275516
0.3609334780003337 0.44211040547142155 0.45481191988275516
0.36111964200063085 0.4450415241817294 0.4509037616023448
0.3613053980006953 0.44894968246213973 0.4538348803126526
0.36149176500020985 0.4509037616023448 0.45481191988275516
0.36168016900046496 0.4538348803126526 0.4538348803126526
0.3618679440005508 0.45969711773326827 0.4538348803126526
0.3620574040005522 0.45676599902296044 0.45481191988275516
0.3622441780007648 0.457743038593063 0.4557889594528579
0.36244393400011177 0.45969711773326827 0.45481191988275516
0.3626302090005993 0.45969711773326827 0.4538348803126526
0.36282203900009335 0.45969711773326827 0.4528578407425501
0.3630097029999888 0.4587200781631655 0.44992672203224227
0.36319747700053995 0.45676599902296044 0.44699560332193444
0.3633949740005846 0.45481191988275516 0.4460185637518319
0.36358854500031157 0.4557889594528579 0.44699560332193444
0.36377511600039725 0.45481191988275516 0.44699560332193444
0.3639618540000811 0.4538348803126526 0.4460185637518319
0.3641474800006108 0.45481191988275516 0.4430874450415241
0.36434931000076176 0.45676599902296044 0.44406448461162684
0.3645379920008054 0.45969711773326827 0.44211040547142155
0.3647236930000872 0.45969711773326827 0.4430874450415241
0.3649094860002151 0.457743038593063 0.4430874450415241
0.36509552000006806 0.4538348803126526 0.441133365901319
0.3652812020000056 0.45188080117244755 0.43917928676111373
0.3654672920001758 0.45188080117244755 0.4382022471910112
0.3656540110005153 0.44992672203224227 0.4352711284807034
0.36583958200026245 0.4479726428920372 0.4382022471910112
0.3660382080006457 0.4538348803126526 0.4382022471910112
0.36623511200014036 0.4538348803126526 0.4382022471910112
0.36643399800050247 0.4479726428920372 0.43917928676111373
0.3666315870004837 0.44699560332193444 0.43917928676111373
0.36683504700067715 0.44894968246213973 0.43917928676111373
0.3670413390000249 0.44894968246213973 0.43917928676111373
0.36723804000030214 0.44699560332193444 0.4401563263312165
0.36743457400007173 0.44894968246213973 0.43917928676111373
0.36771031000080256 0.44894968246213973 0.43722520762090866
0.3679328800008079 0.4509037616023448 0.441133365901319
0.36817057999996905 0.44894968246213973 0.4401563263312165
0.36849900000015623 0.44699560332193444 0.43624816805080613
0.36873053399995115 0.4479726428920372 0.44406448461162684
0.3689280120006515 0.4528578407425501 0.43429408891060084
0.3691209340004207 0.44894968246213973 0.43624816805080613
0.3693168940008036 0.44992672203224227 0.4352711284807034
0.36951592800051003 0.44894968246213973 0.4382022471910112
0.36971242500021617 0.44699560332193444 0.43917928676111373
0.3699076070006413 0.4460185637518319 0.4401563263312165
0.3701049370001783 0.4479726428920372 0.44211040547142155
0.37031461800052057 0.4479726428920372 0.4430874450415241
0.37053817000014533 0.44699560332193444 0.4430874450415241
0.37092659000063577 0.44699560332193444 0.4430874450415241
0.3713663420003286 0.44406448461162684 0.4450415241817294
0.37167005900028016 0.4460185637518319 0.4479726428920372
0.3719178320006904 0.4450415241817294 0.4460185637518319
0.37215927300076146 0.4450415241817294 0.4509037616023448
0.37249617500037857 0.44894968246213973 0.45188080117244755
0.3727644110003894 0.4479726428920372 0.4557889594528579
0.37303314700056944 0.4479726428920372 0.4557889594528579
0.37324114400053077 0.4557889594528579 0.4557889594528579
0.37344345500059717 0.4509037616023448 0.46165119687347334
0.37363898900002823 0.45188080117244755 0.4587200781631655
0.37383774500085565 0.44992672203224227 0.4587200781631655
0.3740267790008147 0.45188080117244755 0.4587200781631655
0.37421366500075237 0.4509037616023448 0.4606741573033708
0.37439964300028805 0.45188080117244755 0.4606741573033708
0.3746322130000408 0.45188080117244755 0.45969711773326827
0.37482145100057096 0.4528578407425501 0.4587200781631655
0.3750068920007834 0.44992672203224227 0.457743038593063
0.3751948330000232 0.4509037616023448 0.457743038593063
0.375381293000828 0.4509037616023448 0.45969711773326827
0.37556832700011 0.44699560332193444 0.4587200781631655
0.3757555460006188 0.4479726428920372 0.4587200781631655
0.37594198800070444 0.45188080117244755 0.4587200781631655
0.3761280770004305 0.44894968246213973 0.45969711773326827
0.3763163700004952 0.44992672203224227 0.4587200781631655
0.37650458900043304 0.4528578407425501 0.4606741573033708
0.3766908460002014 0.45188080117244755 0.46165119687347334
0.3768768050003928 0.4528578407425501 0.4655593551538837
0.377063339000415 0.4509037616023448 0.4684904738641915
0.37725004000003537 0.4528578407425501 0.47142159257449934
0.3774362780004594 0.4538348803126526 0.47142159257449934
0.3776237560005029 0.457743038593063 0.47239863214460187
0.377811438000208 0.45969711773326827 0.47239863214460187
0.3779970650002724 0.4587200781631655 0.47239863214460187
0.37818289500046376 0.4606741573033708 0.4763067904250122
0.37836935500035906 0.4587200781631655 0.47239863214460187
0.3785550920001697 0.4606741573033708 0.4733756717147044
0.37874101500074175 0.4606741573033708 0.4753297508549097
0.3789264750002985 0.4606741573033708 0.47435271128480694
0.37913362000017514 0.4606741573033708 0.4753297508549097
0.37932250600078987 0.46165119687347334 0.47728382999511476
0.3795085020001352 0.457743038593063 0.4782608695652173
0.3796948330000305 0.457743038593063 0.4802149487054226
0.37991345900081797 0.4606741573033708 0.4811919882755251
0.380100178000248 0.45676599902296044 0.4831460674157304
0.3802909890000592 0.45481191988275516 0.4811919882755251
0.38047917100084305 0.45676599902296044 0.47728382999511476
0.38066516800063255 0.4557889594528579 0.47239863214460187
0.3808523690004222 0.45676599902296044 0.46946751343429405
0.3810545140004251 0.4528578407425501 0.4636052760136786
0.38125217700053327 0.45188080117244755 0.46165119687347334
0.38144369200017536 0.4557889594528579 0.45969711773326827
0.38163515200085385 0.4557889594528579 0.46165119687347334
0.3818229450007493 0.4538348803126526 0.46262823644357587
0.382010387000264 0.45676599902296044 0.4557889594528579
0.3821966980003708 0.4557889594528579 0.4538348803126526
0.3823833440001181 0.4557889594528579 0.44992672203224227
0.38258121100079734 0.4528578407425501 0.44992672203224227
0.38279185500050517 0.45188080117244755 0.441133365901319
0.382993037000233 0.45481191988275516 0.43917928676111373
0.38318249700023443 0.4528578407425501 0.4352711284807034
0.38336929000070086 0.4557889594528579 0.4352711284807034
0.38355676800074434 0.4538348803126526 0.43722520762090866
0.3837435800005551 0.4528578407425501 0.43429408891060084
0.383930244000112 0.4538348803126526 0.43722520762090866
0.38411777800047275 0.4538348803126526 0.4382022471910112
0.38431457100068656 0.45188080117244755 0.43917928676111373
0.38450373400064564 0.45188080117244755 0.44406448461162684
0.384692231000372 0.4528578407425501 0.4382022471910112
0.3848788950008384 0.4509037616023448 0.43917928676111373
0.3850703540001632 0.44894968246213973 0.43917928676111373
0.3852792210000189 0.4479726428920372 0.4352711284807034
0.38548301400078344 0.4450415241817294 0.43917928676111373
0.3856883630005541 0.44211040547142155 0.4333170493404983
0.38590026700057933 0.441133365901319 0.4333170493404983
0.38609568900028535 0.4382022471910112 0.4323400097703958
0.3862832419999904 0.43917928676111373 0.4333170493404983
0.3864699240002665 0.4382022471910112 0.431362970200293
0.38665636500081746 0.4382022471910112 0.43429408891060084
0.3868425099999513 0.4401563263312165 0.4303859306301905
0.38702835900039645 0.441133365901319 0.4323400097703958
0.38726622500053054 0.44406448461162684 0.4352711284807034
0.3874529070008066 0.4450415241817294 0.42940889106008795
0.38764070100023673 0.44699560332193444 0.431362970200293
0.38782773399998405 0.44699560332193444 0.4303859306301905
0.38801525000053516 0.44992672203224227 0.4323400097703958
0.3882228390002638 0.44699560332193444 0.4352711284807034
0.3884102060001169 0.44992672203224227 0.43429408891060084
0.38859737000075256 0.4509037616023448 0.4382022471910112
0.3887833300004786 0.44992672203224227 0.43722520762090866
0.38898099300058675 0.45188080117244755 0.43917928676111373
0.38916789700033405 0.45188080117244755 0.4352711284807034
0.3893558200006737 0.44992672203224227 0.4382022471910112
0.38954309500059026 0.45188080117244755 0.4382022471910112
0.3897304810006972 0.44894968246213973 0.4401563263312165
0.38991723700019065 0.44699560332193444 0.4401563263312165
0.3901039930005936 0.44992672203224227 0.44211040547142155
0.39029065600061585 0.4509037616023448 0.441133365901319
0.390477264000765 0.4479726428920372 0.4430874450415241
0.39066342800015263 0.4557889594528579 0.44406448461162684
0.3908533140001964 0.44992672203224227 0.4450415241817294
0.3910437370004729 0.44699560332193444 0.44699560332193444
0.3912304370005586 0.4460185637518319 0.44699560332193444
0.391416508000475 0.4479726428920372 0.44894968246213973
0.39160352400085685 0.4460185637518319 0.4509037616023448
0.3917897430001176 0.44699560332193444 0.4509037616023448
0.3919761840006686 0.44406448461162684 0.4528578407425501
0.39216236600077536 0.4450415241817294 0.4557889594528579
0.3923687330006942 0.4450415241817294 0.4528578407425501
0.3925554520001242 0.4450415241817294 0.457743038593063
0.3927428189999773 0.4460185637518319 0.45676599902296044
0.39292911300071864 0.4460185637518319 0.4587200781631655
0.39311594300033903 0.4479726428920372 0.45969711773326827
0.3933128280004894 0.44699560332193444 0.4655593551538837
0.39350347300023714 0.4479726428920372 0.46458231558378116
0.39369071100009023 0.4460185637518319 0.467513434294089
0.3938785039999857 0.4460185637518319 0.46946751343429405
0.39406570500068483 0.44894968246213973 0.4733756717147044
0.39425281300009374 0.44894968246213973 0.4831460674157304
0.3944398280000314 0.4509037616023448 0.4782608695652173
0.39462689900028636 0.4528578407425501 0.47923790913532005
0.39481524800066836 0.44992672203224227 0.4802149487054226
0.395002134000606 0.44992672203224227 0.4811919882755251
0.3951893339999515 0.4509037616023448 0.4782608695652173
0.39537585000016406 0.44992672203224227 0.486077186126038
0.3955618650006727 0.4538348803126526 0.4733756717147044
0.39574958400044125 0.44894968246213973 0.46946751343429405
0.3959381740005483 0.44992672203224227 0.46165119687347334
0.3961257260007187 0.4528578407425501 0.45969711773326827
0.39633313000013004 0.44992672203224227 0.457743038593063
0.39653318199998466 0.44992672203224227 0.4528578407425501
0.3967294010008118 0.44894968246213973 0.45481191988275516
0.3969219170003271 0.44894968246213973 0.45188080117244755
0.3971100800008571 0.4528578407425501 0.45188080117244755
0.3972965960001602 0.4509037616023448 0.4538348803126526
0.3974823329999708 0.4509037616023448 0.45188080117244755
0.39767031200062775 0.45481191988275516 0.4528578407425501
0.39785727100024815 0.4557889594528579 0.44992672203224227
0.3980855640002119 0.4557889594528579 0.44992672203224227
0.3982720980002341 0.4557889594528579 0.44699560332193444
0.3984581500008062 0.4557889594528579 0.44992672203224227
0.3986441660008495 0.4557889594528579 0.44992672203224227
0.3988295510007447 0.4557889594528579 0.44699560332193444
0.3990147340000476 0.4557889594528579 0.4460185637518319
0.39920258200072567 0.45481191988275516 0.44406448461162684
0.39939780100030475 0.457743038593063 0.44406448461162684
0.3996178900006271 0.457743038593063 0.44406448461162684
0.39981409100073506 0.45481191988275516 0.4401563263312165
0.4000326060004227 0.45676599902296044 0.44992672203224227
0.40023632400061615 0.4538348803126526 0.4460185637518319
0.4004649320004319 0.45676599902296044 0.45188080117244755
0.40066372500041325 0.4528578407425501 0.4528578407425501
0.4008570180003517 0.4528578407425501 0.4557889594528579
0.4010636250004609 0.4538348803126526 0.45969711773326827
0.40130128800046805 0.45188080117244755 0.46458231558378116
0.40152865500022017 0.44992672203224227 0.46458231558378116
0.4017831880000813 0.45481191988275516 0.4655593551538837
0.4020669050005381 0.45188080117244755 0.46458231558378116
0.4023202710004625 0.4509037616023448 0.46262823644357587
0.40251882300071884 0.4509037616023448 0.46458231558378116
0.40271843100072147 0.45188080117244755 0.4655593551538837
0.402943205000156 0.45188080117244755 0.4655593551538837
0.40314998000030755 0.4538348803126526 0.4655593551538837
0.40334643900041556 0.4538348803126526 0.46458231558378116
0.40354660299999523 0.4538348803126526 0.4655593551538837
0.4037512840004638 0.45188080117244755 0.45969711773326827
0.4039760580008078 0.44992672203224227 0.45481191988275516
0.4042314250000345 0.44992672203224227 0.45188080117244755
0.4045759740001813 0.4479726428920372 0.4460185637518319
0.40486961800070276 0.44894968246213973 0.44211040547142155
0.40512861300067016 0.44992672203224227 0.441133365901319
0.4054490900007295 0.44992672203224227 0.4382022471910112
0.4056920299999547 0.4528578407425501 0.43624816805080613
0.4058897300001263 0.45188080117244755 0.4401563263312165
0.40611667100074555 0.45481191988275516 0.4323400097703958
0.4063053530007892 0.4538348803126526 0.4284318514899854
0.40649210900028265 0.45188080117244755 0.4255007327796776
0.40669760600030713 0.4509037616023448 0.42256961406936977
0.40688438000051974 0.4538348803126526 0.4235466536394723
0.4070708220006054 0.45481191988275516 0.42452369320957506
0.407265448000544 0.45481191988275516 0.4264777723497801
0.40745233400048164 0.45481191988275516 0.42940889106008795
0.4076386460001231 0.4538348803126526 0.4284318514899854
0.407824754000103 0.457743038593063 0.4333170493404983
0.40801091699995595 0.45188080117244755 0.43429408891060084
0.408201747000021 0.45188080117244755 0.43624816805080613
0.4084212249999837 0.45188080117244755 0.43722520762090866
0.4086080740007674 0.4509037616023448 0.43917928676111373
0.4087952010004301 0.44894968246213973 0.4382022471910112
0.4089810680006849 0.44992672203224227 0.43722520762090866
0.4091670460002206 0.44992672203224227 0.43722520762090866
0.409353839000687 0.44894968246213973 0.43624816805080613
0.4095399660000112 0.44699560332193444 0.43624816805080613
0.4097263700004987 0.4479726428920372 0.4352711284807034
0.4099124780004786 0.44992672203224227 0.43624816805080613
0.41009834600026807 0.4460185637518319 0.4333170493404983
0.41028476800056524 0.44699560332193444 0.43429408891060084
0.4104706170001009 0.4479726428920372 0.43429408891060084
0.4106596139999965 0.4460185637518319 0.43917928676111373
0.41084648100058985 0.4479726428920372 0.44211040547142155
0.4110334970000622 0.44894968246213973 0.4450415241817294
0.411219364000317 0.44699560332193444 0.4450415241817294
0.41140526800063526 0.44894968246213973 0.44406448461162684
0.41159100599998055 0.44699560332193444 0.4479726428920372
0.4117774100004681 0.44992672203224227 0.44699560332193444
0.4119636850000461 0.44992672203224227 0.44992672203224227
0.4121497370006182 0.44894968246213973 0.45188080117244755
0.41235190099996544 0.44894968246213973 0.44992672203224227
0.4125400090006224 0.44894968246213973 0.4538348803126526
0.41272645000026387 0.44699560332193444 0.4557889594528579
0.4129123540005821 0.44992672203224227 0.4557889594528579
0.41309785100020235 0.4460185637518319 0.45481191988275516
0.4132846630000131 0.44894968246213973 0.4538348803126526
0.4134939370005668 0.44992672203224227 0.45481191988275516
0.4136925640004847 0.44894968246213973 0.457743038593063
0.4138792830008242 0.44894968246213973 0.45969711773326827
0.4140659280001273 0.45188080117244755 0.457743038593063
