0 0.4509037616023448 0.4763067904250122
0.0004136040006414987 0.45188080117244755 0.4782608695652173
0.000624397000137833 0.45188080117244755 0.4831460674157304
0.0008223940003517782 0.45188080117244755 0.4831460674157304
0.0010451309999552905 0.44894968246213973 0.4851001465559355
0.0012860160004493082 0.45188080117244755 0.47923790913532005
0.0014827160002823803 0.4528578407425501 0.47435271128480694
0.0016966380007943371 0.4528578407425501 0.47239863214460187
0.0018914320007752394 0.45188080117244755 0.467513434294089
0.002081743000417191 0.44992672203224227 0.4655593551538837
0.002272518000609125 0.4509037616023448 0.467513434294089
0.00246114400033548 0.44699560332193444 0.4665363947239862
0.0026494000003367546 0.4528578407425501 0.467513434294089
0.002837749000718759 0.4460185637518319 0.4636052760136786
0.0030256910004027304 0.44992672203224227 0.4606741573033708
0.0032127240001500468 0.4509037616023448 0.46165119687347334
0.0034003140008280752 0.45188080117244755 0.4636052760136786
0.003589959000237286 0.4509037616023448 0.4636052760136786
0.0037772340001538396 0.4538348803126526 0.46165119687347334
0.0039646380000704085 0.44894968246213973 0.46262823644357587
0.0041513570004099165 0.44699560332193444 0.4636052760136786
0.004337872000178322 0.44992672203224227 0.46262823644357587
0.004525555000327586 0.4528578407425501 0.4636052760136786
0.004712737000772904 0.45188080117244755 0.4636052760136786
0.0049027330005628755 0.4538348803126526 0.4606741573033708
0.0051183220002712915 0.45188080117244755 0.46262823644357587
0.0053563930005111615 0.4538348803126526 0.4606741573033708
0.005566111000007368 0.45188080117244755 0.45969711773326827
0.005780923000202165 0.4528578407425501 0.457743038593063
0.005986345000565052 0.4538348803126526 0.4557889594528579
0.006198582000251918 0.44992672203224227 0.45188080117244755
0.0063928940007826895 0.4538348803126526 0.45188080117244755
0.006663314999968861 0.44992672203224227 0.4479726428920372
0.0069016820007163915 0.45188080117244755 0.44699560332193444
0.007116808000318997 0.44992672203224227 0.4460185637518319
0.007329860000027111 0.44894968246213973 0.4460185637518319
0.00753509700007271 0.44894968246213973 0.4460185637518319
0.00774166800056264 0.4509037616023448 0.44699560332193444
0.007938998000099673 0.457743038593063 0.44406448461162684
0.008134772000630619 0.4509037616023448 0.4430874450415241
0.00835349099997984 0.45188080117244755 0.441133365901319
0.008569543000703561 0.4509037616023448 0.441133365901319
0.008773206000114442 0.45481191988275516 0.44211040547142155
0.008970018000582058 0.4509037616023448 0.43917928676111373
0.009174181000162207 0.4509037616023448 0.4450415241817294
0.009839948000262666 0.45481191988275516 0.4509037616023448
0.010058500000013737 0.4528578407425501 0.4479726428920372
0.010258830000566377 0.45188080117244755 0.44894968246213973
0.01048171500042372 0.44992672203224227 0.44211040547142155
0.010675934000573761 0.4528578407425501 0.43722520762090866
0.010876005000682198 0.4538348803126526 0.43429408891060084
0.011083668000537727 0.44894968246213973 0.4303859306301905
0.011288850000710227 0.44699560332193444 0.431362970200293
0.011492809000628768 0.4479726428920372 0.4323400097703958
0.011694732000250951 0.44992672203224227 0.43624816805080613
0.01190270999995846 0.4479726428920372 0.43917928676111373
0.012140613000156009 0.44894968246213973 0.4382022471910112
0.012337369000306353 0.4528578407425501 0.43429408891060084
0.012544477000119514 0.45188080117244755 0.431362970200293
0.012741548000121838 0.45481191988275516 0.42940889106008795
0.012950563000231341 0.45188080117244755 0.4255007327796776
0.013164837000658736 0.45188080117244755 0.42745481191988266
0.013391018000220356 0.4538348803126526 0.42745481191988266
0.013579423000010138 0.45188080117244755 0.4284318514899854
0.013777345000562491 0.4509037616023448 0.4303859306301905
0.013970509000500897 0.45188080117244755 0.4333170493404983
0.014159043000290694 0.44992672203224227 0.441133365901319
0.014346466000461078 0.44894968246213973 0.4382022471910112
0.014533722000123817 0.44992672203224227 0.4401563263312165
0.014720904000569135 0.4479726428920372 0.441133365901319
0.014909049000380037 0.44699560332193444 0.4430874450415241
0.015095898000254238 0.44992672203224227 0.44699560332193444
0.015283469000678451 0.44894968246213973 0.44992672203224227
0.015471132000129728 0.44894968246213973 0.4460185637518319
0.015703610000855406 0.44992672203224227 0.44894968246213973
0.01589784700081509 0.45188080117244755 0.4509037616023448
0.0160861960002876 0.4509037616023448 0.44992672203224227
0.016275434000817768 0.4528578407425501 0.45188080117244755
0.01646478200018464 0.45188080117244755 0.45188080117244755
0.01665222400060884 0.4557889594528579 0.4528578407425501
0.016839517000335036 0.45188080117244755 0.4538348803126526
0.01702658800058998 0.4528578407425501 0.45969711773326827
0.01721338100014691 0.45188080117244755 0.46165119687347334
0.0174116550006147 0.4557889594528579 0.46262823644357587
0.01760111500061612 0.4538348803126526 0.4655593551538837
0.017788297000151942 0.4528578407425501 0.4684904738641915
0.01797625700055505 0.4509037616023448 0.4665363947239862
0.018162921000111965 0.45188080117244755 0.46946751343429405
0.018351973000790167 0.4538348803126526 0.47142159257449934
0.018539692000558716 0.44992672203224227 0.47435271128480694
0.018728078000094683 0.4509037616023448 0.4704445530043966
0.018934501000330783 0.45188080117244755 0.47435271128480694
0.01912581200031127 0.45188080117244755 0.47728382999511476
0.01931495700046071 0.4538348803126526 0.47728382999511476
0.01950288000080036 0.4509037616023448 0.4763067904250122
0.019690783999976702 0.44894968246213973 0.4782608695652173
0.01987846600059129 0.44992672203224227 0.4753297508549097
0.020066389000021445 0.44992672203224227 0.4753297508549097
0.020253256000614783 0.4528578407425501 0.467513434294089
0.020441031000700605 0.4479726428920372 0.46458231558378116
0.02062960200055386 0.44992672203224227 0.4587200781631655
0.02081761700083007 0.45188080117244755 0.4557889594528579
0.021005355000852433 0.4479726428920372 0.45188080117244755
0.02121611100028531 0.44894968246213973 0.4479726428920372
0.021483162000549783 0.44699560332193444 0.4450415241817294
0.02168199200059462 0.4479726428920372 0.441133365901319
0.021880154999962542 0.45188080117244755 0.43917928676111373
0.02207965200068429 0.4557889594528579 0.4450415241817294
0.022283926000454812 0.44992672203224227 0.44992672203224227
0.022485127000436478 0.4528578407425501 0.45481191988275516
0.02267440100058593 0.4528578407425501 0.457743038593063
0.02286267600084102 0.4538348803126526 0.4606741573033708
0.02304969200031337 0.4528578407425501 0.45969711773326827
0.023237188000166498 0.45188080117244755 0.457743038593063
0.023428537000654615 0.4509037616023448 0.45676599902296044
0.0236361820007005 0.44894968246213973 0.4557889594528579
0.023847289000514138 0.45188080117244755 0.45481191988275516
0.02405491600075038 0.44992672203224227 0.4557889594528579
0.024259357000119053 0.44894968246213973 0.4528578407425501
0.0244587050001428 0.4479726428920372 0.4528578407425501
0.025510983999993186 0.44992672203224227 0.44894968246213973
0.025710907000757288 0.44894968246213973 0.4509037616023448
0.025902422000399383 0.44992672203224227 0.4538348803126526
0.026091178000569926 0.44992672203224227 0.4538348803126526
0.026278397000169207 0.4528578407425501 0.457743038593063
0.02646550500048761 0.45188080117244755 0.45481191988275516
0.026652947000002314 0.4509037616023448 0.4557889594528579
0.026840017000722582 0.45188080117244755 0.45676599902296044
0.027041162000386976 0.45481191988275516 0.45481191988275516
0.027259844000582234 0.45481191988275516 0.4538348803126526
0.02744908100066823 0.4528578407425501 0.45676599902296044
0.027636523000182933 0.4557889594528579 0.4587200781631655
0.02782529700016312 0.45188080117244755 0.4606741573033708
0.02803683100046328 0.4528578407425501 0.46262823644357587
0.028224513000168372 0.4528578407425501 0.4606741573033708
0.028412584000761854 0.45676599902296044 0.46165119687347334
0.028599914000551507 0.4557889594528579 0.457743038593063
0.028787411000848806 0.4557889594528579 0.4557889594528579
0.028974093000215362 0.4528578407425501 0.4528578407425501
0.029161868000301183 0.4557889594528579 0.4528578407425501
0.02935864200026117 0.4538348803126526 0.4538348803126526
0.0295462870008123 0.4538348803126526 0.45481191988275516
0.029733488000601938 0.45481191988275516 0.44992672203224227
0.02992020700003195 0.457743038593063 0.44894968246213973
0.030107685000075435 0.4538348803126526 0.44992672203224227
0.03029414499997074 0.4538348803126526 0.4460185637518319
0.030481013000098756 0.45188080117244755 0.4430874450415241
0.030668287000480632 0.4528578407425501 0.43917928676111373
0.03085500600082014 0.44992672203224227 0.43917928676111373
0.031042818000059924 0.45188080117244755 0.43722520762090866
0.03122983400044177 0.45188080117244755 0.43722520762090866
0.03141547900031583 0.45188080117244755 0.4382022471910112
0.03160212400052842 0.45188080117244755 0.43722520762090866
0.031788639000296826 0.45188080117244755 0.43722520762090866
0.031975266000699776 0.44992672203224227 0.4401563263312165
0.032161596000150894 0.44894968246213973 0.4352711284807034
0.03234898200025782 0.45188080117244755 0.43722520762090866
0.03253607100032241 0.4528578407425501 0.4401563263312165
0.03272286400078883 0.44894968246213973 0.43722520762090866
0.03290969500085339 0.4509037616023448 0.43624816805080613
0.03309650600021996 0.45188080117244755 0.43429408891060084
0.0332843550004327 0.4538348803126526 0.431362970200293
0.0334720560003916 0.4557889594528579 0.43429408891060084
0.03365921900058311 0.4528578407425501 0.4323400097703958
0.03384660500069003 0.44699560332193444 0.43624816805080613
0.03403373100081808 0.45188080117244755 0.43917928676111373
0.03422058000069228 0.44699560332193444 0.4401563263312165
0.034413744000630686 0.44699560332193444 0.43917928676111373
0.03463048100002197 0.4479726428920372 0.441133365901319
0.03482347800036223 0.44992672203224227 0.441133365901319
0.03501162300017313 0.44699560332193444 0.44211040547142155
0.035198471000512654 0.4460185637518319 0.44211040547142155
0.03538663500057737 0.44894968246213973 0.44211040547142155
0.035574743000324816 0.45188080117244755 0.4430874450415241
0.03576207300011447 0.4479726428920372 0.4430874450415241
0.035959385000751354 0.4538348803126526 0.4450415241817294
0.03614703000039299 0.45188080117244755 0.44406448461162684
0.036333953000394104 0.44894968246213973 0.44211040547142155
0.03652144900024723 0.45188080117244755 0.4460185637518319
0.03670829800012143 0.44894968246213973 0.4430874450415241
0.036894851000397466 0.44992672203224227 0.44699560332193444
0.03708136600016587 0.45188080117244755 0.44894968246213973
0.03726927000025171 0.44894968246213973 0.4460185637518319
0.03745673000048555 0.44894968246213973 0.44699560332193444
0.03764641199995822 0.4479726428920372 0.4479726428920372
0.03783407600076316 0.44699560332193444 0.44894968246213973
0.0380243130002782 0.44894968246213973 0.44894968246213973
0.0382124580000891 0.4479726428920372 0.4479726428920372
0.0383986590004497 0.44894968246213973 0.44894968246213973
0.038585952000175894 0.4509037616023448 0.44406448461162684
0.03877235600066342 0.4479726428920372 0.4450415241817294
0.03895905700028379 0.4479726428920372 0.44699560332193444
0.039146165000602196 0.4479726428920372 0.4479726428920372
0.03933340300045529 0.4479726428920372 0.4460185637518319
0.03952617699997063 0.4460185637518319 0.44992672203224227
0.03973471100016468 0.44992672203224227 0.44894968246213973
0.03994128200065461 0.44894968246213973 0.4528578407425501
0.040134038000360306 0.4509037616023448 0.4528578407425501
0.04034481200051232 0.4509037616023448 0.457743038593063
0.04053286400085199 0.44992672203224227 0.4606741573033708
0.04072123200057831 0.45188080117244755 0.4665363947239862
0.04091148800034716 0.45188080117244755 0.4704445530043966
0.04110022500026389 0.44992672203224227 0.47435271128480694
0.041290018000836426 0.4538348803126526 0.4811919882755251
0.04147953400024562 0.4528578407425501 0.4909623839765511
0.041668974999993225 0.45188080117244755 0.48998534440644836
0.041856528000607796 0.45481191988275516 0.48900830483634583
0.04204319100063003 0.45676599902296044 0.4851001465559355
0.04223137300050439 0.44992672203224227 0.4753297508549097
0.04241831500075932 0.44992672203224227 0.4733756717147044
0.04263536600046791 0.44992672203224227 0.4704445530043966
0.04282245600006718 0.44894968246213973 0.467513434294089
0.043010416000470286 0.44699560332193444 0.467513434294089
0.04319678299998486 0.44992672203224227 0.4636052760136786
0.04338870600076916 0.4538348803126526 0.4636052760136786
0.04358653600047546 0.44992672203224227 0.4587200781631655
0.04377977300009661 0.44992672203224227 0.46262823644357587
0.04398428900003637 0.44894968246213973 0.4587200781631655
0.04424556200046936 0.4538348803126526 0.4606741573033708
0.0444450400000278 0.4509037616023448 0.46165119687347334
0.04464140700019925 0.4509037616023448 0.4636052760136786
0.04483408900068753 0.4509037616023448 0.4684904738641915
0.04502782700001262 0.4528578407425501 0.46458231558378116
0.045222101000035764 0.44992672203224227 0.46262823644357587
0.04548493000038434 0.45188080117244755 0.4665363947239862
0.04569987100057915 0.4528578407425501 0.46946751343429405
0.045903127000201494 0.4538348803126526 0.467513434294089
0.04615401200044289 0.45188080117244755 0.4665363947239862
0.04634830500071985 0.45481191988275516 0.4665363947239862
0.04657193100047152 0.4538348803126526 0.4606741573033708
0.04677835300026345 0.4538348803126526 0.45676599902296044
0.04701810900041892 0.4528578407425501 0.45481191988275516
0.047215716000209795 0.4538348803126526 0.4538348803126526
0.04741884300074162 0.45481191988275516 0.44992672203224227
0.04760952500055282 0.45676599902296044 0.44992672203224227
0.04779631800010975 0.45969711773326827 0.4479726428920372
0.04798414800006867 0.4587200781631655 0.4460185637518319
0.04817155199998524 0.4557889594528579 0.4460185637518319
0.04835784600072657 0.45481191988275516 0.44406448461162684
0.04854530500051624 0.45481191988275516 0.44406448461162684
0.048733747000369476 0.45676599902296044 0.44211040547142155
0.048921466000138025 0.45481191988275516 0.44211040547142155
0.049109426000541134 0.4557889594528579 0.43722520762090866
0.04930120000062743 0.4528578407425501 0.43624816805080613
0.049489030000586354 0.45676599902296044 0.43624816805080613
0.0496761010008413 0.4538348803126526 0.4352711284807034
0.049863709000419476 0.4528578407425501 0.4303859306301905
0.050050688000737864 0.4538348803126526 0.4303859306301905
0.05023755500042171 0.4528578407425501 0.4284318514899854
0.050424589000613196 0.4557889594528579 0.42745481191988266
0.05061210400072014 0.4557889594528579 0.4255007327796776
0.05083091600045009 0.4557889594528579 0.4235466536394723
0.05102057900057844 0.4528578407425501 0.42159257449926724
0.051207780000368075 0.4528578407425501 0.4186614557889594
0.0513952210003481 0.4538348803126526 0.41670737664875435
0.05158675500024401 0.4528578407425501 0.4176844162188569
0.051775678000012704 0.4538348803126526 0.41963849535906195
0.05196284100020421 0.4557889594528579 0.42159257449926724
0.05214970900033222 0.45481191988275516 0.4255007327796776
0.05233752000003733 0.45188080117244755 0.42745481191988266
0.052524999000524986 0.45188080117244755 0.4284318514899854
0.052727365999999165 0.4528578407425501 0.4333170493404983
0.05291608500010625 0.45188080117244755 0.43429408891060084
0.05310291500063613 0.44992672203224227 0.4382022471910112
0.053290097000171954 0.4557889594528579 0.43722520762090866
0.05347737200008851 0.45188080117244755 0.441133365901319
0.05366396099998383 0.45188080117244755 0.441133365901319
0.053850977000365674 0.4528578407425501 0.4430874450415241
0.054038122000747535 0.4509037616023448 0.4450415241817294
0.05422556300072756 0.4479726428920372 0.4479726428920372
0.054412745000263385 0.44992672203224227 0.45188080117244755
0.054599575000793266 0.44894968246213973 0.457743038593063
0.05479379400003381 0.44894968246213973 0.45969711773326827
0.054981402000521484 0.44894968246213973 0.4636052760136786
0.0551683250005226 0.44699560332193444 0.46458231558378116
0.05535528500058717 0.44894968246213973 0.4606741573033708
0.05554139300056704 0.44699560332193444 0.47142159257449934
0.05572787100027199 0.4479726428920372 0.45969711773326827
0.05591492400071729 0.44894968246213973 0.46165119687347334
0.05610153199995693 0.44992672203224227 0.4655593551538837
0.056288325000423356 0.44894968246213973 0.46165119687347334
0.05647928500002308 0.44894968246213973 0.457743038593063
0.05666678200032038 0.44894968246213973 0.45481191988275516
0.056854426999962016 0.4460185637518319 0.457743038593063
0.05704107200017461 0.4450415241817294 0.4557889594528579
0.057228050000048825 0.44699560332193444 0.457743038593063
0.05743249100032699 0.4479726428920372 0.45481191988275516
0.05762095099998987 0.44894968246213973 0.4538348803126526
0.057807429000604316 0.44894968246213973 0.4538348803126526
0.05799403700075345 0.4509037616023448 0.4509037616023448
0.0581811080000989 0.44992672203224227 0.4557889594528579
0.05836751300012111 0.4479726428920372 0.4557889594528579
0.05855380600041826 0.44894968246213973 0.45969711773326827
0.058740618000229006 0.44699560332193444 0.45969711773326827
0.058927152000251226 0.457743038593063 0.46262823644357587
0.05912679600078263 0.44894968246213973 0.4665363947239862
0.05931601600059366 0.45188080117244755 0.4636052760136786
0.05950425300034112 0.44992672203224227 0.46458231558378116
0.0596921200003635 0.44894968246213973 0.45969711773326827
0.05987941400053387 0.44894968246213973 0.4538348803126526
0.0600716700000703 0.44992672203224227 0.45188080117244755
0.060259555000811815 0.44699560332193444 0.45188080117244755
0.06044783000015741 0.44894968246213973 0.45188080117244755
0.06064484500075196 0.44699560332193444 0.4479726428920372
0.06083260100058396 0.44894968246213973 0.4479726428920372
0.06101965400011977 0.44699560332193444 0.44992672203224227
0.06120687300062855 0.4479726428920372 0.4528578407425501
0.06139611100024922 0.44699560332193444 0.4528578407425501
0.06158371900073689 0.44894968246213973 0.45481191988275516
0.06177184500029398 0.44894968246213973 0.4557889594528579
0.06222820800030604 0.44894968246213973 0.457743038593063
0.06241805700028635 0.4479726428920372 0.46165119687347334
0.06260851600018214 0.4479726428920372 0.46165119687347334
0.0627964580007756 0.44992672203224227 0.46946751343429405
0.06298402900029032 0.4509037616023448 0.46262823644357587
0.063171044000228 0.4509037616023448 0.4665363947239862
0.06335972600027162 0.44894968246213973 0.46458231558378116
0.06355335300031584 0.44894968246213973 0.467513434294089
0.06374540500019066 0.4509037616023448 0.467513434294089
0.06393293900055141 0.44699560332193444 0.46946751343429405
0.06412060200000269 0.45188080117244755 0.46262823644357587
0.06430758100032108 0.4528578407425501 0.4684904738641915
0.06449448500006838 0.4528578407425501 0.4704445530043966
0.06468175999998493 0.44992672203224227 0.4684904738641915
0.06487097900026129 0.4528578407425501 0.46946751343429405
0.06505814200045279 0.45188080117244755 0.4704445530043966
0.06526176900024439 0.45188080117244755 0.4684904738641915
0.06545098800052074 0.4509037616023448 0.46946751343429405
0.0656385770007546 0.44894968246213973 0.46458231558378116
0.06582572200022696 0.4509037616023448 0.4655593551538837
0.06601229300031264 0.44699560332193444 0.4655593551538837
0.06619897500058869 0.45188080117244755 0.46262823644357587
0.06638704600027268 0.44894968246213973 0.4606741573033708
0.06657554299999902 0.44992672203224227 0.45676599902296044
0.0667633550001483 0.4509037616023448 0.45481191988275516
0.06694970400076272 0.4509037616023448 0.4557889594528579
0.06713653400038311 0.45188080117244755 0.457743038593063
0.06732354900032078 0.44894968246213973 0.4538348803126526
0.06751113900008932 0.4538348803126526 0.45481191988275516
0.06769821000034426 0.4509037616023448 0.4538348803126526
0.06788681800026097 0.44992672203224227 0.4538348803126526
0.06807398100045248 0.4538348803126526 0.4509037616023448
0.06826083000032668 0.44992672203224227 0.44992672203224227
0.06844771600026434 0.44894968246213973 0.4460185637518319
0.06863543500003289 0.44992672203224227 0.4450415241817294
0.06883995000043797 0.44894968246213973 0.4479726428920372
0.06903687300018646 0.44699560332193444 0.4450415241817294
0.06922609200046281 0.44894968246213973 0.4450415241817294
0.06943738500012842 0.44699560332193444 0.44211040547142155
0.0696278440000242 0.4450415241817294 0.4460185637518319
0.0698232860004282 0.4538348803126526 0.4450415241817294
0.07001122700057749 0.45188080117244755 0.4450415241817294
0.07019968700024037 0.4509037616023448 0.44406448461162684
0.07038923900017835 0.45188080117244755 0.44406448461162684
0.0705767730005391 0.4528578407425501 0.44211040547142155
0.07076382600007491 0.44992672203224227 0.44211040547142155
0.07095048900009715 0.4538348803126526 0.4450415241817294
0.07113865300016187 0.4509037616023448 0.4450415241817294
0.0713374830002067 0.4528578407425501 0.44211040547142155
0.071524980000504 0.45188080117244755 0.4401563263312165
0.07171205100075895 0.4587200781631655 0.43722520762090866
0.07189932500023133 0.44992672203224227 0.4303859306301905
0.07208682200052863 0.45188080117244755 0.4255007327796776
0.07227444900036062 0.4509037616023448 0.42452369320957506
0.07246179699995992 0.44894968246213973 0.42159257449926724
0.07264879400008795 0.44992672203224227 0.4235466536394723
0.07283719900078722 0.44992672203224227 0.42452369320957506
0.0730244180003865 0.44894968246213973 0.4264777723497801
0.07321221100028197 0.45188080117244755 0.42452369320957506
0.07341961500060279 0.44894968246213973 0.4303859306301905
0.0736112040003718 0.44699560332193444 0.42940889106008795
0.07380236800054263 0.4450415241817294 0.42940889106008795
0.07399336500020581 0.44406448461162684 0.42940889106008795
0.07418417600001703 0.4450415241817294 0.4284318514899854
0.07437491400014551 0.44406448461162684 0.42745481191988266
0.07456529900082387 0.44211040547142155 0.42745481191988266
0.07475640700067743 0.4460185637518319 0.42452369320957506
0.07494697800029826 0.4479726428920372 0.42745481191988266
0.07513749400004599 0.4450415241817294 0.42940889106008795
0.07532758300021669 0.45188080117244755 0.4264777723497801
0.07551822799996444 0.44699560332193444 0.4235466536394723
0.07570842900076968 0.44699560332193444 0.4323400097703958
0.07590044400058105 0.4460185637518319 0.42745481191988266
0.07609058900015953 0.44699560332193444 0.431362970200293
0.07628184500026691 0.4460185637518319 0.4382022471910112
0.07647291600005701 0.44894968246213973 0.44406448461162684
0.07666367199999513 0.44894968246213973 0.44894968246213973
0.07685448400025052 0.44992672203224227 0.45969711773326827
0.07705038800031616 0.44992672203224227 0.4636052760136786
0.07725081000080536 0.4509037616023448 0.46946751343429405
0.0774426960006167 0.4509037616023448 0.4733756717147044
0.0776337670004068 0.44992672203224227 0.47435271128480694
0.07782376400064095 0.45188080117244755 0.47923790913532005
0.07801415000085399 0.44894968246213973 0.4831460674157304
0.07820544300011534 0.4528578407425501 0.48900830483634583
0.07839631000024383 0.44992672203224227 0.49682462139716654
0.07858701100030885 0.45481191988275516 0.5026868588177822
0.07877741500033153 0.44894968246213973 0.5026868588177822
0.07896815200001583 0.4509037616023448 0.5056179775280898
0.07915848300035577 0.4509037616023448 0.5036638983878847
0.07934905300044193 0.4509037616023448 0.5007327796775769
0.07954095800050709 0.44699560332193444 0.495847581827064
0.07973176900031831 0.44894968246213973 0.49193942354665365
0.0799219880000237 0.44992672203224227 0.4851001465559355
0.08011200400051166 0.44894968246213973 0.4782608695652173
0.08030250100000558 0.44699560332193444 0.47435271128480694
0.08049325700085319 0.4479726428920372 0.467513434294089
0.08068401300079131 0.45188080117244755 0.46165119687347334
0.08087419500043325 0.44699560332193444 0.4587200781631655
0.08106452500032901 0.44894968246213973 0.45676599902296044
0.08125596600075369 0.4509037616023448 0.4557889594528579
0.08144588900086092 0.45188080117244755 0.4557889594528579
0.08163627500016446 0.44992672203224227 0.457743038593063
0.08182666000084282 0.4509037616023448 0.4587200781631655
0.0820173980000618 0.4509037616023448 0.45481191988275516
0.08220806200006336 0.45188080117244755 0.4587200781631655
0.08239835500080517 0.4538348803126526 0.4557889594528579
0.08258918499996071 0.4509037616023448 0.4557889594528579
0.08278007100034301 0.44992672203224227 0.45481191988275516
0.08296999300000607 0.44894968246213973 0.45676599902296044
0.08316010100043059 0.4479726428920372 0.4587200781631655
0.0833502090008551 0.44699560332193444 0.45969711773326827
0.08354572500047652 0.4479726428920372 0.4557889594528579
0.08373594400018192 0.4509037616023448 0.45481191988275516
0.08392625500073336 0.4460185637518319 0.4587200781631655
0.08411712200086185 0.44894968246213973 0.45676599902296044
0.08430724900063069 0.4538348803126526 0.45481191988275516
0.08449741200001881 0.44699560332193444 0.4587200781631655
0.08468753900069714 0.44894968246213973 0.4538348803126526
0.08487792500000069 0.4528578407425501 0.4509037616023448
0.08506836600008683 0.44992672203224227 0.44894968246213973
0.08526814000015293 0.44992672203224227 0.44894968246213973
0.08545967400004884 0.44992672203224227 0.44894968246213973
0.08565080100015621 0.44894968246213973 0.4450415241817294
0.08584124200024235 0.4479726428920372 0.4460185637518319
0.08603103500081488 0.44894968246213973 0.44406448461162684
0.08622227300020313 0.44894968246213973 0.4401563263312165
0.08641275100035273 0.44992672203224227 0.4382022471910112
0.0866033400006927 0.44894968246213973 0.43917928676111373
0.08679350400052499 0.44894968246213973 0.441133365901319
0.08698426000046311 0.45188080117244755 0.44211040547142155
0.08717449800042232 0.44992672203224227 0.441133365901319
0.0873652910004239 0.4509037616023448 0.4460185637518319
0.0875560280001082 0.45481191988275516 0.4460185637518319
0.08774652500051161 0.45188080117244755 0.441133365901319
0.08793680000053428 0.45188080117244755 0.43917928676111373
0.08812714800023969 0.45188080117244755 0.4382022471910112
0.08831699700022 0.4509037616023448 0.43917928676111373
0.08850738300043304 0.4528578407425501 0.43917928676111373
0.08869784300077299 0.44992672203224227 0.4382022471910112
0.08888846900026692 0.44992672203224227 0.4460185637518319
0.08907889200054342 0.4509037616023448 0.43917928676111373
0.08926996300033352 0.4509037616023448 0.4352711284807034
0.08946047800054657 0.44894968246213973 0.4382022471910112
0.08965060500031541 0.4509037616023448 0.4352711284807034
0.08984119400065538 0.4509037616023448 0.4323400097703958
0.09003178400053002 0.44894968246213973 0.43429408891060084
0.09022246600034123 0.4450415241817294 0.4333170493404983
0.09041348100072355 0.44992672203224227 0.43429408891060084
0.09060366300036549 0.44699560332193444 0.43722520762090866
0.0907939010003247 0.4479726428920372 0.4333170493404983
0.09098389700011467 0.4460185637518319 0.43429408891060084
0.09117415300079301 0.44699560332193444 0.43624816805080613
0.09136403900083678 0.44992672203224227 0.43722520762090866
0.09155448000001343 0.45188080117244755 0.42940889106008795
0.09174536600039573 0.45188080117244755 0.4323400097703958
0.09193632599999546 0.44992672203224227 0.4255007327796776
0.09212656399995467 0.4528578407425501 0.42452369320957506
0.09231698600069649 0.4538348803126526 0.4264777723497801
0.0925070200000846 0.44992672203224227 0.42745481191988266
0.09269736900023418 0.4479726428920372 0.42940889106008795
0.09288760700019338 0.4479726428920372 0.4284318514899854
0.09307802900002571 0.44699560332193444 0.4333170493404983
0.09327395200034516 0.4479726428920372 0.43429408891060084
0.09346387500045239 0.4460185637518319 0.4382022471910112
0.09365435300060199 0.44992672203224227 0.43917928676111373
0.09384455400049774 0.44894968246213973 0.43722520762090866
0.0940346800007319 0.45188080117244755 0.44406448461162684
0.09422519500003546 0.44699560332193444 0.4460185637518319
0.09441560000050231 0.44699560332193444 0.44894968246213973
0.09460618900084228 0.4557889594528579 0.45481191988275516
0.09479692700006126 0.44894968246213973 0.457743038593063
0.09498707200054923 0.44992672203224227 0.4587200781631655
0.09517762400082574 0.45676599902296044 0.4606741573033708
0.09536869500061584 0.45481191988275516 0.46458231558378116
0.09555887700025778 0.45188080117244755 0.47142159257449934
0.09576117000051454 0.4528578407425501 0.4753297508549097
0.09595181500026229 0.44992672203224227 0.4811919882755251
0.09614786700058175 0.4509037616023448 0.4763067904250122
0.09636227100054384 0.44992672203224227 0.47435271128480694
0.09656895300031465 0.44992672203224227 0.4733756717147044
0.0967906710002353 0.44992672203224227 0.4753297508549097
0.09699987200019677 0.44992672203224227 0.46946751343429405
0.09720201600066503 0.44699560332193444 0.467513434294089
0.09740132800015999 0.4450415241817294 0.4636052760136786
0.09760347300016292 0.4460185637518319 0.46165119687347334
0.09780726600001799 0.4479726428920372 0.4606741573033708
0.09800257700044313 0.4450415241817294 0.46165119687347334
0.09819488900029683 0.4450415241817294 0.4606741573033708
0.09839084900067974 0.44406448461162684 0.4606741573033708
0.0985898820008515 0.44699560332193444 0.46458231558378116
0.09878997200030426 0.4479726428920372 0.46165119687347334
0.09899383900028624 0.44894968246213973 0.4665363947239862
0.09919778000039514 0.45188080117244755 0.4655593551538837
0.09940522100077942 0.44894968246213973 0.46262823644357587
0.09960442100054934 0.4479726428920372 0.46262823644357587
0.0998054730007425 0.4479726428920372 0.4636052760136786
0.10000998800023808 0.4450415241817294 0.4606741573033708
0.10021130000041012 0.44894968246213973 0.457743038593063
0.10043625900016195 0.44894968246213973 0.45676599902296044
0.10068473600040306 0.4528578407425501 0.45676599902296044
0.10088882600030047 0.44699560332193444 0.457743038593063
0.10108230400055618 0.44894968246213973 0.457743038593063
0.101277022999966 0.44894968246213973 0.4606741573033708
0.10147064900047553 0.4509037616023448 0.4606741573033708
0.10168147900003532 0.4479726428920372 0.4636052760136786
0.10188210500018613 0.44992672203224227 0.46165119687347334
0.10208358399995632 0.4509037616023448 0.4636052760136786
0.10228272800031846 0.45188080117244755 0.46165119687347334
0.10248607700032153 0.4479726428920372 0.46458231558378116
0.10268777700002829 0.45188080117244755 0.46458231558378116
0.10289253300015844 0.44894968246213973 0.46458231558378116
0.1031173260007563 0.44894968246213973 0.4636052760136786
0.1033375810002326 0.4509037616023448 0.4606741573033708
0.1035492630007866 0.44894968246213973 0.4606741573033708
0.1037491860006412 0.44894968246213973 0.4587200781631655
0.10394957100015745 0.44992672203224227 0.4557889594528579
0.10414869700070994 0.4528578407425501 0.4509037616023448
0.10434702700058551 0.44992672203224227 0.4538348803126526
0.10454606100029196 0.4528578407425501 0.4557889594528579
0.10475670600044396 0.457743038593063 0.4557889594528579
0.10496161000082793 0.45188080117244755 0.45481191988275516
0.10515851400032261 0.4509037616023448 0.45969711773326827
0.10538478800026496 0.4509037616023448 0.4587200781631655
0.10559287700016284 0.44894968246213973 0.4538348803126526
0.10579433700058871 0.45188080117244755 0.44894968246213973
0.10603085100046883 0.44894968246213973 0.44992672203224227
0.10624027400081104 0.44699560332193444 0.4509037616023448
0.10646760300005553 0.4557889594528579 0.44992672203224227
0.10671230300067691 0.44992672203224227 0.4479726428920372
0.10695679900072719 0.44894968246213973 0.4509037616023448
0.10720603600020695 0.44699560332193444 0.45188080117244755
0.10746116100017389 0.44992672203224227 0.45188080117244755
0.10770141600005445 0.44894968246213973 0.44699560332193444
0.10793113500039908 0.44699560332193444 0.4460185637518319
0.10817146400040656 0.44699560332193444 0.4450415241817294
0.1084086450000541 0.4479726428920372 0.44894968246213973
0.10868517800008703 0.4479726428920372 0.44894968246213973
0.10893319200022233 0.44992672203224227 0.4479726428920372
0.10920098400038114 0.44992672203224227 0.45188080117244755
0.10954721899997821 0.44894968246213973 0.4460185637518319
0.1097793630005981 0.44894968246213973 0.44211040547142155
0.10999873000037041 0.45188080117244755 0.44406448461162684
0.11024468899995554 0.4460185637518319 0.44211040547142155
0.11051899900030548 0.44699560332193444 0.441133365901319
0.1107992720008042 0.4460185637518319 0.4450415241817294
0.11109843400026875 0.44992672203224227 0.4460185637518319
0.11136835500019515 0.44992672203224227 0.4450415241817294
0.11166520200004015 0.44894968246213973 0.44211040547142155
0.11189481000019441 0.4479726428920372 0.4382022471910112
0.11209741700076847 0.44992672203224227 0.4382022471910112
0.11229991400068684 0.44992672203224227 0.43429408891060084
0.11250018800001271 0.44699560332193444 0.4352711284807034
0.11269701800028997 0.44894968246213973 0.43624816805080613
0.11289081200084183 0.45481191988275516 0.43624816805080613
0.1130792530002509 0.44992672203224227 0.43722520762090866
0.11327843500021118 0.4460185637518319 0.43624816805080613
0.11346817200046644 0.4460185637518319 0.4401563263312165
0.11365600299996004 0.44894968246213973 0.43722520762090866
0.11384307400021498 0.44699560332193444 0.4430874450415241
0.11403136700027972 0.4479726428920372 0.4450415241817294
0.1142761220007742 0.44699560332193444 0.44211040547142155
0.11446567400071217 0.44992672203224227 0.4450415241817294
0.11465335600041726 0.4479726428920372 0.44699560332193444
0.11484113100050308 0.44894968246213973 0.4460185637518319
0.11502798000037728 0.4479726428920372 0.4450415241817294
0.11521636600082275 0.4479726428920372 0.44699560332193444
0.11540380700080277 0.44699560332193444 0.44699560332193444
0.11559108200071933 0.4460185637518319 0.44992672203224227
0.11577841200050898 0.4479726428920372 0.44894968246213973
0.11596600100074284 0.44894968246213973 0.4509037616023448
0.11615305400027864 0.4460185637518319 0.44992672203224227
0.11634018000040669 0.44992672203224227 0.45188080117244755
0.11652784400030214 0.4479726428920372 0.44894968246213973
0.1167172670002401 0.44699560332193444 0.44992672203224227
0.11690407800051617 0.4460185637518319 0.44992672203224227
0.11709074200007308 0.44992672203224227 0.44699560332193444
0.11727910900026473 0.4450415241817294 0.4479726428920372
0.11748860600073385 0.4450415241817294 0.44992672203224227
0.11767717700058711 0.4479726428920372 0.4538348803126526
0.11786624800060963 0.44406448461162684 0.4538348803126526
0.11805346700020891 0.4460185637518319 0.45188080117244755
0.11824427800002013 0.44699560332193444 0.44894968246213973
0.11843484900055046 0.4450415241817294 0.4450415241817294
0.11862221600040357 0.4479726428920372 0.4450415241817294
0.11880904700046813 0.4479726428920372 0.4450415241817294
0.11899608100065961 0.4509037616023448 0.4450415241817294
0.11918307800078765 0.44894968246213973 0.4460185637518319
0.11937033400045038 0.44992672203224227 0.4509037616023448
0.11955805300021893 0.44992672203224227 0.4528578407425501
0.11974580900005094 0.4528578407425501 0.4538348803126526
0.11996045300020342 0.44894968246213973 0.45188080117244755
0.12014789500062761 0.45188080117244755 0.4509037616023448
0.12033468800018454 0.44992672203224227 0.45481191988275516
0.12052166600005876 0.45188080117244755 0.45481191988275516
0.12070853400018677 0.44894968246213973 0.4557889594528579
0.12089612300042063 0.4479726428920372 0.4587200781631655
0.12108275000082358 0.4479726428920372 0.45969711773326827
0.12127245000010589 0.4450415241817294 0.45969711773326827
0.12146154000038223 0.4479726428920372 0.45969711773326827
0.12164772200048901 0.44894968246213973 0.45969711773326827
0.12183479300074396 0.4460185637518319 0.47142159257449934
0.12202493800032244 0.44699560332193444 0.4655593551538837
0.12223506400005135 0.44894968246213973 0.46946751343429405
0.12242296800013719 0.45188080117244755 0.4684904738641915
0.12261013200077286 0.4509037616023448 0.47435271128480694
0.12279657300041436 0.4509037616023448 0.4733756717147044
0.12298327400003473 0.4509037616023448 0.4763067904250122
0.12317867800084059 0.44992672203224227 0.47728382999511476
0.12340611900071963 0.44992672203224227 0.4733756717147044
0.12361448499996186 0.44992672203224227 0.4733756717147044
0.12382768600036798 0.4538348803126526 0.46946751343429405
0.12406625600033294 0.45188080117244755 0.4684904738641915
0.1242872709999574 0.45188080117244755 0.4655593551538837
0.12450743400040665 0.45676599902296044 0.4606741573033708
0.12473193000005267 0.45188080117244755 0.45969711773326827
0.12496470400037651 0.4509037616023448 0.457743038593063
0.1251891070005513 0.4509037616023448 0.457743038593063
0.12543480700060172 0.4538348803126526 0.4509037616023448
0.12573756100027822 0.4528578407425501 0.44699560332193444
0.12594333600009122 0.4528578407425501 0.4450415241817294
0.1261444620004113 0.45188080117244755 0.44699560332193444
0.12634401400009665 0.44992672203224227 0.4430874450415241
0.12654049200045847 0.45188080117244755 0.441133365901319
0.12673615600033372 0.4528578407425501 0.43722520762090866
0.12693355999999767 0.45188080117244755 0.43722520762090866
0.12713022300067678 0.44894968246213973 0.4303859306301905
0.1273377570005323 0.44894968246213973 0.4284318514899854
0.12755656800072757 0.44992672203224227 0.4255007327796776
0.12779450900052325 0.44699560332193444 0.42452369320957506
0.12802196800021193 0.4509037616023448 0.42256961406936977
0.1282346680000046 0.44992672203224227 0.42159257449926724
0.1284314060003453 0.44894968246213973 0.4206155349291647
0.12865382800009684 0.45188080117244755 0.4255007327796776
0.1288589170007981 0.45188080117244755 0.42452369320957506
0.129113635000067 0.45188080117244755 0.4303859306301905
0.12939579700014292 0.4509037616023448 0.43429408891060084
0.12960925600054907 0.44894968246213973 0.43917928676111373
0.12983338200047 0.44992672203224227 0.4450415241817294
0.1300415450004948 0.4479726428920372 0.44894968246213973
0.1302318940006444 0.4509037616023448 0.4509037616023448
0.1304192060006244 0.44699560332193444 0.457743038593063
0.1306065180006044 0.4479726428920372 0.46458231558378116
0.1307957000008173 0.4460185637518319 0.46946751343429405
0.13098290000016277 0.44699560332193444 0.4733756717147044
0.1311694530004388 0.4460185637518319 0.4753297508549097
0.1313566160006303 0.4479726428920372 0.4733756717147044
0.13154311300058907 0.44406448461162684 0.4763067904250122
0.13172999900052673 0.4450415241817294 0.4665363947239862
0.13191808800002036 0.4450415241817294 0.46262823644357587
0.1321063450004658 0.4430874450415241 0.4636052760136786
0.1322934340005304 0.44992672203224227 0.45676599902296044
0.13248091200057388 0.44894968246213973 0.45676599902296044
0.1326677800007019 0.44699560332193444 0.4509037616023448
0.13285483200070303 0.4479726428920372 0.4509037616023448
0.13304171800064069 0.44699560332193444 0.44894968246213973
0.13322871500076872 0.44894968246213973 0.4479726428920372
0.13343837800039182 0.44699560332193444 0.4479726428920372
0.13367107800058875 0.44699560332193444 0.44406448461162684
0.13385807500071678 0.44894968246213973 0.4382022471910112
0.13404490500033717 0.4460185637518319 0.4352711284807034
0.1342314390003594 0.4460185637518319 0.4333170493404983
0.13441871400027594 0.44699560332193444 0.43429408891060084
0.13461017300051026 0.44699560332193444 0.4352711284807034
0.1348007630003849 0.44894968246213973 0.43917928676111373
0.13498859300034383 0.44894968246213973 0.4401563263312165
0.1351785530005145 0.4479726428920372 0.43722520762090866
0.13540486400052032 0.4479726428920372 0.441133365901319
0.13559269400047924 0.4460185637518319 0.441133365901319
0.13577902400083985 0.4460185637518319 0.4450415241817294
0.13596613200024876 0.45188080117244755 0.44406448461162684
0.13615355500041915 0.44894968246213973 0.44211040547142155
0.13634249599999748 0.44992672203224227 0.4401563263312165
0.13652908600033697 0.44992672203224227 0.44406448461162684
0.1367169900004228 0.44699560332193444 0.441133365901319
0.13691413500055205 0.4479726428920372 0.4430874450415241
0.1371015950007859 0.4460185637518319 0.44894968246213973
0.13729485100066086 0.4479726428920372 0.44992672203224227
0.13748468100038735 0.4479726428920372 0.45188080117244755
0.13767395600007148 0.4509037616023448 0.4528578407425501
0.13786084200000914 0.4479726428920372 0.45676599902296044
0.13804770900060248 0.4509037616023448 0.4606741573033708
0.1382350760004556 0.4509037616023448 0.45676599902296044
0.13842225799999142 0.44894968246213973 0.4587200781631655
0.13860912500058475 0.4479726428920372 0.4606741573033708
0.13879577100033202 0.4528578407425501 0.4606741573033708
0.1389826010008619 0.44699560332193444 0.4636052760136786
0.1391945230006968 0.44699560332193444 0.4606741573033708
0.13938172400048643 0.44894968246213973 0.46165119687347334
0.13956842400057212 0.4460185637518319 0.4636052760136786
0.13975482900059433 0.4538348803126526 0.46262823644357587
0.13994191800065892 0.4538348803126526 0.4606741573033708
0.14012891500078695 0.44992672203224227 0.4606741573033708
0.14032780100023956 0.44894968246213973 0.45969711773326827
0.14054657500037138 0.45188080117244755 0.46165119687347334
0.1407737380004619 0.4460185637518319 0.46262823644357587
0.14100143800078513 0.4479726428920372 0.46165119687347334
0.14127311800075404 0.4479726428920372 0.46262823644357587
0.14154333600072277 0.4460185637518319 0.4655593551538837
0.1417716100004327 0.44992672203224227 0.46946751343429405
0.1420058470002914 0.44894968246213973 0.47142159257449934
0.1422260280005503 0.4509037616023448 0.4704445530043966
0.1424526730006619 0.44894968246213973 0.46946751343429405
0.14268252100009704 0.44699560332193444 0.4684904738641915
0.14290992400037794 0.4509037616023448 0.467513434294089
0.14315058700049121 0.45188080117244755 0.4655593551538837
0.14340856400031043 0.44992672203224227 0.46458231558378116
0.14365354200072034 0.4509037616023448 0.46165119687347334
0.14389442700030486 0.4538348803126526 0.4655593551538837
0.14413566300027014 0.4460185637518319 0.467513434294089
0.14434203000018897 0.44894968246213973 0.45969711773326827
0.1445369720004237 0.4509037616023448 0.45969711773326827
0.14473202400040464 0.44894968246213973 0.45676599902296044
0.14493348300038633 0.44992672203224227 0.45676599902296044
0.14512405400000716 0.44894968246213973 0.45188080117244755
0.14537453200046002 0.44992672203224227 0.44699560332193444
0.145563640000546 0.4509037616023448 0.4430874450415241
0.1457506740007375 0.44992672203224227 0.4401563263312165
0.1459676890008268 0.4528578407425501 0.43917928676111373
0.146155111000553 0.4509037616023448 0.4382022471910112
0.1463444970004275 0.4509037616023448 0.4382022471910112
0.14653214200006914 0.45188080117244755 0.43722520762090866
0.14671965800062026 0.4538348803126526 0.4352711284807034
0.14690687700021954 0.45188080117244755 0.4333170493404983
0.14710489200024313 0.45188080117244755 0.43429408891060084
0.14730603700081701 0.4528578407425501 0.43429408891060084
0.14752353300082177 0.45188080117244755 0.4352711284807034
0.14773634400080482 0.45481191988275516 0.43624816805080613
0.14792504500019277 0.45481191988275516 0.4382022471910112
0.14811141200061684 0.4538348803126526 0.43722520762090866
0.1482980390001103 0.45481191988275516 0.44211040547142155
0.1485132940006224 0.45481191988275516 0.44211040547142155
0.14870147700003145 0.4538348803126526 0.4382022471910112
0.14888851000068826 0.45188080117244755 0.43917928676111373
0.14907793300062622 0.4509037616023448 0.4401563263312165
0.14929239299999608 0.44992672203224227 0.4430874450415241
0.1494817780003359 0.45188080117244755 0.4382022471910112
0.14966918300069665 0.4538348803126526 0.4382022471910112
0.14985588300078234 0.45188080117244755 0.43917928676111373
0.15004243600014888 0.45188080117244755 0.43624816805080613
0.15022906200010766 0.4538348803126526 0.4382022471910112
0.15041596700029913 0.45188080117244755 0.4401563263312165
0.15060242600065976 0.45481191988275516 0.441133365901319
0.15079036800034373 0.45481191988275516 0.44211040547142155
0.15097690200036595 0.4557889594528579 0.4382022471910112
0.15116424999996525 0.45676599902296044 0.4401563263312165
0.15135121000002982 0.45188080117244755 0.441133365901319
0.15153868900051748 0.45969711773326827 0.4460185637518319
0.15172616700056096 0.45188080117244755 0.44406448461162684
0.1519132940002237 0.4528578407425501 0.4430874450415241
0.15210336400014057 0.4538348803126526 0.4430874450415241
0.15229339800043817 0.4528578407425501 0.45188080117244755
0.15248071000041818 0.4509037616023448 0.44211040547142155
0.1526673739999751 0.45188080117244755 0.4450415241817294
0.15285372200014535 0.44894968246213973 0.4401563263312165
0.15304051600014645 0.4479726428920372 0.44699560332193444
0.1532276420002745 0.4460185637518319 0.44406448461162684
0.15342545400017116 0.44699560332193444 0.4450415241817294
0.15361267300067993 0.4450415241817294 0.4450415241817294
0.15382428000066284 0.44211040547142155 0.44894968246213973
0.1540151290000722 0.44211040547142155 0.4479726428920372
0.15421670000068843 0.44211040547142155 0.44699560332193444
0.15440588199999183 0.4430874450415241 0.44894968246213973
0.15459241600001405 0.44211040547142155 0.44894968246213973
0.15477887600081885 0.44211040547142155 0.44894968246213973
0.15496637300020666 0.44211040547142155 0.44992672203224227
0.1551537029999963 0.4430874450415241 0.4479726428920372
0.1553407370001878 0.4430874450415241 0.4460185637518319
0.1555279000003793 0.44406448461162684 0.44894968246213973
0.15571469300084573 0.4430874450415241 0.44894968246213973
0.1559092640000017 0.4450415241817294 0.4479726428920372
0.1560962430003201 0.4460185637518319 0.44992672203224227
0.15628305400059617 0.4460185637518319 0.45188080117244755
0.15646945900061837 0.4450415241817294 0.4509037616023448
0.1566559930006406 0.4460185637518319 0.4557889594528579
0.15684260100078973 0.4460185637518319 0.4538348803126526
0.15702926400081196 0.4460185637518319 0.4557889594528579
0.157215224000538 0.4460185637518319 0.4606741573033708
0.15742335000049934 0.44699560332193444 0.46458231558378116
0.1576129770000989 0.44699560332193444 0.46458231558378116
0.1578011030005655 0.44894968246213973 0.47142159257449934
0.1579882109999744 0.44894968246213973 0.4665363947239862
0.158175449000737 0.44992672203224227 0.46165119687347334
0.15836485300042114 0.44992672203224227 0.4587200781631655
0.15855431300042255 0.44894968246213973 0.457743038593063
0.15874173600059294 0.44894968246213973 0.45676599902296044
0.15892901000006532 0.44699560332193444 0.4538348803126526
0.15911623000010877 0.44894968246213973 0.457743038593063
0.15930272600053286 0.4479726428920372 0.4587200781631655
0.15949005700076668 0.44894968246213973 0.4606741573033708
0.15967805400032375 0.44699560332193444 0.4606741573033708
0.15986519900070562 0.4509037616023448 0.46262823644357587
0.16005330700045306 0.4509037616023448 0.457743038593063
0.160241266000412 0.44894968246213973 0.45969711773326827
0.16042867100077274 0.44894968246213973 0.457743038593063
0.16063390800081834 0.44992672203224227 0.457743038593063
0.1608237750006083 0.4509037616023448 0.4587200781631655
0.16101123500084213 0.4479726428920372 0.457743038593063
0.1611987690002934 0.4479726428920372 0.45969711773326827
0.16138884000065445 0.44992672203224227 0.4587200781631655
0.16157624400057102 0.44992672203224227 0.457743038593063
0.161764186000255 0.4509037616023448 0.45676599902296044
0.16195196000080614 0.4509037616023448 0.4528578407425501
0.16215027199996257 0.44992672203224227 0.4509037616023448
0.1623383610003657 0.45188080117244755 0.45481191988275516
0.16252557999996498 0.4528578407425501 0.45188080117244755
0.16271559600045293 0.4509037616023448 0.4528578407425501
0.1629212030002236 0.4509037616023448 0.44992672203224227
0.16313070000069274 0.45188080117244755 0.45969711773326827
0.1633241409999755 0.4538348803126526 0.45676599902296044
0.16351239699997677 0.45481191988275516 0.46262823644357587
0.1637037460004649 0.4538348803126526 0.45969711773326827
0.16390305799995986 0.4528578407425501 0.45969711773326827
0.16416459000083705 0.4528578407425501 0.4606741573033708
0.16436469800009945 0.45676599902296044 0.45676599902296044
0.16456515800018678 0.45481191988275516 0.45969711773326827
0.16475634000016726 0.45481191988275516 0.45676599902296044
0.16494902200065553 0.4557889594528579 0.45969711773326827
0.16514900000038324 0.45676599902296044 0.45676599902296044
0.1654432170007567 0.4538348803126526 0.4538348803126526
0.16568608300076448 0.4557889594528579 0.45188080117244755
0.1659134500005166 0.4528578407425501 0.44992672203224227
0.1661388540005646 0.45481191988275516 0.4460185637518319
0.16637407200050802 0.4528578407425501 0.44406448461162684
0.1666206610007066 0.45969711773326827 0.4460185637518319
0.1668776930000604 0.4606741573033708 0.4528578407425501
0.16709824500048853 0.45676599902296044 0.4538348803126526
0.1673372230006862 0.45676599902296044 0.45676599902296044
0.1675666260007347 0.4557889594528579 0.4587200781631655
0.1677961970008255 0.4557889594528579 0.4606741573033708
0.16798665600072127 0.45676599902296044 0.45676599902296044
0.16817435700068017 0.45481191988275516 0.45676599902296044
0.16836429800059705 0.45481191988275516 0.44992672203224227
0.1685532580004292 0.45481191988275516 0.44699560332193444
0.16874249600004987 0.4528578407425501 0.44211040547142155
0.16893062200051645 0.4528578407425501 0.4382022471910112
0.1691216750004969 0.45481191988275516 0.4382022471910112
0.16934511500039662 0.45676599902296044 0.4382022471910112
0.16953307500079973 0.44992672203224227 0.43722520762090866
0.16972031300065282 0.45188080117244755 0.43917928676111373
0.16990829099995608 0.4509037616023448 0.4382022471910112
0.17009610300010536 0.4509037616023448 0.4382022471910112
0.17028293300063524 0.4509037616023448 0.44211040547142155
0.17046952300006524 0.45188080117244755 0.4450415241817294
0.170657057000426 0.4538348803126526 0.4450415241817294
0.17086372000085248 0.4528578407425501 0.4450415241817294
0.17105227200045192 0.45188080117244755 0.4450415241817294
0.17124010200041084 0.45188080117244755 0.4460185637518319
0.17143550700075139 0.44992672203224227 0.4479726428920372
0.17163331800020387 0.45188080117244755 0.45188080117244755
0.17189277700072125 0.4509037616023448 0.4450415241817294
0.17210342100042908 0.45188080117244755 0.4401563263312165
0.17229656600011367 0.4509037616023448 0.4430874450415241
0.1724903220001579 0.44992672203224227 0.43917928676111373
0.17268906000026618 0.45188080117244755 0.4401563263312165
0.17288029700011975 0.45188080117244755 0.441133365901319
0.17307525700016413 0.4460185637518319 0.44406448461162684
0.1733074760004456 0.4509037616023448 0.43917928676111373
0.17354484200041043 0.44699560332193444 0.43917928676111373
0.1737422650003282 0.44894968246213973 0.43722520762090866
0.17395468700033234 0.4460185637518319 0.431362970200293
0.1741548320005677 0.4479726428920372 0.4352711284807034
0.1743524580006124 0.44699560332193444 0.4401563263312165
0.17454602900033933 0.4460185637518319 0.4401563263312165
0.17473534100008692 0.44894968246213973 0.441133365901319
0.17492374500034202 0.44699560332193444 0.44211040547142155
0.1751105200000893 0.44894968246213973 0.441133365901319
0.17529738700068265 0.44699560332193444 0.4401563263312165
0.17548395800076833 0.4479726428920372 0.44406448461162684
0.17567060300007142 0.44699560332193444 0.44406448461162684
0.1758573040006013 0.4479726428920372 0.4460185637518319
0.17604431900053896 0.44699560332193444 0.4460185637518319
0.17623129700041318 0.4479726428920372 0.45481191988275516
0.17641818300035084 0.44406448461162684 0.45676599902296044
0.17660873600016203 0.4509037616023448 0.457743038593063
0.17679578800016316 0.44894968246213973 0.45676599902296044
0.17698511800062988 0.4460185637518319 0.4587200781631655
0.17717341100069461 0.4450415241817294 0.4606741573033708
0.1773633709999558 0.4460185637518319 0.457743038593063
0.17755442400084576 0.44406448461162684 0.45676599902296044
0.1777420690004874 0.44406448461162684 0.45676599902296044
0.17792945400015014 0.4430874450415241 0.457743038593063
0.17815082100059954 0.44699560332193444 0.457743038593063
0.17834191000019928 0.44699560332193444 0.457743038593063
0.17852955600028508 0.4479726428920372 0.4587200781631655
0.17871664500034967 0.44699560332193444 0.457743038593063
0.17890334599997004 0.4479726428920372 0.4557889594528579
0.17909110200071154 0.4479726428920372 0.45676599902296044
0.17929748700044001 0.44699560332193444 0.45676599902296044
0.17948453999997582 0.4479726428920372 0.46165119687347334
0.17967177700029424 0.45188080117244755 0.4587200781631655
0.1798646440001903 0.44894968246213973 0.46165119687347334
0.18009988100038754 0.4479726428920372 0.46262823644357587
0.18034015500052192 0.44894968246213973 0.4636052760136786
0.18057294800019008 0.44699560332193444 0.47142159257449934
0.18081657300081133 0.44894968246213973 0.467513434294089
0.18103431000054115 0.44992672203224227 0.467513434294089
0.1812830840008246 0.45188080117244755 0.47142159257449934
0.18153646900009335 0.44894968246213973 0.4704445530043966
0.18175402100041538 0.44894968246213973 0.4733756717147044
0.1819772759999978 0.44992672203224227 0.4753297508549097
0.18220782800017332 0.45188080117244755 0.4782608695652173
0.18243497200001002 0.4509037616023448 0.46946751343429405
0.18265408000024763 0.45188080117244755 0.4655593551538837
0.1828966870007207 0.4509037616023448 0.46165119687347334
0.18321090400058893 0.45188080117244755 0.4538348803126526
0.18345108500034257 0.4538348803126526 0.4528578407425501
0.18366176700055803 0.45188080117244755 0.4479726428920372
0.18386630000077275 0.457743038593063 0.44992672203224227
0.18406959300045855 0.4538348803126526 0.4401563263312165
0.18427329400037706 0.4528578407425501 0.441133365901319
0.1844812900008037 0.45481191988275516 0.43917928676111373
0.18468549000044732 0.45188080117244755 0.44406448461162684
0.18491819000064424 0.45188080117244755 0.44211040547142155
0.18511603900060436 0.45481191988275516 0.44699560332193444
0.1853667570003381 0.45188080117244755 0.45188080117244755
0.18558675300027971 0.4538348803126526 0.44894968246213973
0.18578882400015573 0.45188080117244755 0.45188080117244755
0.18599380200066662 0.4509037616023448 0.45481191988275516
0.1861824470006468 0.45188080117244755 0.46165119687347334
0.18637133300035202 0.4528578407425501 0.4636052760136786
0.18656753300001583 0.45481191988275516 0.46946751343429405
0.18680165900059365 0.4509037616023448 0.4704445530043966
0.18699150800057396 0.44894968246213973 0.4704445530043966
0.1871798750007656 0.4509037616023448 0.47142159257449934
0.18736807599998428 0.44992672203224227 0.46946751343429405
0.1875546650007891 0.4528578407425501 0.46262823644357587
0.1877416990000711 0.45188080117244755 0.4587200781631655
0.18793232500047452 0.44992672203224227 0.457743038593063
0.18812089600032778 0.45188080117244755 0.45481191988275516
0.18830941200030793 0.45188080117244755 0.4538348803126526
0.18851400100083993 0.4538348803126526 0.44992672203224227
0.18870242400043935 0.4509037616023448 0.4450415241817294
0.18889054999999644 0.45188080117244755 0.44406448461162684
0.18907782500082249 0.4509037616023448 0.441133365901319
0.18928508099997998 0.45188080117244755 0.43917928676111373
0.18947352200029854 0.44894968246213973 0.4382022471910112
0.1896610560006593 0.45188080117244755 0.4382022471910112
0.18984927500059712 0.44894968246213973 0.43917928676111373
0.19003945700023905 0.4509037616023448 0.43624816805080613
0.19024110200007271 0.4509037616023448 0.43429408891060084
0.19044137600030808 0.4509037616023448 0.4323400097703958
0.19063750300028914 0.44992672203224227 0.42745481191988266
0.1908254260006288 0.44992672203224227 0.4255007327796776
0.19101390400010132 0.4509037616023448 0.42159257449926724
0.19120238200048334 0.44894968246213973 0.41963849535906195
0.19138876800025173 0.4538348803126526 0.4206155349291647
0.19157595000069705 0.45188080117244755 0.4186614557889594
0.1917626320000636 0.44992672203224227 0.4157303370786516
0.19194911100021272 0.44894968246213973 0.41475329750854906
0.19213581100029842 0.4509037616023448 0.41475329750854906
0.19232312300027843 0.4509037616023448 0.4157303370786516
0.19250993500008917 0.4509037616023448 0.4176844162188569
0.19269637600064016 0.4509037616023448 0.41963849535906195
0.19288970600064204 0.44894968246213973 0.42256961406936977
0.19308959200043319 0.44992672203224227 0.4303859306301905
0.19329740300054254 0.44992672203224227 0.43429408891060084
0.19349406600031216 0.44894968246213973 0.44211040547142155
0.19368352600031358 0.44992672203224227 0.4450415241817294
0.1938710419999552 0.44992672203224227 0.4509037616023448
0.19405994600037957 0.44992672203224227 0.45481191988275516
0.19424744300067687 0.45188080117244755 0.45676599902296044
0.19443512500038196 0.4509037616023448 0.46165119687347334
0.19462514000042574 0.4479726428920372 0.46262823644357587
0.19481315600023663 0.44894968246213973 0.46165119687347334
0.19500013400011085 0.44992672203224227 0.4587200781631655
0.19518716800030234 0.4479726428920372 0.457743038593063
0.19537427600062074 0.44894968246213973 0.45481191988275516
0.19556108800043148 0.44894968246213973 0.4538348803126526
0.19574821400055953 0.44992672203224227 0.45188080117244755
0.19593526700009534 0.44992672203224227 0.44992672203224227
0.19612189300005411 0.4509037616023448 0.44894968246213973
0.19631020500037266 0.45188080117244755 0.44992672203224227
0.19652225700065173 0.45188080117244755 0.44992672203224227
0.19671488300082274 0.45188080117244755 0.45188080117244755
0.1969240840007842 0.4538348803126526 0.45188080117244755
0.19714304300032381 0.4509037616023448 0.4528578407425501
0.19741926100050478 0.44699560332193444 0.45481191988275516
0.19768447800015565 0.44894968246213973 0.4538348803126526
0.1979132340002252 0.4479726428920372 0.4557889594528579
0.1981352490001882 0.44894968246213973 0.4557889594528579
0.19835307800076407 0.45188080117244755 0.45969711773326827
0.1985831860001781 0.4509037616023448 0.4587200781631655
0.1988083860005645 0.4509037616023448 0.4636052760136786
0.1990237520003575 0.4528578407425501 0.4665363947239862
0.19924080400051025 0.4528578407425501 0.46458231558378116
0.1995142810001198 0.45188080117244755 0.46165119687347334
0.19971450000048208 0.4479726428920372 0.4606741573033708
0.1999178860005486 0.4509037616023448 0.457743038593063
0.20012121600029786 0.4479726428920372 0.4538348803126526
0.20031456400010939 0.4538348803126526 0.4528578407425501
0.20051354300085222 0.44894968246213973 0.4528578407425501
0.20071020600062184 0.4450415241817294 0.4509037616023448
0.20091011000022263 0.44699560332193444 0.45188080117244755
0.20111719900069147 0.4479726428920372 0.45481191988275516
0.2013915650004492 0.44894968246213973 0.4528578407425501
0.2016048210007284 0.44894968246213973 0.4557889594528579
0.20197046300017973 0.44894968246213973 0.45969711773326827
0.2021828300003108 0.44894968246213973 0.4557889594528579
0.20238630800031387 0.4479726428920372 0.45481191988275516
0.202589156000613 0.44894968246213973 0.4557889594528579
0.20278557900019223 0.44992672203224227 0.45676599902296044
0.2029978160007886 0.45188080117244755 0.46165119687347334
0.20319892400038952 0.45188080117244755 0.4606741573033708
0.20339345800039155 0.45188080117244755 0.46458231558378116
0.203589954000563 0.45481191988275516 0.4655593551538837
0.20378613600041717 0.4538348803126526 0.47239863214460187
0.20412544600003457 0.45188080117244755 0.4782608695652173
0.20436290500038012 0.4538348803126526 0.4753297508549097
0.2046133820003888 0.4538348803126526 0.47435271128480694
0.20483191500079556 0.4538348803126526 0.4704445530043966
0.20505320800020854 0.4528578407425501 0.467513434294089
0.20548944100028166 0.45481191988275516 0.4636052760136786
0.20590771200022573 0.4557889594528579 0.46165119687347334
0.20620030000009137 0.4557889594528579 0.4587200781631655
0.20649466500071867 0.45481191988275516 0.4538348803126526
0.2067514200007281 0.4606741573033708 0.4509037616023448
0.20698634200016386 0.45481191988275516 0.44992672203224227
0.20724656000038522 0.4557889594528579 0.4450415241817294
0.20770812700084207 0.4528578407425501 0.441133365901319
0.20801380700049776 0.45188080117244755 0.4382022471910112
0.2083230980006192 0.4528578407425501 0.43624816805080613
0.20864829600031953 0.4528578407425501 0.43429408891060084
0.20892071800062695 0.4528578407425501 0.43722520762090866
0.2091708430007202 0.45188080117244755 0.4430874450415241
0.20949876400027279 0.45188080117244755 0.44406448461162684
0.20974522300002718 0.4528578407425501 0.4450415241817294
0.2099931070006278 0.45188080117244755 0.4460185637518319
0.2102831950005566 0.4538348803126526 0.44211040547142155
0.21054083900071419 0.4509037616023448 0.441133365901319
0.21075887200004217 0.4528578407425501 0.441133365901319
0.21098242400057643 0.4538348803126526 0.44211040547142155
0.21120484700077213 0.4538348803126526 0.44406448461162684
0.21142895400043926 0.4538348803126526 0.4401563263312165
0.21165702400048758 0.4528578407425501 0.4382022471910112
0.2118810760002816 0.45188080117244755 0.43722520762090866
0.21210429500024475 0.45481191988275516 0.43429408891060084
0.21243521500036877 0.45188080117244755 0.42940889106008795
0.21266169299997273 0.4528578407425501 0.4303859306301905
0.21288802200069767 0.4509037616023448 0.42940889106008795
0.21311768500072503 0.4509037616023448 0.43722520762090866
0.2134971420000511 0.44992672203224227 0.4460185637518319
0.21381517400004668 0.44992672203224227 0.4460185637518319
0.214107150000018 0.4509037616023448 0.44699560332193444
0.21434864599996217 0.4509037616023448 0.4509037616023448
0.21455942100055836 0.44992672203224227 0.44992672203224227
0.21475671400003193 0.4509037616023448 0.44992672203224227
0.21494569200058322 0.4528578407425501 0.44894968246213973
0.21513398500064795 0.4479726428920372 0.44894968246213973
0.21532192600079725 0.44894968246213973 0.44992672203224227
0.21555390400044416 0.45188080117244755 0.4528578407425501
0.21574399300061486 0.44894968246213973 0.45481191988275516
0.21597447100066347 0.4509037616023448 0.4528578407425501
0.21616456100036885 0.4479726428920372 0.4538348803126526
0.21635166900068725 0.44992672203224227 0.45481191988275516
0.21653896200041345 0.44699560332193444 0.4538348803126526
0.216727718000584 0.44894968246213973 0.45481191988275516
0.216915030000564 0.44894968246213973 0.4557889594528579
0.21711091500037583 0.4460185637518319 0.4528578407425501
0.21730981900054758 0.4460185637518319 0.4528578407425501
0.21750102000078186 0.44699560332193444 0.45481191988275516
0.21769070200025453 0.4460185637518319 0.4528578407425501
0.21788010600084817 0.4509037616023448 0.4538348803126526
0.21806804700008797 0.4479726428920372 0.4538348803126526
0.21825552600057563 0.44992672203224227 0.45676599902296044
0.21844322600009036 0.44894968246213973 0.4587200781631655
0.21863077900070493 0.4479726428920372 0.45969711773326827
0.2188183680000293 0.44894968246213973 0.4606741573033708
0.2190060689999882 0.44699560332193444 0.4636052760136786
0.21919406600045477 0.44699560332193444 0.4655593551538837
0.21938195200073096 0.4450415241817294 0.467513434294089
0.21956913400026679 0.44699560332193444 0.4684904738641915
0.2197563710005852 0.44699560332193444 0.4665363947239862
0.21994305300086125 0.4509037616023448 0.4665363947239862
0.22012975400048163 0.44699560332193444 0.4665363947239862
0.2203167880006731 0.4479726428920372 0.4684904738641915
0.22050684000078036 0.44699560332193444 0.4665363947239862
0.22069476300021051 0.4460185637518319 0.467513434294089
0.2208819820007193 0.44992672203224227 0.467513434294089
0.22106962700036092 0.4460185637518319 0.4665363947239862
0.22126623500025744 0.4479726428920372 0.467513434294089
0.22145408400047017 0.4479726428920372 0.46458231558378116
0.22164121000059822 0.4479726428920372 0.46458231558378116
0.22182861500004947 0.44699560332193444 0.46262823644357587
0.22201676000076986 0.44894968246213973 0.46165119687347334
0.22221477500079345 0.4479726428920372 0.457743038593063
0.22241293800016138 0.44699560332193444 0.45969711773326827
0.22260888000073464 0.45188080117244755 0.46165119687347334
0.22279743200033408 0.44894968246213973 0.46165119687347334
0.2229847990001872 0.44992672203224227 0.4606741573033708
0.22317264800039993 0.4479726428920372 0.46165119687347334
0.22336458900008438 0.4479726428920372 0.46165119687347334
0.2235526230006144 0.44894968246213973 0.46458231558378116
0.22376171200085082 0.4479726428920372 0.45969711773326827
0.22396796800057928 0.4479726428920372 0.4587200781631655
0.22418066800037195 0.44699560332193444 0.45676599902296044
0.22438638700077718 0.4460185637518319 0.4538348803126526
0.22458988400012458 0.44894968246213973 0.4528578407425501
0.22480428800008667 0.44992672203224227 0.4528578407425501
0.22500215500076592 0.45481191988275516 0.457743038593063
0.2251921700008097 0.44992672203224227 0.45188080117244755
0.22549781300040195 0.45188080117244755 0.4509037616023448
0.22568881000006513 0.4528578407425501 0.4509037616023448
0.22587715900044714 0.4538348803126526 0.4479726428920372
0.22606524800085026 0.45188080117244755 0.4479726428920372
0.22625378200064006 0.44992672203224227 0.4450415241817294
0.22644259400021838 0.44992672203224227 0.4430874450415241
0.22662966500047332 0.4509037616023448 0.43722520762090866
0.22681645800003025 0.44894968246213973 0.43624816805080613
0.2270035840001583 0.4538348803126526 0.43624816805080613
0.22719113700077287 0.45188080117244755 0.42940889106008795
0.22737796700039326 0.45188080117244755 0.4323400097703958
0.22756855600073322 0.4528578407425501 0.43624816805080613
0.22776610900018568 0.4538348803126526 0.4401563263312165
0.22795408700039843 0.4528578407425501 0.4460185637518319
0.22814049099997646 0.4528578407425501 0.44894968246213973
0.22832747000029485 0.4528578407425501 0.44894968246213973
0.22851474400067673 0.4538348803126526 0.45188080117244755
0.22871085200040397 0.4528578407425501 0.45188080117244755
0.228897126999982 0.45188080117244755 0.4557889594528579
0.22908362400085025 0.4528578407425501 0.4528578407425501
0.22927136199996312 0.4538348803126526 0.4557889594528579
0.2294597469999644 0.45188080117244755 0.457743038593063
0.22964628099998663 0.45188080117244755 0.4606741573033708
0.229833704000157 0.45188080117244755 0.46458231558378116
0.23002062700015813 0.45481191988275516 0.46458231558378116
0.2302076420000958 0.4509037616023448 0.46262823644357587
0.2304069720003099 0.4528578407425501 0.46165119687347334
0.2305982470006711 0.45188080117244755 0.4606741573033708
0.23078529900067224 0.4538348803126526 0.4587200781631655
0.2309725740005888 0.4528578407425501 0.45676599902296044
0.23115970100025152 0.44992672203224227 0.45188080117244755
0.2313463460004641 0.45188080117244755 0.4479726428920372
0.23153313900002104 0.45188080117244755 0.441133365901319
0.231720339000276 0.44992672203224227 0.4382022471910112
0.2319075960003829 0.4528578407425501 0.4352711284807034
0.23209477800082823 0.4509037616023448 0.4323400097703958
0.23228151500006788 0.44894968246213973 0.4382022471910112
0.23247034500036534 0.45188080117244755 0.42940889106008795
0.23265719400023954 0.4557889594528579 0.4333170493404983
0.23284478400000808 0.45481191988275516 0.4323400097703958
0.2330317620007918 0.45188080117244755 0.4323400097703958
0.23321909200058144 0.45188080117244755 0.4333170493404983
0.23345444000005955 0.44992672203224227 0.43429408891060084
0.23364312200010318 0.4479726428920372 0.4333170493404983
0.2338304340000832 0.44894968246213973 0.4352711284807034
0.23401765300059196 0.44894968246213973 0.43429408891060084
0.23420520600029704 0.44992672203224227 0.4382022471910112
0.2343919430004462 0.44992672203224227 0.43917928676111373
0.234579718000532 0.44894968246213973 0.4430874450415241
0.23476660400046967 0.4509037616023448 0.44406448461162684
0.23495724900021742 0.4509037616023448 0.4479726428920372
0.23515119000057894 0.44894968246213973 0.44992672203224227
0.23534307600039028 0.4509037616023448 0.4509037616023448
0.2355481280001186 0.44992672203224227 0.45481191988275516
0.23575579099997412 0.4528578407425501 0.4528578407425501
0.2359486580007797 0.45188080117244755 0.4538348803126526
0.2361367480007175 0.4557889594528579 0.46165119687347334
0.2363249670006553 0.44894968246213973 0.45481191988275516
0.23651285200048733 0.4509037616023448 0.45188080117244755
0.2367005350006366 0.4509037616023448 0.4538348803126526
0.23688710600072227 0.4509037616023448 0.45188080117244755
0.23707425100019464 0.45188080117244755 0.45481191988275516
0.23728556200057938 0.4509037616023448 0.4479726428920372
0.2374760590000733 0.4509037616023448 0.4479726428920372
0.23766618500030745 0.45188080117244755 0.44699560332193444
0.23785349700028746 0.4509037616023448 0.4460185637518319
0.23804593800014118 0.44894968246213973 0.4460185637518319
0.23824308300027042 0.4538348803126526 0.4450415241817294
0.23843463499997597 0.44992672203224227 0.441133365901319
0.23863015100050688 0.4509037616023448 0.44211040547142155
0.23882685100033996 0.44894968246213973 0.43917928676111373
0.2390230890005114 0.45188080117244755 0.4401563263312165
0.2392180670003654 0.4509037616023448 0.44211040547142155
0.23942254500070703 0.45188080117244755 0.44406448461162684
0.23961706000045524 0.45188080117244755 0.44699560332193444
0.23981187200024578 0.45188080117244755 0.45188080117244755
0.24006688600002235 0.44894968246213973 0.4587200781631655
0.24031203000049572 0.44992672203224227 0.4606741573033708
0.24050843400073063 0.45188080117244755 0.4655593551538837
0.24070330100039428 0.44894968246213973 0.467513434294089
0.24090139100007946 0.44992672203224227 0.46946751343429405
0.24115605300085008 0.44992672203224227 0.46946751343429405
0.2414122160007537 0.44992672203224227 0.4684904738641915
0.24166561900074157 0.4509037616023448 0.467513434294089
0.24193922500035114 0.44894968246213973 0.4665363947239862
0.24217085100008262 0.4509037616023448 0.467513434294089
0.2424000140008502 0.44894968246213973 0.4665363947239862
0.24263923200032878 0.44992672203224227 0.467513434294089
0.2429091910007628 0.44992672203224227 0.46458231558378116
0.24318974200014054 0.45188080117244755 0.4665363947239862
0.24347790400042868 0.44992672203224227 0.4636052760136786
0.24380689800000255 0.4538348803126526 0.4665363947239862
0.2441252450007596 0.4528578407425501 0.46165119687347334
0.24438881400055834 0.44992672203224227 0.46458231558378116
0.24467221700069786 0.4509037616023448 0.46165119687347334
0.24497447100020509 0.4528578407425501 0.4587200781631655
0.2452916140000525 0.4528578407425501 0.457743038593063
0.2454877039999701 0.4538348803126526 0.4587200781631655
0.2456750520004789 0.4538348803126526 0.46165119687347334
0.24586232700039545 0.4538348803126526 0.4587200781631655
0.24604956500024855 0.4538348803126526 0.4636052760136786
0.2462371540004824 0.45188080117244755 0.45969711773326827
0.2464246510007797 0.4528578407425501 0.4636052760136786
0.2466123520007386 0.4509037616023448 0.45481191988275516
0.2467998300007821 0.4538348803126526 0.45481191988275516
0.24698679000084667 0.4538348803126526 0.4538348803126526
0.24717465699995955 0.4538348803126526 0.4509037616023448
0.2473615980006798 0.4538348803126526 0.44992672203224227
0.24754870600008871 0.4538348803126526 0.44894968246213973
0.24773798100068234 0.4528578407425501 0.4460185637518319
0.24792651500047214 0.45481191988275516 0.4430874450415241
0.24811464100002922 0.45481191988275516 0.4430874450415241
0.24830212000051688 0.45676599902296044 0.441133365901319
0.2484896910000316 0.4538348803126526 0.43917928676111373
0.24867700200047693 0.4538348803126526 0.43917928676111373
0.24886374000016076 0.45481191988275516 0.4401563263312165
0.24911031000010553 0.4538348803126526 0.4401563263312165
0.2493029180004669 0.45481191988275516 0.4401563263312165
0.24949224800002412 0.45481191988275516 0.44211040547142155
0.2496803190006176 0.45188080117244755 0.44211040547142155
0.2498683900003016 0.4528578407425501 0.44211040547142155
0.2500578310000492 0.44992672203224227 0.4401563263312165
0.25024616200062155 0.4509037616023448 0.441133365901319
0.2504351030001999 0.4528578407425501 0.4401563263312165
0.2506225440001799 0.44992672203224227 0.43722520762090866
0.250809911000033 0.4479726428920372 0.4401563263312165
0.2509983160007323 0.44894968246213973 0.42940889106008795
0.25122223800008214 0.44894968246213973 0.42745481191988266
0.25141058700046415 0.44699560332193444 0.42452369320957506
0.25159841700042307 0.44992672203224227 0.42256961406936977
0.25178537700048764 0.44699560332193444 0.42256961406936977
0.25197215100070025 0.45188080117244755 0.4235466536394723
0.2521591670001726 0.44992672203224227 0.4264777723497801
0.25236371900064114 0.44699560332193444 0.4264777723497801
0.25256040100066457 0.44992672203224227 0.4303859306301905
0.25274982400060253 0.4479726428920372 0.4352711284807034
0.25293661700015946 0.44894968246213973 0.4382022471910112
0.25312429900077404 0.4509037616023448 0.441133365901319
0.25332531399999425 0.44699560332193444 0.4430874450415241
0.2535141630005455 0.44699560332193444 0.4479726428920372
0.253709493000315 0.44699560332193444 0.44992672203224227
0.253896490000443 0.4460185637518319 0.44992672203224227
0.25408382000023266 0.4538348803126526 0.4509037616023448
0.2542707610000434 0.44699560332193444 0.4509037616023448
0.25445749900063674 0.4460185637518319 0.4479726428920372
0.25464453300082823 0.4450415241817294 0.44699560332193444
0.25483171500036406 0.44406448461162684 0.4460185637518319
0.25501854499998444 0.44211040547142155 0.44406448461162684
0.2552047270000912 0.44406448461162684 0.4450415241817294
0.25539185400066344 0.44406448461162684 0.44211040547142155
0.2555794429999878 0.44406448461162684 0.44406448461162684
0.2557663659999889 0.4450415241817294 0.4479726428920372
0.2559533450003073 0.44699560332193444 0.4479726428920372
0.25614217500060477 0.4450415241817294 0.44992672203224227
0.2563298750001195 0.4479726428920372 0.44992672203224227
0.25651707600081863 0.4479726428920372 0.4538348803126526
0.25670431400067173 0.44699560332193444 0.45481191988275516
0.25689336600044044 0.44699560332193444 0.4557889594528579
0.25708160400063207 0.4479726428920372 0.457743038593063
0.2572780820000844 0.4460185637518319 0.45676599902296044
0.2574765790004676 0.44992672203224227 0.457743038593063
0.2577042230004736 0.44699560332193444 0.45969711773326827
0.25790573800077254 0.4509037616023448 0.4587200781631655
0.258108605000416 0.4479726428920372 0.45969711773326827
0.2582955840007344 0.4479726428920372 0.45969711773326827
0.25848650600073597 0.44992672203224227 0.4587200781631655
0.2586734480000814 0.4479726428920372 0.45969711773326827
0.25886129600075947 0.45188080117244755 0.4606741573033708
0.25904944100057037 0.45188080117244755 0.46262823644357587
0.259236957000212 0.4509037616023448 0.46262823644357587
0.2594567120004285 0.45188080117244755 0.46458231558378116
0.25964532000034524 0.44894968246213973 0.46458231558378116
0.2598328730000503 0.44894968246213973 0.46262823644357587
0.26001946200085513 0.4509037616023448 0.46165119687347334
0.2602115150002646 0.44992672203224227 0.45969711773326827
0.260402771000372 0.44992672203224227 0.45969711773326827
0.26058969400037313 0.4450415241817294 0.457743038593063
0.26077726500079734 0.4479726428920372 0.457743038593063
0.2609639470001639 0.4460185637518319 0.457743038593063
0.2611517029999959 0.44699560332193444 0.45676599902296044
0.26139460600006714 0.44894968246213973 0.46165119687347334
0.2615824730000895 0.44992672203224227 0.45676599902296044
0.2617699700003868 0.44894968246213973 0.457743038593063
0.261957412000811 0.44894968246213973 0.4606741573033708
0.26214427900049486 0.4509037616023448 0.46262823644357587
0.2623310910003056 0.4528578407425501 0.4655593551538837
0.2625178650005182 0.45188080117244755 0.4636052760136786
0.26270467700032896 0.4538348803126526 0.4684904738641915
0.26289210000049934 0.45188080117244755 0.46262823644357587
0.26307863400052156 0.4509037616023448 0.4606741573033708
0.26326564900045923 0.4509037616023448 0.45969711773326827
0.2634525540006507 0.44992672203224227 0.457743038593063
0.2636388099999749 0.44699560332193444 0.46165119687347334
0.2638262320006106 0.44699560332193444 0.4606741573033708
0.26401856300071813 0.4450415241817294 0.4606741573033708
0.2642207260005307 0.4460185637518319 0.4587200781631655
0.26441466699998273 0.4460185637518319 0.4587200781631655
0.2646090900007039 0.4460185637518319 0.45676599902296044
0.26480638300017745 0.44406448461162684 0.45481191988275516
0.26499958300064463 0.4430874450415241 0.44992672203224227
0.2651879690001806 0.4460185637518319 0.4528578407425501
0.2653875030000563 0.44699560332193444 0.45188080117244755
0.26557559200045944 0.44992672203224227 0.4479726428920372
0.26576334800029144 0.44894968246213973 0.44894968246213973
0.26596917799997755 0.44992672203224227 0.4450415241817294
0.26615799000046536 0.44894968246213973 0.44699560332193444
0.2663457830003608 0.45188080117244755 0.4450415241817294
0.26656457600074646 0.45188080117244755 0.4479726428920372
0.2667551470003673 0.4528578407425501 0.4479726428920372
0.2669428470007915 0.45188080117244755 0.4460185637518319
0.2671313070004544 0.45188080117244755 0.4450415241817294
0.26731960000051913 0.45969711773326827 0.4460185637518319
0.267515282000204 0.4538348803126526 0.44211040547142155
0.26770227900033206 0.4528578407425501 0.44211040547142155
0.2678891100003966 0.45188080117244755 0.44406448461162684
0.26807597700008046 0.44992672203224227 0.44211040547142155
0.26826260300003923 0.4538348803126526 0.4430874450415241
0.2684559330000411 0.44894968246213973 0.44406448461162684
0.26865885600000183 0.4509037616023448 0.44894968246213973
0.26886242700038565 0.4509037616023448 0.4430874450415241
0.26905334900038724 0.4509037616023448 0.44406448461162684
0.2692655500004548 0.44992672203224227 0.4430874450415241
0.2694563240002026 0.4538348803126526 0.4430874450415241
0.26964276600028825 0.4528578407425501 0.4450415241817294
0.26982930000031047 0.4538348803126526 0.44894968246213973
0.27001605600071343 0.4528578407425501 0.4509037616023448
0.2702029970005242 0.4538348803126526 0.44992672203224227
0.27039006800077914 0.4509037616023448 0.44992672203224227
0.2705764350002937 0.4538348803126526 0.4538348803126526
0.27076267300071777 0.45676599902296044 0.4509037616023448
0.2709498550002536 0.45481191988275516 0.44992672203224227
0.27114849999998114 0.45188080117244755 0.4450415241817294
0.27134692200070276 0.45188080117244755 0.4430874450415241
0.27154079000047204 0.45188080117244755 0.44211040547142155
0.2717322680000507 0.44992672203224227 0.4401563263312165
0.27192658000058145 0.4557889594528579 0.43722520762090866
0.2721218910000971 0.44992672203224227 0.43722520762090866
0.27232803600054467 0.4528578407425501 0.43429408891060084
0.2725229030002083 0.44992672203224227 0.4323400097703958
0.2727184550003585 0.44894968246213973 0.4333170493404983
0.2729232850006156 0.4479726428920372 0.43429408891060084
0.2731205410000257 0.44699560332193444 0.4333170493404983
0.27337625900054263 0.44894968246213973 0.4352711284807034
0.27357520000077784 0.4450415241817294 0.43429408891060084
0.27378338200014696 0.44699560332193444 0.43429408891060084
0.27400611900065996 0.44699560332193444 0.43722520762090866
0.27422311500049545 0.44894968246213973 0.43722520762090866
0.2744450380005219 0.44992672203224227 0.43722520762090866
0.274682589000804 0.44992672203224227 0.441133365901319
0.2749096970001119 0.4509037616023448 0.43722520762090866
0.2751454150002246 0.44992672203224227 0.4352711284807034
0.2753766519999772 0.44992672203224227 0.43429408891060084
0.27559857400046894 0.44894968246213973 0.4323400097703958
0.2757999040004506 0.44992672203224227 0.4352711284807034
0.2760471410001628 0.44894968246213973 0.43624816805080613
0.276258174000759 0.44992672203224227 0.43917928676111373
0.27645289300016884 0.4509037616023448 0.44406448461162684
0.2766474640002343 0.44992672203224227 0.44699560332193444
0.2768413310004689 0.45481191988275516 0.44894968246213973
0.27740511800038803 0.44992672203224227 0.46458231558378116
0.27762428100049874 0.45188080117244755 0.4684904738641915
0.2778141480002887 0.44992672203224227 0.4665363947239862
0.2780439040006968 0.44894968246213973 0.4636052760136786
0.27824975200019253 0.44699560332193444 0.4587200781631655
0.27848037800049497 0.4479726428920372 0.45676599902296044
0.2787247260002914 0.44699560332193444 0.45676599902296044
0.2789502960004029 0.44699560332193444 0.45969711773326827
0.2792147920008574 0.4509037616023448 0.46165119687347334
0.2794565660005901 0.4538348803126526 0.4704445530043966
0.2796888580005543 0.4509037616023448 0.4636052760136786
0.27991185400060203 0.44894968246213973 0.4636052760136786
0.28016385000046284 0.44992672203224227 0.46262823644357587
0.2804093090007882 0.4479726428920372 0.4636052760136786
0.2806460270003299 0.44992672203224227 0.46946751343429405
0.2808549870005663 0.45481191988275516 0.4655593551538837
0.2810436320005465 0.45188080117244755 0.46262823644357587
0.28126698000050965 0.45188080117244755 0.4606741573033708
0.28146449500036397 0.45188080117244755 0.45676599902296044
0.28165228800025943 0.44894968246213973 0.45969711773326827
0.2818415820001974 0.44992672203224227 0.44992672203224227
0.2820293380000294 0.4509037616023448 0.45188080117244755
0.28221700100039016 0.44992672203224227 0.44699560332193444
0.2824051090001376 0.44992672203224227 0.4479726428920372
0.2825927359999696 0.44992672203224227 0.4479726428920372
0.2827809550008169 0.44992672203224227 0.44992672203224227
0.28296821100047964 0.44992672203224227 0.4460185637518319
0.28315572700012126 0.44894968246213973 0.44699560332193444
0.2833424830005242 0.4479726428920372 0.4450415241817294
0.28352927600008115 0.4460185637518319 0.4460185637518319
0.2837162360001457 0.44699560332193444 0.44699560332193444
0.28390302900061215 0.44699560332193444 0.44699560332193444
0.28409039600046526 0.44699560332193444 0.4430874450415241
0.2842777630003184 0.4509037616023448 0.44699560332193444
0.28446472300038295 0.4479726428920372 0.4479726428920372
0.2846538870007862 0.44992672203224227 0.44992672203224227
0.2848413650008297 0.44894968246213973 0.44894968246213973
0.28502993600068294 0.45188080117244755 0.44992672203224227
0.28524976600056107 0.45188080117244755 0.44894968246213973
0.28543820699997013 0.4528578407425501 0.4460185637518319
0.28562494500056346 0.4538348803126526 0.44699560332193444
0.28585234800084436 0.45676599902296044 0.4460185637518319
0.2860411230003592 0.4538348803126526 0.44699560332193444
0.28622784200069873 0.45481191988275516 0.4460185637518319
0.2864398390001952 0.4557889594528579 0.4479726428920372
0.28662715000064054 0.4538348803126526 0.4528578407425501
0.2868150730000707 0.45676599902296044 0.44992672203224227
0.2870028480001565 0.45676599902296044 0.4528578407425501
0.2871891040003902 0.4538348803126526 0.4528578407425501
0.2873755640002855 0.45481191988275516 0.45676599902296044
0.28756178300045576 0.45481191988275516 0.4557889594528579
0.28774850200079527 0.4538348803126526 0.46262823644357587
0.28793624000081763 0.45676599902296044 0.46165119687347334
0.28812288500012073 0.45676599902296044 0.46165119687347334
0.28830947400001605 0.45481191988275516 0.4636052760136786
0.28849634200014407 0.45481191988275516 0.46165119687347334
0.28868230100033543 0.4528578407425501 0.46262823644357587
0.2888686320002307 0.45481191988275516 0.467513434294089
0.2890567770000416 0.4528578407425501 0.4684904738641915
0.2892785690000892 0.4528578407425501 0.46946751343429405
0.28947093700026016 0.45188080117244755 0.4684904738641915
0.2896585820008113 0.4538348803126526 0.4665363947239862
0.2898518010006228 0.45188080117244755 0.457743038593063
0.2900556120002875 0.45188080117244755 0.45188080117244755
0.29026120100024855 0.4509037616023448 0.44406448461162684
0.29046156799995515 0.45481191988275516 0.4401563263312165
0.2906503240001257 0.4509037616023448 0.4352711284807034
0.2908378400006768 0.45188080117244755 0.4333170493404983
0.2910247630006779 0.45188080117244755 0.4323400097703958
0.29121168500023487 0.4509037616023448 0.431362970200293
0.2913985160002994 0.457743038593063 0.4323400097703958
0.2915856240006178 0.45188080117244755 0.43429408891060084
0.29179549100081204 0.44992672203224227 0.43429408891060084
0.29198272800022096 0.44992672203224227 0.4382022471910112
0.29217178100043384 0.4509037616023448 0.43917928676111373
0.2923588150006253 0.4509037616023448 0.441133365901319
0.29254547800064756 0.44992672203224227 0.44211040547142155
0.29273204900073324 0.4479726428920372 0.44211040547142155
0.29291850900062855 0.4479726428920372 0.44406448461162684
0.293105858000672 0.44894968246213973 0.4460185637518319
0.29329541000061 0.44894968246213973 0.44699560332193444
0.29349822200038034 0.44894968246213973 0.4509037616023448
0.2936860890004027 0.44992672203224227 0.44992672203224227
0.2938775490001717 0.44894968246213973 0.44992672203224227
0.2940673050006808 0.4509037616023448 0.4528578407425501
0.2942538940005761 0.4528578407425501 0.45188080117244755
0.29444116900049266 0.45188080117244755 0.4528578407425501
0.2946280920004938 0.45188080117244755 0.44894968246213973
0.29481595900051616 0.44894968246213973 0.44894968246213973
0.2950036040001578 0.44699560332193444 0.44699560332193444
0.29519047100075113 0.44894968246213973 0.44699560332193444
0.2953778010005408 0.4509037616023448 0.44699560332193444
0.29556431700075336 0.45188080117244755 0.4450415241817294
0.29575088800083904 0.4528578407425501 0.44894968246213973
0.2959375140007978 0.4528578407425501 0.4460185637518319
0.2961241590001009 0.4509037616023448 0.4460185637518319
0.29631089700069424 0.44992672203224227 0.44992672203224227
0.29649782000069536 0.45188080117244755 0.44894968246213973
0.2966845020000619 0.4528578407425501 0.4528578407425501
0.2968709619999572 0.4538348803126526 0.4538348803126526
0.2970578110007409 0.45188080117244755 0.4538348803126526
0.2972921030004727 0.44992672203224227 0.45481191988275516
0.2974813959999665 0.44992672203224227 0.45481191988275516
0.2976710410002852 0.44992672203224227 0.4538348803126526
0.2978596680004557 0.44992672203224227 0.4528578407425501
0.29804679400058376 0.44894968246213973 0.4528578407425501
0.29823403200043686 0.44894968246213973 0.4538348803126526
0.29842139900028997 0.45188080117244755 0.457743038593063
0.2986086000000796 0.4528578407425501 0.457743038593063
0.2987957820005249 0.44992672203224227 0.45481191988275516
0.298982593000801 0.4509037616023448 0.457743038593063
0.29916940500061173 0.45188080117244755 0.4557889594528579
0.2993564210000841 0.45481191988275516 0.4538348803126526
0.2995435290004025 0.45188080117244755 0.44992672203224227
0.299730248000742 0.45188080117244755 0.4509037616023448
0.2999171520004893 0.4509037616023448 0.4479726428920372
0.3001041860006808 0.4509037616023448 0.44894968246213973
0.3002909050001108 0.4509037616023448 0.4479726428920372
0.3004774760001965 0.45188080117244755 0.44894968246213973
0.3006646030007687 0.4509037616023448 0.45481191988275516
0.30085315500036813 0.45188080117244755 0.4538348803126526
0.30103987400070764 0.45188080117244755 0.4557889594528579
0.3012271490006242 0.4557889594528579 0.4538348803126526
0.30145525600073597 0.44894968246213973 0.45969711773326827
0.301643882999997 0.44992672203224227 0.46165119687347334
0.3018397499999992 0.45188080117244755 0.46458231558378116
0.30205063500034157 0.44992672203224227 0.4665363947239862
0.30224396500034345 0.4509037616023448 0.4655593551538837
0.3024309810007253 0.45188080117244755 0.46458231558378116
0.3026184220007053 0.45481191988275516 0.4655593551538837
0.30280873400079145 0.45481191988275516 0.4655593551538837
0.30299573100001 0.4509037616023448 0.4655593551538837
0.30318267200073024 0.45188080117244755 0.467513434294089
0.30337011300071026 0.4528578407425501 0.46458231558378116
0.303565943000649 0.4509037616023448 0.4636052760136786
0.30375544000071386 0.44894968246213973 0.4655593551538837
0.3039598440000191 0.44992672203224227 0.4655593551538837
0.30414771100004145 0.4509037616023448 0.46262823644357587
0.30433522700059257 0.44992672203224227 0.4636052760136786
0.3045230020006784 0.4509037616023448 0.46165119687347334
0.3047099610002988 0.4509037616023448 0.46165119687347334
0.30489627300084976 0.4509037616023448 0.4636052760136786
0.3050831590007874 0.45188080117244755 0.4655593551538837
0.30529061800007185 0.45188080117244755 0.4636052760136786
0.30548039300083474 0.4528578407425501 0.4606741573033708
0.3056683900003918 0.4528578407425501 0.45969711773326827
0.30585683100071037 0.4587200781631655 0.457743038593063
0.30604438400041545 0.45188080117244755 0.4557889594528579
0.3062313059999724 0.45188080117244755 0.45481191988275516
0.30641839600048115 0.45188080117244755 0.45188080117244755
0.30660563400033425 0.4538348803126526 0.4509037616023448
0.3067934820001028 0.4538348803126526 0.44894968246213973
0.3069802760001039 0.45188080117244755 0.44699560332193444
0.30716968000069755 0.4509037616023448 0.44406448461162684
0.30735878800078353 0.45188080117244755 0.44211040547142155
0.30754548799995973 0.4509037616023448 0.4401563263312165
0.3077324480000243 0.4538348803126526 0.43917928676111373
0.3079200010006389 0.45481191988275516 0.43722520762090866
0.3081429410003693 0.45188080117244755 0.43722520762090866
0.3083312720000322 0.45188080117244755 0.4382022471910112
0.30851823200009676 0.44992672203224227 0.4382022471910112
0.308705617000669 0.45481191988275516 0.43722520762090866
0.3088930590001837 0.45188080117244755 0.43624816805080613
0.30908024100062903 0.4509037616023448 0.43722520762090866
0.3092760150002505 0.4538348803126526 0.43429408891060084
0.30948306700065586 0.4528578407425501 0.42940889106008795
0.3096723230000862 0.4509037616023448 0.4264777723497801
0.30986045000008744 0.44894968246213973 0.42452369320957506
0.31004839100023673 0.4479726428920372 0.4235466536394723
0.31023544400068204 0.44699560332193444 0.4235466536394723
0.31042299600085244 0.4460185637518319 0.42452369320957506
0.3106099560000075 0.4479726428920372 0.4333170493404983
0.31079747100011446 0.44992672203224227 0.4264777723497801
0.31098443100017903 0.4460185637518319 0.42940889106008795
0.3111714470005609 0.44406448461162684 0.4284318514899854
0.3113585180008158 0.44992672203224227 0.4284318514899854
0.3115454590006266 0.44406448461162684 0.4303859306301905
0.31173299300007784 0.44894968246213973 0.4303859306301905
0.3119204710001213 0.4450415241817294 0.4323400097703958
0.3121073760003128 0.44699560332193444 0.431362970200293
0.3122948170002928 0.4460185637518319 0.43429408891060084
0.3124817580001036 0.4450415241817294 0.4352711284807034
0.31266936600059125 0.4450415241817294 0.4352711284807034
0.31285601100080385 0.4450415241817294 0.43722520762090866
0.3130425640001704 0.44699560332193444 0.4450415241817294
0.31324652300008893 0.4460185637518319 0.4401563263312165
0.31343833500068286 0.4479726428920372 0.44211040547142155
0.3136251470004936 0.4479726428920372 0.4460185637518319
0.31381708800017805 0.44699560332193444 0.4479726428920372
0.3140052150001793 0.44699560332193444 0.4509037616023448
0.31419324800026516 0.44992672203224227 0.44992672203224227
0.3143809680004779 0.44992672203224227 0.44992672203224227
0.3145680940006059 0.44992672203224227 0.4528578407425501
0.3147553870003321 0.44894968246213973 0.4557889594528579
0.3149423470003967 0.44894968246213973 0.45481191988275516
0.31512928800020745 0.4528578407425501 0.45676599902296044
0.3153169710003567 0.44992672203224227 0.45481191988275516
0.3155033930006539 0.4509037616023448 0.45676599902296044
0.3156901680004012 0.44699560332193444 0.45676599902296044
0.3158775540005081 0.44992672203224227 0.457743038593063
0.31607643900042603 0.44992672203224227 0.46262823644357587
0.3162676770007238 0.4479726428920372 0.4606741573033708
0.3164557850004712 0.44894968246213973 0.46165119687347334
0.31664354100030323 0.4479726428920372 0.4636052760136786
0.3168308160002198 0.4479726428920372 0.46165119687347334
0.31701788700047473 0.44894968246213973 0.4587200781631655
0.3172048470005393 0.44992672203224227 0.4557889594528579
0.31739488000039273 0.4479726428920372 0.4528578407425501
0.31758967400037363 0.4450415241817294 0.45188080117244755
0.3177766890003113 0.44699560332193444 0.44992672203224227
0.3179633340005239 0.44699560332193444 0.4460185637518319
0.3181507750005039 0.4460185637518319 0.4479726428920372
0.31833797600029357 0.44699560332193444 0.44699560332193444
0.3185257510003794 0.44699560332193444 0.4460185637518319
0.31871354400027485 0.4479726428920372 0.44406448461162684
0.3189045780000015 0.44699560332193444 0.44406448461162684
0.3190918710006372 0.4479726428920372 0.44211040547142155
0.31927855300000374 0.44992672203224227 0.44211040547142155
0.31946566100032214 0.44699560332193444 0.44406448461162684
0.319652806000704 0.4450415241817294 0.44211040547142155
0.3198393210004724 0.4450415241817294 0.44699560332193444
0.3200263000007908 0.4479726428920372 0.44992672203224227
0.32021259300017846 0.44894968246213973 0.4557889594528579
0.32039962700036995 0.44992672203224227 0.46262823644357587
0.3205872900007307 0.44894968246213973 0.467513434294089
0.32077415800085873 0.44992672203224227 0.47142159257449934
0.3209613030003311 0.44992672203224227 0.48216902784562765
0.32114900300075533 0.44992672203224227 0.4811919882755251
0.32137266600057046 0.4538348803126526 0.48412310698583294
0.32156751500042446 0.4538348803126526 0.48412310698583294
0.32176110399996105 0.45188080117244755 0.4811919882755251
0.32195413800036476 0.4528578407425501 0.4763067904250122
0.32217172700075025 0.4538348803126526 0.4733756717147044
0.3223746680005206 0.4538348803126526 0.46946751343429405
0.32256622100067034 0.4479726428920372 0.467513434294089
0.3227646620007363 0.4528578407425501 0.46262823644357587
0.3229602330002308 0.44894968246213973 0.4606741573033708
0.3231573960001697 0.44894968246213973 0.46165119687347334
0.3233543190008277 0.4509037616023448 0.4587200781631655
0.3235517600005551 0.44992672203224227 0.45481191988275516
0.3237572560001354 0.45188080117244755 0.45676599902296044
0.3239686420001817 0.45188080117244755 0.4538348803126526
0.32419952700001886 0.44992672203224227 0.4509037616023448
0.3244290420007019 0.4528578407425501 0.4450415241817294
0.324676611000541 0.4538348803126526 0.44211040547142155
0.32490397800029314 0.4509037616023448 0.4401563263312165
0.3251170670000647 0.4509037616023448 0.4382022471910112
0.3253869520003718 0.44992672203224227 0.43624816805080613
0.32559844800016435 0.4528578407425501 0.43624816805080613
0.3258003340006326 0.4528578407425501 0.4382022471910112
0.32599571900027513 0.45969711773326827 0.441133365901319
0.32625767800072936 0.4538348803126526 0.44211040547142155
0.3264613230003306 0.4557889594528579 0.44211040547142155
0.3266638380000586 0.45188080117244755 0.4430874450415241
0.3268780930002322 0.45481191988275516 0.44211040547142155
0.32709853400046995 0.4509037616023448 0.4430874450415241
0.3273261050007932 0.45969711773326827 0.44406448461162684
0.3275394710008186 0.4557889594528579 0.4430874450415241
0.3277522830003363 0.44894968246213973 0.44211040547142155
0.32797666800070147 0.44699560332193444 0.43722520762090866
0.3281979790008336 0.4509037616023448 0.43917928676111373
0.32841645700045774 0.4538348803126526 0.44211040547142155
0.3286487680006758 0.4528578407425501 0.43917928676111373
0.3289944660000401 0.4538348803126526 0.4382022471910112
0.32933110800058785 0.45188080117244755 0.44406448461162684
0.32957277100013016 0.44992672203224227 0.4401563263312165
0.3297636010001952 0.4538348803126526 0.4382022471910112
0.32995159800066176 0.4479726428920372 0.43917928676111373
0.33013844700053596 0.4509037616023448 0.43917928676111373
0.3303720350004369 0.44992672203224227 0.43429408891060084
0.33057129100052407 0.44992672203224227 0.4323400097703958
0.3307597140001235 0.44992672203224227 0.4323400097703958
0.33094913700006146 0.44992672203224227 0.4333170493404983
0.331137134000528 0.44992672203224227 0.42940889106008795
0.3313251120007408 0.4479726428920372 0.4284318514899854
0.33151225700021314 0.44699560332193444 0.4303859306301905
0.33170001300004515 0.44894968246213973 0.4303859306301905
0.33188751000034244 0.44894968246213973 0.4333170493404983
0.33207469200078776 0.45188080117244755 0.4303859306301905
0.33226159700006974 0.4460185637518319 0.42940889106008795
0.33244916800049396 0.4460185637518319 0.42940889106008795
0.3326362390007489 0.4460185637518319 0.4284318514899854
0.3328226610001366 0.44699560332193444 0.4303859306301905
0.33301236200077255 0.44699560332193444 0.431362970200293
0.333200155000668 0.44894968246213973 0.4333170493404983
0.33339005900052143 0.4479726428920372 0.43722520762090866
0.33357900100054394 0.4460185637518319 0.4382022471910112
0.33379268200042134 0.4460185637518319 0.4401563263312165
0.3339807530001053 0.44699560332193444 0.43917928676111373
0.334167917000741 0.44992672203224227 0.4401563263312165
0.3343547470003614 0.44992672203224227 0.4430874450415241
0.3345420030000241 0.44992672203224227 0.4430874450415241
0.33473029600008886 0.44699560332193444 0.44699560332193444
0.33495257100003073 0.44699560332193444 0.44211040547142155
0.33513973400022223 0.4460185637518319 0.4401563263312165
0.33532795300016005 0.44699560332193444 0.4382022471910112
0.3355145610003092 0.44406448461162684 0.43624816805080613
0.3357011510006487 0.44406448461162684 0.4352711284807034
0.33588842500012106 0.4430874450415241 0.4401563263312165
0.3360752930002491 0.44406448461162684 0.43917928676111373
0.33626232700044056 0.44699560332193444 0.441133365901319
0.3364491010006532 0.4460185637518319 0.4450415241817294
0.33663619100025244 0.44992672203224227 0.44894968246213973
0.3368237800004863 0.4509037616023448 0.44992672203224227
0.33701022200057196 0.44992672203224227 0.4509037616023448
0.3371968850005942 0.44894968246213973 0.4557889594528579
0.33738734500002465 0.4479726428920372 0.4606741573033708
0.3375777310002377 0.44992672203224227 0.4636052760136786
0.33776467200004845 0.4509037616023448 0.4684904738641915
0.33798440900045534 0.44894968246213973 0.4704445530043966
0.3381741100001818 0.44894968246213973 0.46946751343429405
0.33836069900007715 0.45188080117244755 0.47142159257449934
0.338547715000459 0.45188080117244755 0.467513434294089
0.3387341740008196 0.45188080117244755 0.46946751343429405
0.3389223750000383 0.45188080117244755 0.467513434294089
0.339109539000674 0.45188080117244755 0.4665363947239862
0.339296665000802 0.45481191988275516 0.4655593551538837
0.339484292000634 0.44992672203224227 0.4655593551538837
0.339671011000064 0.44992672203224227 0.4636052760136786
0.33987880400036374 0.4528578407425501 0.46458231558378116
0.34006972600036534 0.45188080117244755 0.4636052760136786
0.3402569449999646 0.45188080117244755 0.46165119687347334
0.34044388700021955 0.4528578407425501 0.4606741573033708
0.34063455000068643 0.4528578407425501 0.4587200781631655
0.3408385470002031 0.4528578407425501 0.45676599902296044
0.3410403400002906 0.44894968246213973 0.4557889594528579
0.34129378000034194 0.4479726428920372 0.4557889594528579
0.3415196840005592 0.44894968246213973 0.457743038593063
0.34170875500058173 0.44894968246213973 0.4587200781631655
0.3418960850003714 0.44992672203224227 0.46262823644357587
0.34208406300058414 0.44894968246213973 0.46262823644357587
0.34227117099999305 0.45188080117244755 0.4655593551538837
0.3424582610005018 0.44992672203224227 0.467513434294089
0.3426448870004606 0.44992672203224227 0.4665363947239862
0.3429385120007282 0.4509037616023448 0.4655593551538837
0.34313825000026554 0.4538348803126526 0.46165119687347334
0.3433261170002879 0.44894968246213973 0.46165119687347334
0.3435133360007967 0.4538348803126526 0.45969711773326827
0.34370092500012106 0.45188080117244755 0.46165119687347334
0.3438879220002491 0.4538348803126526 0.46262823644357587
0.3440757710004618 0.44894968246213973 0.4606741573033708
0.3442627120002726 0.4509037616023448 0.46165119687347334
0.3444499500001257 0.45188080117244755 0.46165119687347334
0.34469087200068316 0.4509037616023448 0.4606741573033708
0.34487862800051516 0.4509037616023448 0.46262823644357587
0.3450657550001779 0.44894968246213973 0.4587200781631655
0.3453051210008198 0.4479726428920372 0.4606741573033708
0.3454951550002079 0.44992672203224227 0.46165119687347334
0.3456823180003994 0.4479726428920372 0.46165119687347334
0.3458690930001467 0.44894968246213973 0.46458231558378116
0.34605662700050743 0.44992672203224227 0.4655593551538837
0.34624375400017016 0.45188080117244755 0.4636052760136786
0.3464309540004251 0.4528578407425501 0.4665363947239862
0.3466172470007223 0.4509037616023448 0.4636052760136786
0.34680480000042735 0.45188080117244755 0.46262823644357587
0.346992852000767 0.4538348803126526 0.46165119687347334
0.34718264500043006 0.4528578407425501 0.46458231558378116
0.34737040200070624 0.45481191988275516 0.4665363947239862
0.34755730600045354 0.4528578407425501 0.4704445530043966
0.347744784000497 0.45481191988275516 0.46946751343429405
0.3479321330005405 0.4557889594528579 0.4704445530043966
0.3481202220000341 0.45481191988275516 0.4684904738641915
0.34830773800058523 0.4557889594528579 0.46458231558378116
0.3484955120002269 0.45676599902296044 0.46262823644357587
0.3486820460002491 0.45481191988275516 0.4587200781631655
0.34886919100063096 0.45481191988275516 0.4528578407425501
0.34905679900020914 0.45481191988275516 0.44894968246213973
0.34925859200029663 0.45188080117244755 0.4460185637518319
0.34944805200029805 0.45481191988275516 0.44211040547142155
0.3496354570006588 0.45481191988275516 0.441133365901319
0.3498218610002368 0.4538348803126526 0.4382022471910112
0.3500091350006187 0.4557889594528579 0.43722520762090866
0.3502270580002005 0.4538348803126526 0.43722520762090866
0.3504143140007727 0.45481191988275516 0.4333170493404983
0.35060149600030854 0.45481191988275516 0.4352711284807034
0.3507885670005635 0.45481191988275516 0.4352711284807034
0.35097582300022623 0.45481191988275516 0.43722520762090866
0.3511628020005446 0.4538348803126526 0.4352711284807034
0.3513684830004422 0.4538348803126526 0.43624816805080613
0.3515560910000204 0.45188080117244755 0.43624816805080613
0.35174318100052915 0.44992672203224227 0.4382022471910112
0.3519330290000653 0.45188080117244755 0.43624816805080613
0.35213571100030094 0.4528578407425501 0.4352711284807034
0.3523333380007898 0.45481191988275516 0.43917928676111373
0.35252000100081204 0.4587200781631655 0.4352711284807034
0.35270770200077095 0.4538348803126526 0.43429408891060084
0.3528949580004337 0.45481191988275516 0.4382022471910112
0.35308177000024443 0.4557889594528579 0.43624816805080613
0.35328285900050105 0.4587200781631655 0.4382022471910112
0.3534717080001428 0.4538348803126526 0.4382022471910112
0.35365850100060925 0.4538348803126526 0.44211040547142155
0.35385736800071754 0.457743038593063 0.4430874450415241
0.3540442350004014 0.4538348803126526 0.44406448461162684
0.35423163900031795 0.45481191988275516 0.4460185637518319
0.3544183400008478 0.4557889594528579 0.4460185637518319
0.35460541100019327 0.4538348803126526 0.44894968246213973
0.3547985190007239 0.45188080117244755 0.44894968246213973
0.35499216400057776 0.45676599902296044 0.44992672203224227
0.35519297500013636 0.44992672203224227 0.45188080117244755
0.3553881760008153 0.4528578407425501 0.44992672203224227
0.3555935610002052 0.45188080117244755 0.44894968246213973
0.3557914470002288 0.4538348803126526 0.45481191988275516
0.35599275799995667 0.45188080117244755 0.4557889594528579
0.35620858800029964 0.4509037616023448 0.45188080117244755
0.3564391030004117 0.45188080117244755 0.4528578407425501
0.3566873770005259 0.4509037616023448 0.45188080117244755
0.3569510020006419 0.44992672203224227 0.4538348803126526
0.3572111830007998 0.4509037616023448 0.457743038593063
0.3574616600008085 0.4509037616023448 0.4557889594528579
0.35769861900007527 0.4509037616023448 0.45676599902296044
0.35790887500024837 0.45188080117244755 0.46262823644357587
0.35814653700072085 0.4528578407425501 0.45969711773326827
0.35834975600027974 0.4528578407425501 0.45969711773326827
0.35855708600047365 0.4538348803126526 0.46262823644357587
0.3587748420004573 0.45188080117244755 0.4606741573033708
0.35899222700027167 0.45481191988275516 0.46165119687347334
0.35922379700059537 0.4528578407425501 0.4636052760136786
0.3594454970007064 0.45676599902296044 0.46262823644357587
0.35966893800014077 0.4538348803126526 0.46458231558378116
0.35989478600004077 0.4538348803126526 0.46458231558378116
0.360134171000027 0.45676599902296044 0.46946751343429405
0.36046396200072195 0.4538348803126526 0.4704445530043966
0.36072327200054133 0.45481191988275516 0.47239863214460187
0.3610351380002612 0.45481191988275516 0.4733756717147044
0.36134820700044656 0.45676599902296044 0.47435271128480694
0.36157820300013555 0.45676599902296044 0.4753297508549097
0.3618226250000589 0.4557889594528579 0.4704445530043966
0.3621749150006508 0.4528578407425501 0.46262823644357587
0.36248570600037056 0.4538348803126526 0.4587200781631655
0.362765035000848 0.4509037616023448 0.457743038593063
0.36296582800059696 0.4538348803126526 0.46458231558378116
0.3631552320002811 0.4557889594528579 0.45969711773326827
0.3633444880006209 0.45481191988275516 0.45676599902296044
0.36353174400028365 0.457743038593063 0.4606741573033708
0.3637191300003906 0.45481191988275516 0.4606741573033708
0.36390588600079354 0.4538348803126526 0.46262823644357587
0.36409332800030825 0.457743038593063 0.45969711773326827
0.3642802880003728 0.4606741573033708 0.46165119687347334
0.3644699140004377 0.457743038593063 0.4655593551538837
0.3646570590008196 0.4587200781631655 0.45969711773326827
0.3648464450006941 0.45969711773326827 0.457743038593063
0.36503371900016646 0.457743038593063 0.4538348803126526
0.3652214940002523 0.46262823644357587 0.44992672203224227
0.3654395650000879 0.4557889594528579 0.44894968246213973
0.3656275800003641 0.4587200781631655 0.44699560332193444
0.3658150580004076 0.457743038593063 0.4460185637518319
0.36600298100074724 0.457743038593063 0.44406448461162684
0.36619205200076976 0.457743038593063 0.44406448461162684
0.36638325300009456 0.457743038593063 0.44406448461162684
0.36657062000085716 0.4557889594528579 0.44699560332193444
0.3667669680007748 0.45676599902296044 0.44699560332193444
0.366954132000501 0.4557889594528579 0.4479726428920372
0.3671422220004388 0.45676599902296044 0.4450415241817294
0.367328885000461 0.4557889594528579 0.4450415241817294
0.36751654900035646 0.45481191988275516 0.4450415241817294
0.367735860000721 0.4557889594528579 0.44699560332193444
0.3679257090007013 0.45481191988275516 0.4460185637518319
0.3681132420006179 0.45481191988275516 0.4460185637518319
0.36830083200038644 0.4528578407425501 0.44211040547142155
0.3684876440001972 0.4528578407425501 0.44406448461162684
0.36867452900060016 0.45676599902296044 0.4430874450415241
0.3688618040005167 0.4538348803126526 0.44211040547142155
0.3690495600003487 0.4528578407425501 0.44406448461162684
0.36927335300060804 0.4528578407425501 0.44211040547142155
0.3694622390003133 0.4557889594528579 0.44211040547142155
0.369649494999976 0.44992672203224227 0.441133365901319
0.36983799200061185 0.4509037616023448 0.4382022471910112
0.37002937700071925 0.4509037616023448 0.43917928676111373
0.3702172260000225 0.4509037616023448 0.4382022471910112
0.37040468600025633 0.44992672203224227 0.43917928676111373
0.3705920900001729 0.45481191988275516 0.4401563263312165
0.3707788650008297 0.44894968246213973 0.4382022471910112
0.37096693600051367 0.45188080117244755 0.4401563263312165
0.37115726600040944 0.45188080117244755 0.441133365901319
0.37134594800045306 0.45188080117244755 0.4401563263312165
0.3715325010007291 0.4528578407425501 0.4382022471910112
0.37171936800041294 0.44992672203224227 0.43624816805080613
0.37190680900039297 0.4587200781631655 0.4323400097703958
0.3720941390001826 0.45188080117244755 0.431362970200293
0.37228154400054336 0.44992672203224227 0.42940889106008795
0.37246941100056574 0.44894968246213973 0.42745481191988266
0.37265768600082083 0.44992672203224227 0.4303859306301905
0.3728477930008012 0.4479726428920372 0.431362970200293
0.3730346610000197 0.44699560332193444 0.4333170493404983
0.3732223060005708 0.4460185637518319 0.43429408891060084
0.37344719100019574 0.45481191988275516 0.43722520762090866
0.37363559500045085 0.4479726428920372 0.441133365901319
0.373829740000474 0.44894968246213973 0.4460185637518319
0.37402640400068776 0.44699560332193444 0.44894968246213973
0.37423260400009895 0.4450415241817294 0.4538348803126526
0.3744330080007785 0.44699560332193444 0.4557889594528579
0.3746315420003157 0.44894968246213973 0.45969711773326827
0.3748442790001718 0.44699560332193444 0.46262823644357587
0.3750416460006818 0.4460185637518319 0.46165119687347334
0.3752311060006832 0.44699560332193444 0.4655593551538837
0.3754197510006634 0.4450415241817294 0.467513434294089
0.37560741400011466 0.4479726428920372 0.4704445530043966
0.3757948190004754 0.4450415241817294 0.4655593551538837
0.37598233400058234 0.44406448461162684 0.4636052760136786
0.37617066400071053 0.4450415241817294 0.4606741573033708
0.3763906610001868 0.4450415241817294 0.4587200781631655
0.3765835280000829 0.4460185637518319 0.4557889594528579
0.376771932000338 0.4430874450415241 0.45676599902296044
0.3769659839999804 0.4450415241817294 0.457743038593063
0.377165462999983 0.4430874450415241 0.45969711773326827
0.37742314300066937 0.44699560332193444 0.45969711773326827
0.37761510300060763 0.44992672203224227 0.4606741573033708
0.37780163700062985 0.44992672203224227 0.4636052760136786
0.37799011600054655 0.4479726428920372 0.46458231558378116
0.3781773160008015 0.45188080117244755 0.46262823644357587
0.3783648130001893 0.4460185637518319 0.46458231558378116
0.3785525140001482 0.44894968246213973 0.46165119687347334
0.3787399180000648 0.45188080117244755 0.4538348803126526
0.37892724800076394 0.44992672203224227 0.45188080117244755
0.3791142080008285 0.4479726428920372 0.44894968246213973
0.37930140900061815 0.44894968246213973 0.44894968246213973
0.3794883500004289 0.44894968246213973 0.44699560332193444
0.3796753100004935 0.44992672203224227 0.44894968246213973
0.37986915800047427 0.44894968246213973 0.44894968246213973
0.38005624800007354 0.4479726428920372 0.44992672203224227
0.38024344900077267 0.45188080117244755 0.45188080117244755
0.38043048200052 0.44894968246213973 0.4528578407425501
0.38061829400066927 0.44992672203224227 0.44992672203224227
0.38080519800041657 0.44894968246213973 0.45188080117244755
0.381000399000186 0.44894968246213973 0.4528578407425501
0.3811884140004622 0.45188080117244755 0.44992672203224227
0.38138178100052755 0.44992672203224227 0.44992672203224227
0.3815699080005288 0.44992672203224227 0.45188080117244755
0.3817571460003819 0.44894968246213973 0.45188080117244755
0.3819441610003196 0.44699560332193444 0.4528578407425501
0.38213189900034195 0.44894968246213973 0.4557889594528579
0.38231902500047 0.4479726428920372 0.4538348803126526
0.3825067070001751 0.44699560332193444 0.44992672203224227
0.38269359300011274 0.4479726428920372 0.4509037616023448
0.3828804790000504 0.44894968246213973 0.44894968246213973
0.38306736499998806 0.44992672203224227 0.44992672203224227
0.38325523200001044 0.4538348803126526 0.4509037616023448
0.3834428950003712 0.44992672203224227 0.4528578407425501
0.3836305030008589 0.4509037616023448 0.4557889594528579
0.38381792600011977 0.45188080117244755 0.45676599902296044
0.3840051270008189 0.4509037616023448 0.45676599902296044
0.3841922900001009 0.44992672203224227 0.45676599902296044
0.38438026900075783 0.44894968246213973 0.4587200781631655
0.38456659900020895 0.4509037616023448 0.45676599902296044
0.38475557700076024 0.44992672203224227 0.457743038593063
0.3849612590001925 0.4509037616023448 0.4587200781631655
0.38515755200023705 0.44992672203224227 0.4538348803126526
0.3854011220000757 0.4509037616023448 0.4538348803126526
0.38561576700067235 0.44992672203224227 0.45188080117244755
0.38580396700035635 0.44992672203224227 0.4479726428920372
0.38599296400025196 0.44894968246213973 0.44894968246213973
0.3861800350005069 0.44894968246213973 0.4460185637518319
0.38636736500029656 0.44992672203224227 0.44211040547142155
0.3865546400002131 0.4479726428920372 0.44211040547142155
0.38677597000059905 0.44699560332193444 0.4401563263312165
0.3869649850003043 0.44894968246213973 0.441133365901319
0.3871519080003054 0.4479726428920372 0.4401563263312165
0.3873382750007295 0.4450415241817294 0.441133365901319
0.3875250870005402 0.4450415241817294 0.441133365901319
0.3877121020004779 0.4479726428920372 0.44699560332193444
0.38789976600037335 0.4450415241817294 0.44406448461162684
0.3880911520000154 0.4450415241817294 0.4450415241817294
0.38828300000022864 0.44406448461162684 0.4479726428920372
0.3884863299999779 0.44699560332193444 0.4479726428920372
0.3886980860006588 0.44406448461162684 0.44992672203224227
0.38889823099998466 0.44406448461162684 0.44894968246213973
0.3891048570003477 0.45188080117244755 0.44992672203224227
0.38930590900054085 0.44699560332193444 0.4509037616023448
0.3895207390005453 0.4460185637518319 0.44992672203224227
0.38973447600073996 0.4460185637518319 0.45188080117244755
0.3899749720003456 0.4460185637518319 0.45676599902296044
0.39023526400069386 0.4460185637518319 0.45481191988275516
0.390498612000556 0.44699560332193444 0.4479726428920372
0.39072458900045604 0.44699560332193444 0.4479726428920372
0.3909257160003108 0.45188080117244755 0.44406448461162684
0.39112358300008054 0.44699560332193444 0.4382022471910112
0.39132167200023105 0.4460185637518319 0.43722520762090866
0.39151442800084624 0.44699560332193444 0.4333170493404983
0.39171362900015083 0.44406448461162684 0.431362970200293
0.39192882900078985 0.44406448461162684 0.4255007327796776
0.39215714000056323 0.44211040547142155 0.42452369320957506
0.3923772470006952 0.4430874450415241 0.42452369320957506
0.39265018700007204 0.4401563263312165 0.4264777723497801
0.39288873900022736 0.441133365901319 0.4303859306301905
0.3931189570002971 0.441133365901319 0.4352711284807034
0.39342378500077757 0.441133365901319 0.4382022471910112
0.39368974400076695 0.4460185637518319 0.4430874450415241
0.3939550730001429 0.44406448461162684 0.44406448461162684
0.3942261050005982 0.441133365901319 0.4450415241817294
0.3944256580007277 0.441133365901319 0.4450415241817294
0.394613914000729 0.44406448461162684 0.4460185637518319
0.3948862800007191 0.441133365901319 0.4460185637518319
0.39507981300084793 0.44211040547142155 0.4460185637518319
0.3952670329999819 0.44406448461162684 0.44211040547142155
0.3954543810004907 0.4401563263312165 0.44406448461162684
0.3956415630000265 0.4430874450415241 0.44406448461162684
0.39582857900040835 0.4430874450415241 0.44699560332193444
0.39601542800028255 0.4430874450415241 0.4450415241817294
0.39620249800009333 0.44211040547142155 0.44992672203224227
0.39638949500022136 0.4430874450415241 0.4528578407425501
0.39657652900041285 0.441133365901319 0.45188080117244755
0.3967634150003505 0.4401563263312165 0.4538348803126526
0.39695085600033053 0.44211040547142155 0.45676599902296044
0.3971381500005009 0.4430874450415241 0.45676599902296044
0.3973872010001287 0.44211040547142155 0.457743038593063
0.39757805000044755 0.4430874450415241 0.46165119687347334
0.3977658980002161 0.44211040547142155 0.46262823644357587
0.3979529320004076 0.4430874450415241 0.46458231558378116
0.39815413300038927 0.44211040547142155 0.4655593551538837
0.39834316700034833 0.4430874450415241 0.467513434294089
0.39853033000053983 0.44406448461162684 0.4665363947239862
0.39871745700020256 0.4401563263312165 0.47142159257449934
0.3989056760001404 0.44406448461162684 0.4704445530043966
0.3990927840004588 0.4450415241817294 0.46946751343429405
0.39928013300050225 0.4460185637518319 0.4665363947239862
0.3994666850003341 0.44211040547142155 0.4636052760136786
0.39965394099999685 0.44211040547142155 0.4606741573033708
0.39984053100033634 0.44211040547142155 0.457743038593063
0.40002667600037967 0.44211040547142155 0.45676599902296044
0.4002141170003597 0.44894968246213973 0.457743038593063
0.400401614000657 0.44211040547142155 0.4557889594528579
0.4005885370006581 0.441133365901319 0.45969711773326827
0.40077533000021504 0.44406448461162684 0.46458231558378116
0.4009626050001316 0.4430874450415241 0.46165119687347334
0.4011495830000058 0.44211040547142155 0.4606741573033708
0.40135304300019925 0.441133365901319 0.46165119687347334
0.401540262000708 0.44211040547142155 0.45969711773326827
0.4017276660006246 0.441133365901319 0.46165119687347334
0.40191557000071043 0.441133365901319 0.46165119687347334
0.40210223400026734 0.44211040547142155 0.4606741573033708
0.4022900830004801 0.4401563263312165 0.4606741573033708
0.4024771910007985 0.4430874450415241 0.4587200781631655
0.40267591000065295 0.44406448461162684 0.457743038593063
0.40287874000023294 0.44992672203224227 0.45969711773326827
0.40306599600080517 0.4430874450415241 0.457743038593063
0.4032527330000448 0.4460185637518319 0.45188080117244755
0.40343993400074396 0.44211040547142155 0.4538348803126526
0.4036270050000894 0.44406448461162684 0.44992672203224227
0.40381439100019634 0.44406448461162684 0.44894968246213973
0.4040015910004513 0.4430874450415241 0.44699560332193444
0.4041884210000717 0.4460185637518319 0.44894968246213973
0.40437512200060155 0.4450415241817294 0.4460185637518319
0.4045674520002649 0.4430874450415241 0.4509037616023448
0.40475402300035057 0.4460185637518319 0.4460185637518319
0.40494077900075354 0.4430874450415241 0.44406448461162684
0.4051279980003528 0.44406448461162684 0.44406448461162684
0.4053391620000184 0.4450415241817294 0.44406448461162684
0.40553012100008345 0.44406448461162684 0.441133365901319
0.40571858100065583 0.4450415241817294 0.441133365901319
0.40590824500031886 0.44406448461162684 0.4401563263312165
0.40609975999996095 0.44406448461162684 0.441133365901319
0.4062920160004069 0.44406448461162684 0.44699560332193444
0.4064872720000494 0.4450415241817294 0.44406448461162684
0.4066992130001381 0.4430874450415241 0.44699560332193444
0.4068957839999712 0.44211040547142155 0.4528578407425501
0.40710459500041907 0.44699560332193444 0.4528578407425501
0.4073125920003804 0.441133365901319 0.45481191988275516
0.40750914399995963 0.44211040547142155 0.4538348803126526
0.4076978450002571 0.4430874450415241 0.4528578407425501
0.407885231000364 0.44211040547142155 0.44894968246213973
0.4080728570006613 0.44211040547142155 0.4450415241817294
0.408259743000599 0.4430874450415241 0.43917928676111373
0.40845136900043144 0.441133365901319 0.43917928676111373
0.4086408480006867 0.441133365901319 0.43722520762090866
0.40882853000039177 0.4401563263312165 0.43429408891060084
0.4090164900007949 0.44699560332193444 0.4303859306301905
0.4092039120005211 0.43722520762090866 0.4303859306301905
0.40941065000060917 0.4382022471910112 0.4303859306301905
0.4095987390001028 0.441133365901319 0.4284318514899854
0.4097867730006328 0.44406448461162684 0.431362970200293
0.409973937000359 0.4401563263312165 0.4323400097703958
0.4101611559999583 0.441133365901319 0.4352711284807034
0.41034824500002287 0.4450415241817294 0.4382022471910112
0.4105353720005951 0.44406448461162684 0.43917928676111373
0.41073427600076684 0.44211040547142155 0.4401563263312165
