0 0.45188080117244755 0.4450415241817294
0.00040527100009057904 0.44894968246213973 0.4401563263312165
0.00061869400087744 0.44894968246213973 0.43722520762090866
0.0008193390003725654 0.4479726428920372 0.43624816805080613
0.0010489650003364659 0.44699560332193444 0.4323400097703958
0.0012560910008687642 0.4479726428920372 0.4323400097703958
0.001450180000574619 0.44992672203224227 0.43429408891060084
0.0016407510001954506 0.44992672203224227 0.431362970200293
0.0018305070007045288 0.44992672203224227 0.43429408891060084
0.002021281999986968 0.4557889594528579 0.4333170493404983
0.0022136310008136206 0.44894968246213973 0.43429408891060084
0.002403553000476677 0.44992672203224227 0.4352711284807034
0.0025920500002030167 0.4509037616023448 0.4333170493404983
0.002780732000246644 0.44992672203224227 0.4382022471910112
0.0029685630006497377 0.44992672203224227 0.4382022471910112
0.0031558000000586617 0.45188080117244755 0.4401563263312165
0.003393333000531129 0.4479726428920372 0.441133365901319
0.003590312000596896 0.44894968246213973 0.44211040547142155
0.003781642000831198 0.4460185637518319 0.4430874450415241
0.003991342000517761 0.4479726428920372 0.4430874450415241
0.004187746000752668 0.4460185637518319 0.4430874450415241
0.0043850760002897005 0.44699560332193444 0.4479726428920372
0.004589017000398599 0.4460185637518319 0.44894968246213973
0.004789699000866676 0.45188080117244755 0.44992672203224227
0.0049886960005096626 0.4479726428920372 0.44992672203224227
0.005184878000363824 0.4509037616023448 0.4538348803126526
0.005390486000578676 0.44992672203224227 0.45188080117244755
0.005591482000454562 0.44699560332193444 0.45188080117244755
0.005789238000033947 0.44699560332193444 0.4450415241817294
0.0059895310005231295 0.4479726428920372 0.43917928676111373
0.006192361000103119 0.44406448461162684 0.43624816805080613
0.00638800600063405 0.44699560332193444 0.4323400097703958
0.0065813920000437065 0.44406448461162684 0.4284318514899854
0.006775648000257206 0.44406448461162684 0.4284318514899854
0.0069658850006817374 0.44992672203224227 0.4303859306301905
0.007153419000132999 0.44894968246213973 0.4284318514899854
0.007363027000792499 0.4509037616023448 0.4284318514899854
0.0075542829999903915 0.4509037616023448 0.4264777723497801
0.007741854000414605 0.4509037616023448 0.42256961406936977
0.007929684000373527 0.44992672203224227 0.4206155349291647
0.008117033000416995 0.44992672203224227 0.42256961406936977
0.008322067000335664 0.4479726428920372 0.4264777723497801
0.00851223000063328 0.44992672203224227 0.43429408891060084
0.008699561000867106 0.45188080117244755 0.4401563263312165
0.008887132000381825 0.4528578407425501 0.44894968246213973
0.00907451700004458 0.4538348803126526 0.4538348803126526
0.009263107000151649 0.45481191988275516 0.4587200781631655
0.009458085000005667 0.4538348803126526 0.45676599902296044
0.009652675000324962 0.45188080117244755 0.4606741573033708
0.009840653000537714 0.4509037616023448 0.4606741573033708
0.010028465000686992 0.45188080117244755 0.46262823644357587
0.010216147000392084 0.44894968246213973 0.4606741573033708
0.010403199000393215 0.4509037616023448 0.46165119687347334
0.010591437000584847 0.44894968246213973 0.4606741573033708
0.010778434000712878 0.4479726428920372 0.45676599902296044
0.010965801000565989 0.44699560332193444 0.45969711773326827
0.011152519999996002 0.4460185637518319 0.46262823644357587
0.011362146000465145 0.44699560332193444 0.4665363947239862
0.011555421000593924 0.4460185637518319 0.47239863214460187
0.0117430290001721 0.4450415241817294 0.4782608695652173
0.011930193000807776 0.4479726428920372 0.4831460674157304
0.012117930000385968 0.44699560332193444 0.48705422569614076
0.012305335000746709 0.44992672203224227 0.4851001465559355
0.0124930720003249 0.44894968246213973 0.48216902784562765
0.012682828000833979 0.4509037616023448 0.47923790913532005
0.012873528999989503 0.45188080117244755 0.47435271128480694
0.013061267000011867 0.45676599902296044 0.47239863214460187
0.013248134000605205 0.4528578407425501 0.46946751343429405
0.013435149000542879 0.4528578407425501 0.46946751343429405
0.013621349999993981 0.4538348803126526 0.4636052760136786
0.013807810000798781 0.4538348803126526 0.4655593551538837
0.01399445500010188 0.4528578407425501 0.4606741573033708
0.014181174000441388 0.4528578407425501 0.457743038593063
0.014367930000844353 0.4528578407425501 0.45188080117244755
0.01455461200021091 0.45481191988275516 0.4528578407425501
0.014742109000508208 0.45188080117244755 0.4557889594528579
0.01493019900044601 0.45188080117244755 0.44992672203224227
0.015119196000341617 0.44894968246213973 0.44992672203224227
0.015306155000871513 0.4509037616023448 0.45481191988275516
0.01550598500034539 0.4538348803126526 0.45676599902296044
0.015692705000219576 0.4479726428920372 0.46262823644357587
0.015879239000241796 0.44992672203224227 0.4665363947239862
0.016065698000602424 0.45188080117244755 0.467513434294089
0.016252436000286252 0.4509037616023448 0.47142159257449934
0.016439433000414283 0.45188080117244755 0.4704445530043966
0.01662591100011923 0.4509037616023448 0.4684904738641915
0.016813186000035785 0.4509037616023448 0.47142159257449934
0.01699973900031182 0.4557889594528579 0.46946751343429405
0.017187328000545676 0.45481191988275516 0.4704445530043966
0.01737506600056804 0.45676599902296044 0.45969711773326827
0.017562489000738424 0.4538348803126526 0.4587200781631655
0.017753930000253604 0.45481191988275516 0.45969711773326827
0.017942408000635623 0.4538348803126526 0.4587200781631655
0.01813129400034086 0.4528578407425501 0.45481191988275516
0.018318939000891987 0.44894968246213973 0.4538348803126526
0.018507121000766347 0.4479726428920372 0.45188080117244755
0.018694192000111798 0.44699560332193444 0.44894968246213973
0.01888143000087439 0.44992672203224227 0.4430874450415241
0.019068834000790957 0.44992672203224227 0.44699560332193444
0.019256701000813337 0.4528578407425501 0.44211040547142155
0.01946264200068981 0.4509037616023448 0.44406448461162684
0.01966201000050205 0.44992672203224227 0.441133365901319
0.01985158100069384 0.4538348803126526 0.44894968246213973
0.020039318000272033 0.45188080117244755 0.44406448461162684
0.020226926000759704 0.4538348803126526 0.4450415241817294
0.020414664000782068 0.45481191988275516 0.44894968246213973
0.020604383000318194 0.4538348803126526 0.45188080117244755
0.02079563900042558 0.457743038593063 0.45188080117244755
0.02098526600002515 0.45481191988275516 0.4509037616023448
0.021173874000851356 0.45481191988275516 0.4509037616023448
0.02138059200024145 0.4557889594528579 0.45188080117244755
0.021567700000559853 0.4587200781631655 0.45188080117244755
0.02175479000015912 0.4538348803126526 0.45676599902296044
0.021942361000583332 0.4538348803126526 0.457743038593063
0.022130636000838422 0.4528578407425501 0.45676599902296044
0.02231757700064918 0.4538348803126526 0.4587200781631655
0.02250607400037552 0.4528578407425501 0.4587200781631655
0.02269610800067312 0.4557889594528579 0.45969711773326827
0.022883179000018572 0.45188080117244755 0.4528578407425501
0.02306995300023118 0.44894968246213973 0.45188080117244755
0.023256691000824503 0.4509037616023448 0.4479726428920372
0.023470262000046205 0.44992672203224227 0.44699560332193444
0.0236637210000481 0.4538348803126526 0.44699560332193444
0.023856052000155614 0.4479726428920372 0.4450415241817294
0.02404653000030521 0.44992672203224227 0.4479726428920372
0.024237323000306787 0.44894968246213973 0.44992672203224227
0.024428061000435264 0.44699560332193444 0.4509037616023448
0.024618261000796338 0.44894968246213973 0.45188080117244755
0.02481923900086258 0.44992672203224227 0.4509037616023448
0.02501079200010281 0.4479726428920372 0.4538348803126526
0.02520404800088727 0.44894968246213973 0.45188080117244755
0.0253946190005081 0.44894968246213973 0.4557889594528579
0.025585912000678945 0.44699560332193444 0.4557889594528579
0.025793705000069167 0.44894968246213973 0.4538348803126526
0.025984239000536036 0.44894968246213973 0.4538348803126526
0.026175365000199236 0.45188080117244755 0.45481191988275516
0.02636573200015846 0.4509037616023448 0.4538348803126526
0.026557396000498557 0.4509037616023448 0.45188080117244755
0.02674854100041557 0.4509037616023448 0.4460185637518319
0.026939278000099875 0.4450415241817294 0.4430874450415241
0.027131646000270848 0.44699560332193444 0.441133365901319
0.027335161000337393 0.44992672203224227 0.4382022471910112
0.027530824000677967 0.44699560332193444 0.4382022471910112
0.027721840000594966 0.4450415241817294 0.44406448461162684
0.027913577000617806 0.4460185637518319 0.44406448461162684
0.028104482000344433 0.4430874450415241 0.44406448461162684
0.028294589000324777 0.4450415241817294 0.4450415241817294
0.028485086000728188 0.44406448461162684 0.4460185637518319
0.02867543500087777 0.44406448461162684 0.4479726428920372
0.02886780200060457 0.44211040547142155 0.4479726428920372
0.029059225000310107 0.441133365901319 0.44894968246213973
0.02925037000022712 0.44406448461162684 0.43917928676111373
0.029441256000609428 0.44406448461162684 0.43624816805080613
0.02963182700023026 0.44699560332193444 0.4323400097703958
0.029822435000824044 0.4450415241817294 0.4303859306301905
0.0300135430006776 0.44992672203224227 0.42745481191988266
0.03020450200074265 0.44992672203224227 0.4255007327796776
0.03039520300080767 0.45188080117244755 0.4235466536394723
0.030586348000724684 0.44894968246213973 0.42159257449926724
0.030776567000430077 0.44992672203224227 0.4255007327796776
0.030968323000706732 0.44992672203224227 0.42256961406936977
0.0311586530006025 0.44894968246213973 0.42745481191988266
0.031350724000731134 0.45481191988275516 0.42940889106008795
0.03154140600054234 0.45188080117244755 0.4323400097703958
0.031731496000247716 0.4528578407425501 0.4352711284807034
0.03192251100063004 0.45188080117244755 0.43917928676111373
0.032113008000123955 0.4528578407425501 0.4401563263312165
0.032303412000146636 0.45188080117244755 0.44211040547142155
0.03249329800019041 0.44992672203224227 0.441133365901319
0.03268342500086874 0.4509037616023448 0.44406448461162684
0.0328748470001301 0.4479726428920372 0.45188080117244755
0.03306543700000475 0.4509037616023448 0.4460185637518319
0.03325769300045067 0.45481191988275516 0.44992672203224227
0.03344926400041004 0.45188080117244755 0.4528578407425501
0.033667723000689875 0.4538348803126526 0.4557889594528579
0.03386796100039646 0.4557889594528579 0.46165119687347334
0.03405908700005966 0.4557889594528579 0.46165119687347334
0.034250214000167034 0.4557889594528579 0.46458231558378116
0.034440673000062816 0.45676599902296044 0.4665363947239862
0.03463146600006439 0.45676599902296044 0.467513434294089
0.03482255600010831 0.4557889594528579 0.4684904738641915
0.03501284900085011 0.45676599902296044 0.46165119687347334
0.03520380900044984 0.45676599902296044 0.46262823644357587
0.03539482400083216 0.44894968246213973 0.4538348803126526
0.03558569200049533 0.4450415241817294 0.4509037616023448
0.035776688000623835 0.44992672203224227 0.44992672203224227
0.035968019000392815 0.44699560332193444 0.4509037616023448
0.03615899700071168 0.4450415241817294 0.457743038593063
0.036349642000459426 0.4460185637518319 0.4557889594528579
0.03653997200035519 0.4479726428920372 0.4557889594528579
0.03673030200025096 0.45188080117244755 0.4587200781631655
0.03692083600071783 0.4509037616023448 0.46165119687347334
0.03711111100074049 0.4509037616023448 0.46946751343429405
0.03731320000042615 0.4557889594528579 0.46946751343429405
0.0375108630005343 0.4538348803126526 0.4733756717147044
0.03771106400017743 0.457743038593063 0.4763067904250122
0.03792180100026599 0.46262823644357587 0.4782608695652173
0.038118631000543246 0.4587200781631655 0.4802149487054226
0.03832746100033546 0.46165119687347334 0.4831460674157304
0.03852321700014727 0.45969711773326827 0.4811919882755251
0.03871467700082576 0.46165119687347334 0.4753297508549097
0.03890715500074293 0.45969711773326827 0.47239863214460187
0.03909885600023699 0.4587200781631655 0.4733756717147044
0.039289056000598066 0.4538348803126526 0.46946751343429405
0.03948516400032531 0.4538348803126526 0.467513434294089
0.03969073500047671 0.4557889594528579 0.4655593551538837
0.039884232000076736 0.4538348803126526 0.45969711773326827
0.040076692000184266 0.45188080117244755 0.45481191988275516
0.04026707700086263 0.45188080117244755 0.4538348803126526
0.04045775900067383 0.4538348803126526 0.4509037616023448
0.04064923800069664 0.4557889594528579 0.44894968246213973
0.04083964200071932 0.4509037616023448 0.4450415241817294
0.04103163900072104 0.45188080117244755 0.4450415241817294
0.04122145000019373 0.45481191988275516 0.4430874450415241
0.04141378100030124 0.44894968246213973 0.4450415241817294
0.04161740700055816 0.45188080117244755 0.441133365901319
0.041819441000370716 0.44699560332193444 0.4401563263312165
0.042010660000414646 0.44894968246213973 0.441133365901319
0.042224101000101655 0.4538348803126526 0.441133365901319
0.04241554200052633 0.45188080117244755 0.441133365901319
0.042606594000062614 0.4509037616023448 0.43917928676111373
0.042797184000846755 0.4528578407425501 0.4430874450415241
0.042986977000509796 0.4509037616023448 0.4430874450415241
0.043176752000363194 0.4479726428920372 0.43917928676111373
0.04336947100000543 0.4509037616023448 0.4382022471910112
0.04356004200053576 0.44894968246213973 0.43917928676111373
0.043751242000325874 0.44699560332193444 0.43624816805080613
0.04394268300075055 0.4479726428920372 0.4352711284807034
0.04413360600028682 0.4450415241817294 0.4333170493404983
0.044327844000690675 0.44406448461162684 0.4333170493404983
0.044518304000121134 0.44406448461162684 0.4401563263312165
0.04471011500027089 0.44406448461162684 0.4352711284807034
0.04490089000046282 0.441133365901319 0.4303859306301905
0.04509492400029558 0.441133365901319 0.431362970200293
0.04528677200050879 0.44211040547142155 0.4303859306301905
0.045477454000319995 0.44406448461162684 0.4323400097703958
0.045667896000850305 0.44699560332193444 0.42745481191988266
0.045858244000555715 0.44699560332193444 0.42940889106008795
0.04606064800009335 0.44699560332193444 0.42940889106008795
0.04625107100036985 0.4479726428920372 0.4323400097703958
0.046442420000857965 0.4479726428920372 0.4303859306301905
0.04663295400041534 0.44699560332193444 0.42940889106008795
0.04682408000007854 0.44992672203224227 0.43429408891060084
0.04701407700031268 0.4479726428920372 0.43722520762090866
0.047204555999996956 0.44894968246213973 0.4430874450415241
0.04739527500078111 0.44992672203224227 0.441133365901319
0.04758582700014813 0.4538348803126526 0.43917928676111373
0.04777747200023441 0.4479726428920372 0.4430874450415241
0.04796795000038401 0.44992672203224227 0.441133365901319
0.04815870600032213 0.44894968246213973 0.4382022471910112
0.04834866600049281 0.45188080117244755 0.43917928676111373
0.04853936700055783 0.4460185637518319 0.43624816805080613
0.04872979000083433 0.4479726428920372 0.4382022471910112
0.048920638000709005 0.45676599902296044 0.4430874450415241
0.049111006000202906 0.4528578407425501 0.4450415241817294
0.04930839100052253 0.45188080117244755 0.4538348803126526
0.04949964700062992 0.4528578407425501 0.4606741573033708
0.04969014400012384 0.45481191988275516 0.46262823644357587
0.04988066000078106 0.4509037616023448 0.4636052760136786
0.05007210100029624 0.4538348803126526 0.467513434294089
0.050264301000424894 0.4557889594528579 0.4636052760136786
0.05046850200051267 0.45676599902296044 0.4655593551538837
0.0506595169999855 0.45188080117244755 0.4636052760136786
0.050849532000029285 0.4528578407425501 0.4587200781631655
0.051040233000094304 0.44992672203224227 0.45676599902296044
0.051230730000497715 0.45188080117244755 0.4538348803126526
0.051443041000311496 0.45188080117244755 0.4528578407425501
0.05163350100065145 0.4538348803126526 0.4538348803126526
0.051824312999997346 0.4538348803126526 0.44894968246213973
0.05201718000080291 0.45481191988275516 0.44992672203224227
0.05220889900010661 0.4538348803126526 0.4509037616023448
0.05239989600067929 0.4528578407425501 0.45188080117244755
0.05259055900023668 0.45188080117244755 0.45188080117244755
0.05278122300023824 0.45188080117244755 0.44894968246213973
0.05297222000081092 0.4509037616023448 0.44992672203224227
0.053162494000389415 0.44699560332193444 0.4509037616023448
0.053352473000813916 0.44894968246213973 0.45188080117244755
0.053542618000392395 0.457743038593063 0.45188080117244755
0.05373298500035162 0.45188080117244755 0.4509037616023448
0.05392670400033239 0.4528578407425501 0.4557889594528579
0.05411782999999559 0.4538348803126526 0.4587200781631655
0.05430819800039899 0.45676599902296044 0.45676599902296044
0.05449862000023131 0.4528578407425501 0.457743038593063
0.054688821000127064 0.45188080117244755 0.45188080117244755
0.05487867000010738 0.4509037616023448 0.44992672203224227
0.05506887000046845 0.4538348803126526 0.44406448461162684
0.05525914500049112 0.4509037616023448 0.43722520762090866
0.0554513830002179 0.4509037616023448 0.43624816805080613
0.055642083000748244 0.4538348803126526 0.431362970200293
0.05583232100070745 0.4509037616023448 0.4284318514899854
0.05602287300007447 0.4509037616023448 0.431362970200293
0.0562128510000548 0.4509037616023448 0.43624816805080613
0.05640260800009855 0.4509037616023448 0.4352711284807034
0.056592993000776914 0.44992672203224227 0.44406448461162684
0.05678267500024958 0.44992672203224227 0.4450415241817294
0.05697254300048371 0.4528578407425501 0.4460185637518319
0.05716339100035839 0.44992672203224227 0.4538348803126526
0.05735307300074055 0.45188080117244755 0.44992672203224227
0.05754388500008645 0.4528578407425501 0.4509037616023448
0.057734678000088024 0.44992672203224227 0.457743038593063
0.05792423100047017 0.4528578407425501 0.4665363947239862
0.05811457900017558 0.4538348803126526 0.4753297508549097
0.058315150000453286 0.4538348803126526 0.486077186126038
0.058515276000434824 0.4528578407425501 0.495847581827064
0.05870642100035184 0.4528578407425501 0.4929164631167562
0.05889717800073413 0.4557889594528579 0.4978016609672691
0.059087452000312624 0.4557889594528579 0.4948705422569615
0.05927850500029308 0.4587200781631655 0.48900830483634583
0.05946909400063305 0.4557889594528579 0.4851001465559355
0.05966081300084625 0.4538348803126526 0.4665363947239862
0.06021924800006673 0.4528578407425501 0.4655593551538837
0.06041470800028037 0.4538348803126526 0.4606741573033708
0.06060620500011282 0.45481191988275516 0.45969711773326827
0.060797313000875874 0.4528578407425501 0.45676599902296044
0.060988088000158314 0.4509037616023448 0.45676599902296044
0.06117850999999064 0.4528578407425501 0.4587200781631655
0.061368841000330576 0.45188080117244755 0.45676599902296044
0.061559337000289815 0.45481191988275516 0.4606741573033708
0.06175075999999535 0.45188080117244755 0.45969711773326827
0.06194146100006037 0.4538348803126526 0.45969711773326827
0.06213158700029453 0.44992672203224227 0.457743038593063
0.06232378800086735 0.44992672203224227 0.45188080117244755
0.06251472900021326 0.4528578407425501 0.45188080117244755
0.06270567000046867 0.4538348803126526 0.4538348803126526
0.06289770400053385 0.45188080117244755 0.4509037616023448
0.06308862700007012 0.4509037616023448 0.44894968246213973
0.06328012400081207 0.44992672203224227 0.44894968246213973
0.06347313900005247 0.44992672203224227 0.4528578407425501
0.06366491400058294 0.4479726428920372 0.45188080117244755
0.0638556880003307 0.45188080117244755 0.45676599902296044
0.06404596300035337 0.4479726428920372 0.4587200781631655
0.06423684900073567 0.44894968246213973 0.4587200781631655
0.06442719800088526 0.44894968246213973 0.4665363947239862
0.06461730600040028 0.44894968246213973 0.4606741573033708
0.06480730200019025 0.44894968246213973 0.46165119687347334
0.06499792900012835 0.4450415241817294 0.45969711773326827
0.06518896300076449 0.44699560332193444 0.457743038593063
0.06537927400040644 0.4460185637518319 0.45481191988275516
0.0655705860008311 0.4450415241817294 0.44699560332193444
0.06576115700045193 0.44699560332193444 0.4479726428920372
0.06595274600022094 0.4479726428920372 0.44894968246213973
0.06614370600073016 0.4450415241817294 0.4430874450415241
0.06633411100028752 0.44699560332193444 0.44211040547142155
0.06652420000045822 0.44406448461162684 0.44211040547142155
0.06671516000005795 0.4479726428920372 0.4401563263312165
0.06691713800046273 0.4450415241817294 0.4382022471910112
0.06710969000050682 0.44894968246213973 0.43722520762090866
0.06730028000038146 0.4479726428920372 0.43917928676111373
0.06749161000061576 0.4460185637518319 0.4382022471910112
0.06768242200087116 0.4479726428920372 0.43624816805080613
0.06787262200032274 0.4528578407425501 0.43722520762090866
0.06806300800053577 0.44699560332193444 0.4352711284807034
0.06825389400000859 0.44992672203224227 0.4401563263312165
0.06846116800079471 0.4509037616023448 0.43917928676111373
0.06869808999999805 0.44992672203224227 0.43429408891060084
0.06894525300049281 0.4479726428920372 0.4382022471910112
0.06918176700037293 0.4479726428920372 0.4401563263312165
0.06941031900078087 0.44992672203224227 0.43722520762090866
0.06965727800070454 0.45188080117244755 0.43917928676111373
0.069874589000392 0.45188080117244755 0.441133365901319
0.07007432700083882 0.45188080117244755 0.441133365901319
0.07027321200075676 0.4509037616023448 0.4382022471910112
0.07048767200012662 0.4528578407425501 0.43917928676111373
0.07068740900012926 0.4538348803126526 0.4382022471910112
0.0708923500005767 0.4538348803126526 0.441133365901319
0.07110360600017884 0.45481191988275516 0.4352711284807034
0.07130915800007642 0.4509037616023448 0.4352711284807034
0.07154802500008373 0.4528578407425501 0.4352711284807034
0.07175668800027779 0.4557889594528579 0.43624816805080613
0.07196635100081039 0.45481191988275516 0.43624816805080613
0.07218501400075183 0.45481191988275516 0.4401563263312165
0.07242826900073851 0.44992672203224227 0.44406448461162684
0.07266935799998464 0.45188080117244755 0.4479726428920372
0.0729192980006701 0.45188080117244755 0.44992672203224227
0.07313979500031564 0.4528578407425501 0.44894968246213973
0.07334518000061507 0.4538348803126526 0.44992672203224227
0.07358088000000862 0.4538348803126526 0.44992672203224227
0.07380537600056414 0.45481191988275516 0.4538348803126526
0.0740044290005244 0.45481191988275516 0.44992672203224227
0.07419912900058989 0.4538348803126526 0.45676599902296044
0.07439471800080355 0.4557889594528579 0.44992672203224227
0.0745869930005938 0.4538348803126526 0.4460185637518319
0.0747824900008709 0.45481191988275516 0.44699560332193444
0.0749848010000278 0.457743038593063 0.4460185637518319
0.07518474200060155 0.4528578407425501 0.441133365901319
0.07538572100020247 0.45188080117244755 0.43624816805080613
0.07559184700039623 0.44992672203224227 0.4352711284807034
0.07580101000075956 0.45188080117244755 0.4401563263312165
0.07602146900080697 0.45188080117244755 0.4401563263312165
0.07623352100017655 0.4528578407425501 0.4382022471910112
0.0764732030002051 0.4528578407425501 0.4382022471910112
0.07670342100027483 0.44992672203224227 0.44211040547142155
0.0769495470003676 0.4509037616023448 0.44406448461162684
0.07720554200022889 0.45188080117244755 0.4460185637518319
0.07746433500051353 0.45188080117244755 0.45969711773326827
0.07768297900020116 0.45188080117244755 0.4606741573033708
0.07789240200054337 0.4538348803126526 0.46458231558378116
0.07812089800063404 0.45481191988275516 0.4655593551538837
0.0783380050006599 0.44992672203224227 0.4655593551538837
0.07854137200047262 0.4528578407425501 0.46458231558378116
0.07874299900049664 0.4528578407425501 0.46458231558378116
0.07894562500041502 0.45188080117244755 0.45969711773326827
0.0791507880003337 0.4479726428920372 0.4606741573033708
0.07936563700059196 0.45188080117244755 0.45676599902296044
0.07957713300038449 0.44894968246213973 0.4557889594528579
0.07984448000024713 0.44894968246213973 0.4636052760136786
0.08005253300052573 0.44894968246213973 0.467513434294089
0.08025493700006336 0.4509037616023448 0.46946751343429405
0.08045652600048925 0.4460185637518319 0.47239863214460187
0.0806550410006821 0.4450415241817294 0.47435271128480694
0.08085372300047311 0.4430874450415241 0.4763067904250122
0.08106409000083659 0.44406448461162684 0.47435271128480694
0.0812655130002895 0.4450415241817294 0.4802149487054226
0.08146336100071494 0.44406448461162684 0.47728382999511476
0.08166506200086587 0.4450415241817294 0.47239863214460187
0.08186205800029711 0.4450415241817294 0.4763067904250122
0.0820680180004274 0.4450415241817294 0.47728382999511476
0.08227042200087453 0.4430874450415241 0.4802149487054226
0.0824824000001172 0.4450415241817294 0.4763067904250122
0.0826855630002683 0.4430874450415241 0.4733756717147044
0.08288670800084219 0.4450415241817294 0.46458231558378116
0.08308979700086638 0.44406448461162684 0.46262823644357587
0.08330360900072264 0.4430874450415241 0.45481191988275516
0.08359864100020786 0.4450415241817294 0.4509037616023448
0.08382830400023522 0.441133365901319 0.44894968246213973
0.08403983700009121 0.44894968246213973 0.441133365901319
0.0842457970002215 0.441133365901319 0.43917928676111373
0.0844584410006064 0.4460185637518319 0.43722520762090866
0.08466375300031359 0.44699560332193444 0.4323400097703958
0.08492045200000575 0.44699560332193444 0.4323400097703958
0.08516300400060572 0.44699560332193444 0.4323400097703958
0.08540170400010538 0.4479726428920372 0.4323400097703958
0.08560677400055283 0.4479726428920372 0.42940889106008795
0.08579791900046985 0.4450415241817294 0.42940889106008795
0.08598819400049251 0.4479726428920372 0.4333170493404983
0.08617893200062099 0.44699560332193444 0.43429408891060084
0.0863726690004114 0.44406448461162684 0.43624816805080613
0.08656359200085717 0.4479726428920372 0.4352711284807034
0.08675451500039344 0.4430874450415241 0.4382022471910112
0.08694556700083922 0.4479726428920372 0.43429408891060084
0.08713691600041784 0.4430874450415241 0.43429408891060084
0.08738267100034136 0.4430874450415241 0.431362970200293
0.08757914900070318 0.44699560332193444 0.4323400097703958
0.08777073900000687 0.44894968246213973 0.4303859306301905
0.08796173600057955 0.44699560332193444 0.4303859306301905
0.08815217700066569 0.44699560332193444 0.43429408891060084
0.08834260000003269 0.4479726428920372 0.4382022471910112
0.08853261500007648 0.44992672203224227 0.4382022471910112
0.08872340800007805 0.45188080117244755 0.4450415241817294
0.0889167940003972 0.4538348803126526 0.4528578407425501
0.08911942000031559 0.44894968246213973 0.46262823644357587
0.08933563900063746 0.4528578407425501 0.4684904738641915
0.08955980200062186 0.4538348803126526 0.4782608695652173
0.08981116800077871 0.44894968246213973 0.47728382999511476
0.09003114600000117 0.44992672203224227 0.47239863214460187
0.09025029000076756 0.44992672203224227 0.4655593551538837
0.09047636100058298 0.44699560332193444 0.46262823644357587
0.09071039400078007 0.45188080117244755 0.457743038593063
0.09095742700083065 0.45188080117244755 0.45969711773326827
0.09120579300088139 0.4479726428920372 0.46262823644357587
0.09156597200035321 0.4479726428920372 0.46458231558378116
0.09184672700030205 0.44894968246213973 0.46458231558378116
0.09209270400060632 0.44699560332193444 0.4587200781631655
0.09234270000069955 0.45188080117244755 0.44894968246213973
0.09262362200024654 0.44894968246213973 0.44699560332193444
0.0928957280002578 0.44211040547142155 0.4460185637518319
0.09312859500005288 0.4479726428920372 0.4509037616023448
0.09333986900037416 0.4460185637518319 0.4528578407425501
0.0935573660008231 0.4479726428920372 0.4538348803126526
0.09376193600019178 0.44894968246213973 0.4557889594528579
0.09396335900055419 0.4460185637518319 0.4636052760136786
0.09416176300055668 0.4479726428920372 0.4606741573033708
0.09436776000075042 0.44699560332193444 0.46262823644357587
0.09460075600054552 0.44699560332193444 0.4665363947239862
0.09480556700054876 0.44992672203224227 0.46262823644357587
0.09501423000074283 0.44894968246213973 0.46262823644357587
0.09521137500087207 0.4479726428920372 0.46262823644357587
0.09545831600007659 0.44894968246213973 0.457743038593063
0.09566377500050294 0.4479726428920372 0.4606741573033708
0.0958673090008233 0.44992672203224227 0.457743038593063
0.09607225000036124 0.44699560332193444 0.4557889594528579
0.09627898700000515 0.4450415241817294 0.4479726428920372
0.09651974300049915 0.44699560332193444 0.4382022471910112
0.09679916400000366 0.4460185637518319 0.4303859306301905
0.09702516000015748 0.4460185637518319 0.431362970200293
0.09723089800081652 0.44894968246213973 0.4303859306301905
0.09743574600088323 0.4450415241817294 0.42940889106008795
0.09764189100042131 0.4460185637518319 0.42940889106008795
0.09783840600084659 0.4460185637518319 0.4284318514899854
0.09803034700053104 0.4538348803126526 0.44211040547142155
0.09822241800065967 0.44992672203224227 0.43624816805080613
0.0984136370007036 0.44992672203224227 0.4382022471910112
0.09860989300068468 0.44699560332193444 0.4430874450415241
0.09883701900071173 0.4479726428920372 0.44894968246213973
0.09902810900075565 0.4450415241817294 0.4460185637518319
0.09921890200075723 0.44992672203224227 0.45188080117244755
0.09944697200080554 0.4450415241817294 0.4557889594528579
0.09963928400065925 0.4509037616023448 0.46262823644357587
0.09983020700019551 0.44992672203224227 0.46946751343429405
0.10002111100038746 0.44894968246213973 0.47142159257449934
0.10021221900024102 0.45188080117244755 0.4802149487054226
0.10040377100085607 0.45481191988275516 0.47923790913532005
0.10059523100062506 0.45481191988275516 0.486077186126038
0.10078635700028826 0.45188080117244755 0.486077186126038
0.10098024300077668 0.44992672203224227 0.4811919882755251
0.10117064700079936 0.457743038593063 0.4782608695652173
0.10136301500006084 0.45676599902296044 0.46946751343429405
0.10155371500059118 0.45188080117244755 0.4655593551538837
0.10174647100029688 0.4538348803126526 0.45676599902296044
0.10193789400000242 0.44992672203224227 0.45481191988275516
0.10213133500019467 0.44894968246213973 0.45188080117244755
0.10232879500017589 0.44894968246213973 0.4528578407425501
0.10251912500007165 0.44699560332193444 0.45481191988275516
0.10270917800062307 0.44894968246213973 0.4528578407425501
0.10290386000087892 0.4479726428920372 0.4557889594528579
0.10311554100007925 0.44894968246213973 0.45188080117244755
0.10333674100002099 0.44894968246213973 0.44992672203224227
0.10353234900048847 0.45188080117244755 0.441133365901319
0.10372299400023621 0.44699560332193444 0.43429408891060084
0.1039200470004289 0.4450415241817294 0.4255007327796776
0.10411234000002878 0.4479726428920372 0.4186614557889594
0.10430441100015742 0.4460185637518319 0.4176844162188569
0.10449616700043407 0.44894968246213973 0.4079140205178309
0.10468682999999146 0.44699560332193444 0.41182217879824123
0.10487767900031031 0.4479726428920372 0.41182217879824123
0.10506862000056572 0.44894968246213973 0.41475329750854906
0.1052598210008 0.4450415241817294 0.41670737664875435
0.10545113200078049 0.44699560332193444 0.41963849535906195
0.10564205500031676 0.4430874450415241 0.4255007327796776
0.10583283000050869 0.44894968246213973 0.4303859306301905
0.10602362300051027 0.44406448461162684 0.4333170493404983
0.10621449000063876 0.4450415241817294 0.43624816805080613
0.10641217200009123 0.44894968246213973 0.4401563263312165
0.10662902000058239 0.44894968246213973 0.43917928676111373
0.10683561000041664 0.44699560332193444 0.43917928676111373
0.10703310600001714 0.44699560332193444 0.44211040547142155
0.10723336200044287 0.44894968246213973 0.4557889594528579
0.10748739500013471 0.44699560332193444 0.44699560332193444
0.10770637300083763 0.44992672203224227 0.45188080117244755
0.10794855400035885 0.4538348803126526 0.4509037616023448
0.10818375400049263 0.44992672203224227 0.44992672203224227
0.10839551000026404 0.457743038593063 0.44992672203224227
0.10862046900001587 0.4479726428920372 0.45188080117244755
0.10883696600012627 0.44894968246213973 0.44992672203224227
0.10904231400036224 0.45188080117244755 0.4509037616023448
0.10925249600040843 0.4479726428920372 0.4509037616023448
0.10945534400070756 0.4460185637518319 0.45481191988275516
0.10966565600028844 0.4450415241817294 0.4528578407425501
0.1098747080004614 0.44406448461162684 0.45188080117244755
0.11007589000018925 0.44699560332193444 0.4538348803126526
0.11028010800055199 0.4430874450415241 0.44992672203224227
0.11048756800028059 0.4450415241817294 0.44894968246213973
0.11069075000068551 0.4479726428920372 0.4538348803126526
0.11089387600077316 0.4450415241817294 0.4509037616023448
0.11109794700041675 0.4460185637518319 0.4509037616023448
0.11129966600037733 0.44992672203224227 0.45188080117244755
0.11153751400070178 0.4538348803126526 0.44992672203224227
0.11181369400037511 0.44894968246213973 0.44894968246213973
0.11205385700031911 0.44699560332193444 0.44894968246213973
0.11226524200083077 0.4528578407425501 0.4460185637518319
0.11246607200064318 0.45188080117244755 0.44699560332193444
0.11265856900081417 0.4509037616023448 0.44406448461162684
0.11285886200039386 0.4538348803126526 0.44894968246213973
0.11305071100014175 0.4528578407425501 0.44699560332193444
0.11324194799999532 0.4538348803126526 0.4538348803126526
0.1134339270001874 0.4509037616023448 0.45188080117244755
0.11362477500006207 0.44992672203224227 0.45481191988275516
0.11381714300023305 0.457743038593063 0.45481191988275516
0.11400908400082699 0.45188080117244755 0.4528578407425501
0.1142021180003212 0.45188080117244755 0.45188080117244755
0.11439435500051331 0.45188080117244755 0.4538348803126526
0.11458674100049393 0.4538348803126526 0.45188080117244755
0.11477946000013617 0.4538348803126526 0.44894968246213973
0.11497186400083592 0.4509037616023448 0.4450415241817294
0.11516452800060506 0.4557889594528579 0.44211040547142155
0.11536478400012129 0.45481191988275516 0.44211040547142155
0.11555679900084215 0.45676599902296044 0.44211040547142155
0.11574862900033622 0.45969711773326827 0.4450415241817294
0.11593990400069742 0.46165119687347334 0.4401563263312165
0.11613077100082592 0.45969711773326827 0.43917928676111373
0.11632295300023543 0.45676599902296044 0.4430874450415241
0.11651395000080811 0.457743038593063 0.44992672203224227
0.11670428000070387 0.45969711773326827 0.44699560332193444
0.1168952400003036 0.457743038593063 0.4528578407425501
0.11708634800015716 0.45481191988275516 0.46165119687347334
0.11727671500011638 0.457743038593063 0.4665363947239862
0.11746758300068905 0.45481191988275516 0.4684904738641915
0.11765904200001387 0.4557889594528579 0.4704445530043966
0.11785242800033302 0.45676599902296044 0.4733756717147044
0.11804429500080005 0.4557889594528579 0.47239863214460187
0.11823568100044213 0.45481191988275516 0.4733756717147044
0.1184262149999995 0.4528578407425501 0.4831460674157304
0.1186183780000647 0.45481191988275516 0.4753297508549097
0.11881280100078584 0.4528578407425501 0.47435271128480694
0.11900363100085087 0.4528578407425501 0.4811919882755251
0.1191987580004934 0.44992672203224227 0.47435271128480694
0.11941351300083625 0.45481191988275516 0.47435271128480694
0.11963462100084143 0.4528578407425501 0.4733756717147044
0.11983706200044253 0.4528578407425501 0.47239863214460187
0.12003407700012758 0.4528578407425501 0.4733756717147044
0.12024098100027913 0.4509037616023448 0.4802149487054226
0.12049203300011868 0.4509037616023448 0.47728382999511476
0.12069919600071444 0.45188080117244755 0.47435271128480694
0.120914952000021 0.4528578407425501 0.47923790913532005
0.12114980000023934 0.4538348803126526 0.47923790913532005
0.12143711000044277 0.4528578407425501 0.47435271128480694
0.12171873500028596 0.4528578407425501 0.4753297508549097
0.12198008200084587 0.45188080117244755 0.47239863214460187
0.12224318900007347 0.4538348803126526 0.4733756717147044
0.12247631500031275 0.45481191988275516 0.47239863214460187
0.1227045330006149 0.4509037616023448 0.47239863214460187
0.12293430700083263 0.45481191988275516 0.4733756717147044
0.12314743300066766 0.45188080117244755 0.47435271128480694
0.12341685500086896 0.45188080117244755 0.47142159257449934
0.12361966600019514 0.45188080117244755 0.47142159257449934
0.12382236700068461 0.4538348803126526 0.46458231558378116
0.12402530800045497 0.45188080117244755 0.46458231558378116
0.12424082300003647 0.4509037616023448 0.457743038593063
0.12445165300050576 0.4528578407425501 0.45481191988275516
0.12465126000006421 0.44894968246213973 0.45188080117244755
0.12490888600041217 0.44894968246213973 0.4450415241817294
0.12511166000058438 0.4460185637518319 0.4382022471910112
0.12531956400016497 0.4460185637518319 0.43722520762090866
0.12552137600050628 0.4460185637518319 0.4323400097703958
0.12572109500069928 0.44699560332193444 0.4284318514899854
0.12592053600019426 0.4479726428920372 0.42745481191988266
0.1261201440001969 0.4538348803126526 0.4284318514899854
0.12632706600015808 0.4450415241817294 0.4284318514899854
0.12653767400024662 0.4450415241817294 0.4303859306301905
0.1267524480008433 0.4460185637518319 0.42940889106008795
0.12694692600052804 0.44699560332193444 0.42745481191988266
0.1271373310000854 0.44894968246213973 0.4235466536394723
0.1273587530004079 0.44894968246213973 0.4255007327796776
0.12755775000005087 0.4509037616023448 0.4235466536394723
0.12775476500064542 0.4509037616023448 0.4255007327796776
0.12794876200041472 0.44992672203224227 0.42452369320957506
0.12814049900043756 0.44894968246213973 0.42745481191988266
0.12833664400022826 0.44894968246213973 0.42940889106008795
0.12852882600054727 0.4479726428920372 0.431362970200293
0.1287196010007392 0.457743038593063 0.4323400097703958
0.12891022700023314 0.4460185637518319 0.4382022471910112
0.12910113100042508 0.44211040547142155 0.44211040547142155
0.12929301700023643 0.441133365901319 0.44699560332193444
0.12950805100081197 0.441133365901319 0.44992672203224227
0.12969882500055974 0.4450415241817294 0.4538348803126526
0.12988991500060365 0.4450415241817294 0.4528578407425501
0.1300812630006476 0.44406448461162684 0.45481191988275516
0.13027290800073388 0.44406448461162684 0.457743038593063
0.1304646460002914 0.4479726428920372 0.4587200781631655
0.1306553280001026 0.4450415241817294 0.45969711773326827
0.1308463990008022 0.4479726428920372 0.4587200781631655
0.13103685900023265 0.4460185637518319 0.4606741573033708
0.13122765200023423 0.4450415241817294 0.45481191988275516
0.13144070400085184 0.4450415241817294 0.45481191988275516
0.13163236800028244 0.44992672203224227 0.4538348803126526
0.13182292000055895 0.4509037616023448 0.44992672203224227
0.1320131760003278 0.4479726428920372 0.44894968246213973
0.13220415400064667 0.44894968246213973 0.44894968246213973
0.13239481800064823 0.44992672203224227 0.4460185637518319
0.13258503700035362 0.4528578407425501 0.44211040547142155
0.1327760340000168 0.44992672203224227 0.43917928676111373
0.13296827100020892 0.45188080117244755 0.441133365901319
0.13315899100052775 0.4528578407425501 0.4323400097703958
0.1333496360002755 0.45188080117244755 0.4303859306301905
0.1335397250004462 0.4528578407425501 0.4284318514899854
0.1337306660007016 0.44992672203224227 0.42256961406936977
0.13392144100089354 0.45481191988275516 0.4186614557889594
0.13411184500000672 0.4557889594528579 0.41963849535906195
0.13430280500051595 0.44992672203224227 0.4206155349291647
0.13449380200017913 0.4528578407425501 0.42256961406936977
0.13468444700083637 0.4557889594528579 0.4255007327796776
0.134874759000013 0.45188080117244755 0.4284318514899854
0.1350649780006279 0.45481191988275516 0.43429408891060084
0.13526006700067228 0.45676599902296044 0.43722520762090866
0.1354571190004208 0.4528578407425501 0.43722520762090866
0.13564754200069729 0.4528578407425501 0.4382022471910112
0.13583876100074121 0.4557889594528579 0.441133365901319
0.13602899900070042 0.45188080117244755 0.44211040547142155
0.13622521800061804 0.4528578407425501 0.45188080117244755
0.1364264740004728 0.4538348803126526 0.4528578407425501
0.13663480400009576 0.4528578407425501 0.45676599902296044
0.1368362450002678 0.4509037616023448 0.457743038593063
0.13703851900027075 0.44894968246213973 0.4606741573033708
0.13723868300075992 0.45188080117244755 0.4606741573033708
0.13752047400066658 0.4460185637518319 0.45676599902296044
0.13784126500013372 0.4479726428920372 0.45188080117244755
0.13808768700073415 0.4479726428920372 0.4479726428920372
0.1383463860001939 0.4509037616023448 0.44406448461162684
0.13858242000060272 0.45188080117244755 0.43722520762090866
0.13883628600069642 0.4479726428920372 0.431362970200293
0.13912268900003255 0.44699560332193444 0.4264777723497801
0.13935925900022994 0.44992672203224227 0.42256961406936977
0.13960969900017517 0.4509037616023448 0.41963849535906195
0.13982399200085638 0.4538348803126526 0.4303859306301905
0.14003076600056374 0.4509037616023448 0.42159257449926724
0.14024768800027232 0.44992672203224227 0.4323400097703958
0.1404753510005321 0.45676599902296044 0.4382022471910112
0.14071938400047657 0.45481191988275516 0.44894968246213973
0.14095828800054733 0.4557889594528579 0.4636052760136786
0.14121167300072557 0.4538348803126526 0.4655593551538837
0.14144898300037312 0.4557889594528579 0.4684904738641915
0.1416670910002722 0.4538348803126526 0.46946751343429405
0.1419104390006396 0.45481191988275516 0.4587200781631655
0.14213788000051863 0.4538348803126526 0.4528578407425501
0.1423423210007968 0.45481191988275516 0.4479726428920372
0.14254472500033444 0.44992672203224227 0.44699560332193444
0.14274822100014717 0.4538348803126526 0.43624816805080613
0.1429642920002152 0.44699560332193444 0.43624816805080613
0.14317638100055774 0.4479726428920372 0.4382022471910112
0.1433776920002856 0.44992672203224227 0.44406448461162684
0.143571449000774 0.4509037616023448 0.4430874450415241
0.1437630190002892 0.4460185637518319 0.4460185637518319
0.14395392400001583 0.4460185637518319 0.4528578407425501
0.14414503200077888 0.4460185637518319 0.4557889594528579
0.1443370840006537 0.4430874450415241 0.4665363947239862
0.14452739600073983 0.44894968246213973 0.47239863214460187
0.1447215590005726 0.44699560332193444 0.4763067904250122
0.1449125750004896 0.45188080117244755 0.4802149487054226
0.14510394200078736 0.44894968246213973 0.486077186126038
0.1452945870005351 0.4509037616023448 0.4831460674157304
0.14548538000053668 0.45188080117244755 0.4831460674157304
0.14567591400009405 0.4479726428920372 0.4802149487054226
0.14586748500005342 0.4528578407425501 0.4811919882755251
0.14605829600077413 0.45188080117244755 0.4811919882755251
0.1462488300003315 0.44992672203224227 0.4782608695652173
0.14644036400022742 0.44992672203224227 0.4851001465559355
0.1466305280000597 0.44699560332193444 0.4753297508549097
0.14682445000016742 0.45481191988275516 0.46946751343429405
0.1470544650001102 0.44894968246213973 0.47239863214460187
0.14724586900047143 0.4460185637518319 0.4655593551538837
0.1474449960005586 0.44894968246213973 0.4684904738641915
0.1476352700001371 0.4450415241817294 0.46458231558378116
0.14782561900028668 0.44211040547142155 0.46262823644357587
0.1480165790007959 0.4460185637518319 0.4665363947239862
0.14820729800067056 0.44406448461162684 0.46458231558378116
0.14839811000001646 0.44211040547142155 0.4636052760136786
0.1485885700003564 0.44699560332193444 0.4684904738641915
0.14877893700031564 0.4479726428920372 0.4655593551538837
0.14897045200086723 0.44992672203224227 0.467513434294089
0.14916133800034004 0.44699560332193444 0.4655593551538837
0.14935190900087036 0.44406448461162684 0.4587200781631655
0.14954257200042775 0.44992672203224227 0.45969711773326827
0.1497338100007255 0.44699560332193444 0.45188080117244755
0.14992480700038868 0.4528578407425501 0.44894968246213973
0.1501169890007077 0.4460185637518319 0.44406448461162684
0.1503078000005189 0.4528578407425501 0.441133365901319
0.15049937100047828 0.45188080117244755 0.441133365901319
0.15068953500031057 0.4528578407425501 0.43722520762090866
0.15089055000044027 0.44992672203224227 0.4323400097703958
0.1510815650008226 0.4509037616023448 0.43722520762090866
0.1512720070004434 0.45481191988275516 0.42940889106008795
0.1514641150006355 0.4509037616023448 0.42940889106008795
0.15165561200046795 0.45188080117244755 0.431362970200293
0.15184629400027916 0.4528578407425501 0.42940889106008795
0.15203723500053457 0.4538348803126526 0.431362970200293
0.15222771300068416 0.44992672203224227 0.4284318514899854
0.15241846900062228 0.45188080117244755 0.4333170493404983
0.1526199660002021 0.4450415241817294 0.43429408891060084
0.15283251800065045 0.44699560332193444 0.441133365901319
0.15306855100061512 0.44894968246213973 0.4479726428920372
0.15330293600072764 0.44894968246213973 0.4538348803126526
0.15351534000001266 0.44894968246213973 0.4528578407425501
0.15372180000031221 0.4479726428920372 0.457743038593063
0.15392635200078075 0.45188080117244755 0.457743038593063
0.15413271900069958 0.4509037616023448 0.4636052760136786
0.15433775300061825 0.4509037616023448 0.46165119687347334
0.1545423050001773 0.4509037616023448 0.467513434294089
0.15476094900077442 0.4460185637518319 0.467513434294089
0.15498907500023051 0.44894968246213973 0.4684904738641915
0.1552006830006576 0.4460185637518319 0.4665363947239862
0.1554086610003651 0.44699560332193444 0.4636052760136786
0.15567378600007942 0.4460185637518319 0.46458231558378116
0.15590552300000127 0.45188080117244755 0.46458231558378116
0.15613090800070495 0.45188080117244755 0.45969711773326827
0.15636436700060585 0.44699560332193444 0.46458231558378116
0.1565984370008664 0.4538348803126526 0.4655593551538837
0.15681615600078658 0.4509037616023448 0.4636052760136786
0.15702274500017666 0.457743038593063 0.4704445530043966
0.1572180010007287 0.457743038593063 0.4733756717147044
0.1574116280007729 0.45969711773326827 0.4733756717147044
0.15760214300007647 0.4606741573033708 0.4782608695652173
0.15779491800003598 0.4606741573033708 0.4782608695652173
0.15798534100031247 0.46165119687347334 0.4802149487054226
0.15817852300006052 0.4587200781631655 0.4802149487054226
0.15836907500033703 0.45676599902296044 0.4782608695652173
0.15855968300002132 0.45969711773326827 0.4704445530043966
0.15875373500057322 0.46165119687347334 0.4684904738641915
0.1589443430002575 0.4528578407425501 0.4606741573033708
0.15913445100068202 0.4509037616023448 0.45188080117244755
0.15935635500045464 0.44992672203224227 0.44894968246213973
0.15955596300045727 0.4538348803126526 0.44406448461162684
0.15974651500073378 0.45481191988275516 0.4430874450415241
0.15993699400041805 0.4509037616023448 0.44406448461162684
0.16012791600041965 0.4528578407425501 0.44699560332193444
0.16031970900075976 0.45481191988275516 0.44992672203224227
0.16051018800044403 0.45188080117244755 0.45969711773326827
0.16070211100031884 0.45188080117244755 0.45676599902296044
0.1608930150005108 0.4528578407425501 0.46458231558378116
0.1610835670007873 0.45188080117244755 0.4655593551538837
0.16127474900076777 0.4538348803126526 0.47923790913532005
0.16146580200074823 0.4528578407425501 0.4665363947239862
0.16165624300083437 0.4528578407425501 0.4684904738641915
0.16184840599999006 0.45188080117244755 0.467513434294089
0.16203895900071075 0.4538348803126526 0.46165119687347334
0.1622294740000143 0.4528578407425501 0.46262823644357587
0.1624198420004177 0.4528578407425501 0.4636052760136786
0.16261026400025003 0.4479726428920372 0.457743038593063
0.16280159400048433 0.45188080117244755 0.4587200781631655
0.16299257300033787 0.44894968246213973 0.4538348803126526
0.16318386600050871 0.44894968246213973 0.4479726428920372
0.16337415900034102 0.4460185637518319 0.4450415241817294
0.16356460000042716 0.44406448461162684 0.43624816805080613
0.163800763000836 0.44211040547142155 0.4333170493404983
0.16400414899999305 0.43917928676111373 0.4264777723497801
0.1641973860005237 0.441133365901319 0.4284318514899854
0.1643895130000601 0.441133365901319 0.4284318514899854
0.16458034300012514 0.4382022471910112 0.4284318514899854
0.1647712470003171 0.441133365901319 0.42745481191988266
0.1649612260007416 0.43917928676111373 0.42940889106008795
0.1651535930004684 0.4430874450415241 0.431362970200293
0.1653445340007238 0.44211040547142155 0.441133365901319
0.1655358640000486 0.4430874450415241 0.4479726428920372
0.16572645400083275 0.4450415241817294 0.45481191988275516
0.16591739500017866 0.4528578407425501 0.457743038593063
0.16610800300077244 0.4450415241817294 0.4636052760136786
0.1662989260003087 0.44699560332193444 0.4606741573033708
0.16648966299999302 0.44894968246213973 0.45481191988275516
0.16668036400005803 0.4479726428920372 0.44992672203224227
0.16687439800080028 0.44699560332193444 0.4460185637518319
0.16706819099999848 0.4460185637518319 0.44894968246213973
0.1672592060003808 0.4450415241817294 0.441133365901319
0.16745435100074246 0.44406448461162684 0.44211040547142155
0.16764484800023638 0.44699560332193444 0.441133365901319
0.16783512300025905 0.44894968246213973 0.44211040547142155
0.1680261569999857 0.4479726428920372 0.43917928676111373
0.16821672700007184 0.44406448461162684 0.4430874450415241
0.16840831700028502 0.44211040547142155 0.4401563263312165
0.1685992950006039 0.4479726428920372 0.4430874450415241
0.16878981100035162 0.4479726428920372 0.4382022471910112
0.16898245600077644 0.4460185637518319 0.43722520762090866
0.16917389700029162 0.44894968246213973 0.4303859306301905
0.1693645600007585 0.4528578407425501 0.4235466536394723
0.1695555760006755 0.4509037616023448 0.42256961406936977
0.1697455360008462 0.457743038593063 0.41475329750854906
0.169938032000573 0.4557889594528579 0.4040058622374205
0.17012888100089185 0.45676599902296044 0.3981436248168051
0.1703195260006396 0.45676599902296044 0.3913043478260869
0.1705104120001124 0.45969711773326827 0.38935026868588185
0.1707055010001568 0.4587200781631655 0.39228138739618945
0.17090449800070928 0.45969711773326827 0.39228138739618945
0.1711054020006486 0.46458231558378116 0.3903273082559844
0.17131595400041988 0.46165119687347334 0.39423546653639474
0.17157526500068343 0.45969711773326827 0.39716658524670256
0.17177955800070777 0.457743038593063 0.4049829018075233
0.17198720200030948 0.457743038593063 0.40889106008793363
0.1722371980004027 0.457743038593063 0.41475329750854906
0.1724450470001102 0.4606741573033708 0.41670737664875435
0.17265287700047338 0.45481191988275516 0.41963849535906195
0.17286991000037233 0.4528578407425501 0.4284318514899854
0.17312920200038207 0.4557889594528579 0.44406448461162684
0.17345664100048452 0.45676599902296044 0.45676599902296044
0.1737047110000276 0.45676599902296044 0.4665363947239862
0.17394709600011993 0.457743038593063 0.4782608695652173
0.17418683300002158 0.46458231558378116 0.4880312652662433
0.17441673600023933 0.45969711773326827 0.48900830483634583
0.1746277510001164 0.46165119687347334 0.4929164631167562
0.17483154400088097 0.45676599902296044 0.495847581827064
0.17503813400071522 0.457743038593063 0.4929164631167562
0.17523642700052733 0.45676599902296044 0.49193942354665365
0.17550375500013615 0.45676599902296044 0.48900830483634583
0.17570271500062518 0.45481191988275516 0.486077186126038
0.175894323000648 0.457743038593063 0.4880312652662433
0.17608511600064958 0.45676599902296044 0.48412310698583294
0.17627572400033387 0.45676599902296044 0.4831460674157304
0.17646607300048345 0.4587200781631655 0.4938935026868587
0.17669016200034093 0.4606741573033708 0.4938935026868587
0.1768821220002792 0.4636052760136786 0.495847581827064
0.17707300700021733 0.46165119687347334 0.5007327796775769
0.1772684860006848 0.46262823644357587 0.49975574010747437
0.1774590380000518 0.457743038593063 0.48998534440644836
0.17764892400009558 0.45969711773326827 0.48900830483634583
0.17784916100026749 0.45969711773326827 0.4733756717147044
0.17804613900079858 0.457743038593063 0.4636052760136786
0.17824624700006098 0.45676599902296044 0.4606741573033708
0.17847420600082842 0.45481191988275516 0.45676599902296044
0.1787252020003507 0.45969711773326827 0.45676599902296044
0.17895864300044195 0.45969711773326827 0.457743038593063
0.1791684730005727 0.45676599902296044 0.457743038593063
0.1793739140002799 0.4606741573033708 0.45969711773326827
0.17960405800022272 0.457743038593063 0.46262823644357587
0.17984281400003965 0.457743038593063 0.45969711773326827
0.18009558700032358 0.45969711773326827 0.4557889594528579
0.18034754600012093 0.4557889594528579 0.4587200781631655
0.18055872800050565 0.4557889594528579 0.45481191988275516
0.18077328000072157 0.4538348803126526 0.4509037616023448
0.18100042400055827 0.4557889594528579 0.4528578407425501
0.18120729100064636 0.4528578407425501 0.4557889594528579
0.18141182500039577 0.4557889594528579 0.45969711773326827
0.1816488210006355 0.4557889594528579 0.4655593551538837
0.18185050300053263 0.45481191988275516 0.46946751343429405
0.1820499990008102 0.45676599902296044 0.4704445530043966
0.1822416630002408 0.45481191988275516 0.47728382999511476
0.18243262300075003 0.45481191988275516 0.4733756717147044
0.1826234160007516 0.45481191988275516 0.4733756717147044
0.18281395000030898 0.45188080117244755 0.46946751343429405
0.18300505800016253 0.4557889594528579 0.45676599902296044
0.18319586900088325 0.45188080117244755 0.45676599902296044
0.18338647700056754 0.4528578407425501 0.44211040547142155
0.18357728900082293 0.44699560332193444 0.4401563263312165
0.18376813800023228 0.44211040547142155 0.43722520762090866
0.18395861600038188 0.44406448461162684 0.4333170493404983
0.18414981700061617 0.4382022471910112 0.43624816805080613
0.184341425000639 0.45188080117244755 0.4303859306301905
0.18453247700017528 0.4382022471910112 0.4333170493404983
0.18472290000045177 0.4430874450415241 0.4303859306301905
0.18491398900005152 0.44211040547142155 0.4333170493404983
0.1851045970006453 0.441133365901319 0.4333170493404983
0.18529553900043538 0.4450415241817294 0.43429408891060084
0.18548714600001404 0.44211040547142155 0.43624816805080613
0.18567816200084053 0.4450415241817294 0.43917928676111373
0.18587177000063093 0.4460185637518319 0.43624816805080613
0.1860632110001461 0.4430874450415241 0.4401563263312165
0.18625498600067658 0.44406448461162684 0.44406448461162684
0.18644518600012816 0.4450415241817294 0.441133365901319
0.1866360160001932 0.44894968246213973 0.43917928676111373
0.18682647600053315 0.44992672203224227 0.441133365901319
0.1870177140008309 0.44894968246213973 0.4401563263312165
0.18720900700009224 0.44894968246213973 0.4352711284807034
0.1874557070004812 0.44992672203224227 0.4352711284807034
0.18764905500029272 0.4460185637518319 0.441133365901319
0.18784099700042134 0.44699560332193444 0.43722520762090866
0.18803245600065566 0.44894968246213973 0.4382022471910112
0.18822326800000155 0.44992672203224227 0.4382022471910112
0.18841459800023586 0.4509037616023448 0.43624816805080613
0.18860559500080853 0.4509037616023448 0.43624816805080613
0.18879624000055628 0.4509037616023448 0.43429408891060084
0.1889869960004944 0.44992672203224227 0.4323400097703958
0.1891780670002845 0.4528578407425501 0.431362970200293
0.1893693230003919 0.457743038593063 0.43917928676111373
0.18958974500037584 0.44992672203224227 0.441133365901319
0.18979292700078076 0.44992672203224227 0.4479726428920372
0.190026683000724 0.4538348803126526 0.4528578407425501
0.190252531000624 0.4538348803126526 0.45676599902296044
0.1904547680005635 0.4528578407425501 0.457743038593063
0.19065480200060847 0.45676599902296044 0.45188080117244755
0.19085755800006154 0.4557889594528579 0.4509037616023448
0.19105859200044506 0.45481191988275516 0.44699560332193444
0.19129471700034628 0.44992672203224227 0.4450415241817294
0.19156312000086473 0.45188080117244755 0.43917928676111373
0.19181870900047215 0.44894968246213973 0.4450415241817294
0.19205657500060624 0.44699560332193444 0.4479726428920372
0.19226540500039846 0.45188080117244755 0.4509037616023448
0.19245895700078108 0.45188080117244755 0.45188080117244755
0.1926505650008039 0.44992672203224227 0.4538348803126526
0.19284600700029841 0.44992672203224227 0.45969711773326827
0.19303670700082876 0.4509037616023448 0.46262823644357587
0.19322803700015356 0.45188080117244755 0.46262823644357587
0.19341809000070498 0.4509037616023448 0.4636052760136786
0.19361029000083363 0.4509037616023448 0.46262823644357587
0.1938011580004968 0.45188080117244755 0.46262823644357587
0.19399909900039347 0.44992672203224227 0.4636052760136786
0.19419068800016248 0.44992672203224227 0.4636052760136786
0.1943810550001217 0.45188080117244755 0.46262823644357587
0.19457234900073672 0.4509037616023448 0.46262823644357587
0.19476258600025176 0.45481191988275516 0.46262823644357587
0.19495262000054936 0.4528578407425501 0.4636052760136786
0.1951430610006355 0.4538348803126526 0.4655593551538837
0.19536920600057783 0.4538348803126526 0.46946751343429405
0.19556536900017818 0.4557889594528579 0.4655593551538837
0.19575592199998937 0.4509037616023448 0.46458231558378116
0.19594827000037185 0.4509037616023448 0.46262823644357587
0.19613874900005612 0.4528578407425501 0.46165119687347334
0.19632937500045955 0.45188080117244755 0.46262823644357587
0.19652422400031355 0.4538348803126526 0.46458231558378116
0.19671498000025167 0.45188080117244755 0.46458231558378116
0.1969049030003589 0.45676599902296044 0.46262823644357587
0.1970952510000643 0.45188080117244755 0.457743038593063
0.19728921100067964 0.45481191988275516 0.4606741573033708
0.19748020800034283 0.45188080117244755 0.457743038593063
0.1976763340007892 0.45188080117244755 0.45969711773326827
0.19786788700002944 0.44894968246213973 0.4606741573033708
0.1980586060008136 0.44894968246213973 0.46165119687347334
0.19825036200018076 0.45188080117244755 0.46165119687347334
0.19848434000050474 0.4528578407425501 0.46458231558378116
0.19867546600016794 0.44992672203224227 0.46458231558378116
0.19886668500021187 0.4528578407425501 0.47239863214460187
0.19905860800008668 0.4528578407425501 0.46262823644357587
0.1992493640000248 0.45188080117244755 0.4655593551538837
0.199444472000323 0.45188080117244755 0.4606741573033708
0.19963493200066296 0.4479726428920372 0.45969711773326827
0.19982566900034726 0.4460185637518319 0.46165119687347334
0.20001614800003154 0.44406448461162684 0.45676599902296044
0.20020645900058298 0.44894968246213973 0.46946751343429405
0.20039708600052109 0.44894968246213973 0.45676599902296044
0.20058773100026883 0.4538348803126526 0.4587200781631655
0.20077828300054534 0.457743038593063 0.4557889594528579
0.2009692060000816 0.45481191988275516 0.457743038593063
0.20116014700033702 0.457743038593063 0.4538348803126526
0.20135064400074043 0.4538348803126526 0.4538348803126526
0.20154067800012854 0.4538348803126526 0.44894968246213973
0.20173041600082797 0.44992672203224227 0.4450415241817294
0.2019218200002797 0.45188080117244755 0.4450415241817294
0.20211233500049275 0.4538348803126526 0.44699560332193444
0.20231125800000882 0.45188080117244755 0.44699560332193444
0.20250216200020077 0.4509037616023448 0.4460185637518319
0.20269288100007543 0.44992672203224227 0.4460185637518319
0.20288334100041538 0.44894968246213973 0.44699560332193444
0.20318548400064174 0.4460185637518319 0.4450415241817294
0.20338042600087647 0.45188080117244755 0.4382022471910112
0.20358258900068904 0.4509037616023448 0.4303859306301905
0.20377930800077593 0.45188080117244755 0.4264777723497801
0.20397180500003742 0.44894968246213973 0.4176844162188569
0.20416320900039864 0.44894968246213973 0.41670737664875435
0.2043540580007175 0.4479726428920372 0.41670737664875435
0.20454425800016907 0.44894968246213973 0.41670737664875435
0.20473471800050902 0.44992672203224227 0.4176844162188569
0.20492501100034133 0.4479726428920372 0.42256961406936977
0.20511604500006797 0.44699560332193444 0.42940889106008795
0.20530694900025992 0.44992672203224227 0.4401563263312165
0.20549781700083258 0.44992672203224227 0.44211040547142155
0.20569027600049594 0.44992672203224227 0.4460185637518319
0.20588227300049766 0.44894968246213973 0.44992672203224227
0.2060903440005859 0.44699560332193444 0.45188080117244755
0.2062911550001445 0.44699560332193444 0.44992672203224227
0.20648194900059025 0.4450415241817294 0.44894968246213973
0.2066872780005724 0.44406448461162684 0.44699560332193444
0.2068791270003203 0.4460185637518319 0.4479726428920372
0.20706966100078716 0.4479726428920372 0.44699560332193444
0.20726052800000616 0.4450415241817294 0.44894968246213973
0.20745645100032561 0.44699560332193444 0.4587200781631655
0.2076470590000099 0.4450415241817294 0.44894968246213973
0.20783777800079406 0.4430874450415241 0.45188080117244755
0.20802827500028798 0.44406448461162684 0.4528578407425501
0.20822030900035315 0.4450415241817294 0.46262823644357587
0.2084117870008413 0.44406448461162684 0.4587200781631655
0.20860171000003902 0.4430874450415241 0.4528578407425501
0.2087919850000617 0.44406448461162684 0.4509037616023448
0.20898224100074003 0.44211040547142155 0.4460185637518319
0.20917434900002263 0.44406448461162684 0.4430874450415241
0.2093650680008068 0.4450415241817294 0.44894968246213973
0.209555879000618 0.4460185637518319 0.44992672203224227
0.2097465060005561 0.4509037616023448 0.457743038593063
0.20993715100030386 0.45188080117244755 0.4587200781631655
0.21012816600068618 0.45676599902296044 0.45481191988275516
0.2103212000001804 0.4528578407425501 0.45188080117244755
0.2105116970005838 0.45481191988275516 0.4509037616023448
0.21070197200060647 0.4557889594528579 0.44699560332193444
0.21089258000029076 0.45481191988275516 0.44406448461162684
0.21108324300075765 0.45676599902296044 0.441133365901319
0.2112737030001881 0.4509037616023448 0.43917928676111373
0.21146582900018984 0.4528578407425501 0.44406448461162684
0.2116563080007836 0.4509037616023448 0.44406448461162684
0.21184687900040444 0.44992672203224227 0.4460185637518319
0.21203722700010985 0.4528578407425501 0.4528578407425501
0.2122285200002807 0.44992672203224227 0.44992672203224227
0.21241946200007078 0.4538348803126526 0.4538348803126526
0.21260979200087604 0.45188080117244755 0.4509037616023448
0.2128007150004123 0.4509037616023448 0.4538348803126526
0.212990804000583 0.4528578407425501 0.44699560332193444
0.21318133800014039 0.44699560332193444 0.4479726428920372
0.2133717050000996 0.44992672203224227 0.43722520762090866
0.21356201700018573 0.45188080117244755 0.43917928676111373
0.21375351400001819 0.4557889594528579 0.4333170493404983
0.21394438100014668 0.4509037616023448 0.4382022471910112
0.21413500800008478 0.4538348803126526 0.4333170493404983
0.21432554100010748 0.4538348803126526 0.43429408891060084
0.21451677900040522 0.45188080117244755 0.43429408891060084
0.21471925700006977 0.4557889594528579 0.4382022471910112
0.21491643900026247 0.45481191988275516 0.43722520762090866
0.21510717700039095 0.4557889594528579 0.4430874450415241
0.21529811800064635 0.45188080117244755 0.4509037616023448
0.21548976300073264 0.45481191988275516 0.4479726428920372
0.2156810010001209 0.45676599902296044 0.44894968246213973
0.2158713680000801 0.45676599902296044 0.4557889594528579
0.21606192000035662 0.4606741573033708 0.45481191988275516
0.21625269500054856 0.46165119687347334 0.4538348803126526
0.21644345100048668 0.45676599902296044 0.4587200781631655
0.216633300000467 0.45676599902296044 0.4606741573033708
0.21682413000053202 0.4606741573033708 0.46262823644357587
0.2170147380002163 0.46165119687347334 0.4636052760136786
0.21720588300013333 0.4606741573033708 0.4636052760136786
0.21739689800051565 0.4636052760136786 0.467513434294089
0.21758704300009413 0.46262823644357587 0.4665363947239862
0.21778039200034982 0.46165119687347334 0.467513434294089
0.21797050000077434 0.4636052760136786 0.467513434294089
0.21816007100005663 0.467513434294089 0.46262823644357587
0.21834984500037535 0.46165119687347334 0.4655593551538837
0.21854013900065183 0.45969711773326827 0.45969711773326827
0.21873069100001885 0.4587200781631655 0.45676599902296044
0.21892063200084522 0.457743038593063 0.4557889594528579
0.21911087000080443 0.45676599902296044 0.45481191988275516
0.219300941000256 0.45188080117244755 0.457743038593063
0.21949425300044823 0.4509037616023448 0.4606741573033708
0.2196856940008729 0.4557889594528579 0.457743038593063
0.21987683900078991 0.44992672203224227 0.4606741573033708
0.2200676320007915 0.4509037616023448 0.4557889594528579
0.22025927700087777 0.44699560332193444 0.4528578407425501
0.22045014400009677 0.4538348803126526 0.45188080117244755
0.22064899300039542 0.45481191988275516 0.45188080117244755
0.2208489520007788 0.4479726428920372 0.457743038593063
0.22104798600048525 0.44894968246213973 0.457743038593063
0.22126416800074367 0.44894968246213973 0.4587200781631655
0.2214709980007683 0.4450415241817294 0.4587200781631655
0.22167316100058088 0.44992672203224227 0.45969711773326827
0.22187602800022432 0.44894968246213973 0.4557889594528579
0.22207296900069196 0.44992672203224227 0.45188080117244755
0.22228450300008262 0.44992672203224227 0.4538348803126526
0.2225068330008071 0.44699560332193444 0.45188080117244755
0.22274271800051793 0.4460185637518319 0.44992672203224227
0.2229805100005251 0.4479726428920372 0.4538348803126526
0.22323348700047063 0.4460185637518319 0.46262823644357587
0.22356326000044646 0.4460185637518319 0.4606741573033708
0.2238069410004755 0.4479726428920372 0.4665363947239862
0.22405190000063158 0.44992672203224227 0.4704445530043966
0.22428037700046843 0.44699560332193444 0.4753297508549097
0.22449037400019733 0.4460185637518319 0.47923790913532005
0.22469514800013712 0.44699560332193444 0.4763067904250122
0.22490275600011955 0.44894968246213973 0.4704445530043966
0.2251151230002506 0.4460185637518319 0.47239863214460187
0.22531960100059223 0.4479726428920372 0.4665363947239862
0.22552569000072253 0.4460185637518319 0.4655593551538837
0.22575529700043262 0.44894968246213973 0.457743038593063
0.22597457200026838 0.44992672203224227 0.4528578407425501
0.22617808700033493 0.44894968246213973 0.4460185637518319
0.22637306500018894 0.45188080117244755 0.4352711284807034
0.2265687840008468 0.4528578407425501 0.431362970200293
0.22676907700042648 0.45188080117244755 0.4284318514899854
0.22696885200002725 0.44992672203224227 0.42256961406936977
0.22718903300028614 0.4538348803126526 0.4186614557889594
0.22747002800042537 0.4538348803126526 0.41475329750854906
0.2278227450005943 0.45188080117244755 0.412799218368344
0.22807763000037085 0.44894968246213973 0.41670737664875435
0.22831925500031502 0.4528578407425501 0.4186614557889594
0.22853123300046718 0.44894968246213973 0.4186614557889594
0.2287652850000086 0.44699560332193444 0.42256961406936977
0.22900742900037585 0.44894968246213973 0.4264777723497801
0.2292338880006355 0.4460185637518319 0.4255007327796776
0.22943858900089253 0.44992672203224227 0.4235466536394723
0.22963177100064058 0.44992672203224227 0.4186614557889594
0.2298225820004518 0.44992672203224227 0.4206155349291647
0.23001376400043227 0.44894968246213973 0.41963849535906195
0.23020509500020125 0.44992672203224227 0.4186614557889594
0.2303982770008588 0.4509037616023448 0.42452369320957506
0.23059158800060686 0.44992672203224227 0.4284318514899854
0.23078208500010078 0.44992672203224227 0.43429408891060084
0.2309728600002927 0.45188080117244755 0.441133365901319
0.2311643750008443 0.4509037616023448 0.44894968246213973
0.23137252000014996 0.45188080117244755 0.4528578407425501
0.231564387000617 0.44894968246213973 0.45481191988275516
0.23175508700023784 0.44894968246213973 0.46165119687347334
0.23194641800000682 0.44992672203224227 0.467513434294089
0.23213756300083332 0.44699560332193444 0.4733756717147044
0.23232987400024285 0.44894968246213973 0.48705422569614076
0.23255746300037572 0.44894968246213973 0.48998534440644836
0.23274862700054655 0.44992672203224227 0.4948705422569615
0.23294058600004064 0.4509037616023448 0.495847581827064
0.23313571300059266 0.44992672203224227 0.49877870053737183
0.23333893200015154 0.44992672203224227 0.49682462139716654
0.23354365100021823 0.44894968246213973 0.48998534440644836
0.23374874000001 0.45188080117244755 0.48412310698583294
0.23395492200052104 0.44894968246213973 0.4763067904250122
0.23416860300039843 0.4479726428920372 0.46458231558378116
0.23440941400076554 0.44894968246213973 0.457743038593063
0.23461467000015546 0.4509037616023448 0.4538348803126526
0.23482233300001099 0.4509037616023448 0.4479726428920372
0.23503151500062813 0.4509037616023448 0.4479726428920372
0.23523288200067327 0.44894968246213973 0.44211040547142155
0.2355078960008541 0.44992672203224227 0.44406448461162684
0.23571311500018055 0.44992672203224227 0.44406448461162684
0.23591092600054253 0.4479726428920372 0.4479726428920372
0.23612723800033564 0.44699560332193444 0.44992672203224227
0.2363401040001918 0.44992672203224227 0.4509037616023448
0.23654317500040634 0.45188080117244755 0.45969711773326827
0.23674578300051508 0.45188080117244755 0.4587200781631655
0.23694892800085654 0.4509037616023448 0.45676599902296044
0.23718455400012317 0.4509037616023448 0.46165119687347334
0.2374769930002003 0.45188080117244755 0.46262823644357587
0.23769482300031086 0.4538348803126526 0.46458231558378116
0.2379113380002309 0.4538348803126526 0.46458231558378116
0.23811387200021272 0.4528578407425501 0.4665363947239862
0.23832931200013263 0.4509037616023448 0.4655593551538837
0.2385370680003689 0.44992672203224227 0.4606741573033708
0.23874106500079506 0.45188080117244755 0.45969711773326827
0.23895461700067244 0.45481191988275516 0.4606741573033708
0.2391550210004425 0.4509037616023448 0.4587200781631655
0.2393591470008687 0.44699560332193444 0.457743038593063
0.23955775500053278 0.4460185637518319 0.457743038593063
0.23976708500049426 0.4509037616023448 0.46458231558378116
0.23998524800026644 0.4528578407425501 0.46262823644357587
0.2401890410001215 0.4528578407425501 0.46165119687347334
0.24038146400016558 0.45481191988275516 0.46458231558378116
0.24057707200063305 0.45188080117244755 0.4665363947239862
0.24077403100000083 0.4538348803126526 0.4655593551538837
0.24096543600080622 0.4509037616023448 0.46165119687347334
0.24117774700062 0.4509037616023448 0.45969711773326827
0.24137713300024188 0.45188080117244755 0.45676599902296044
0.24156803700043383 0.45481191988275516 0.45676599902296044
0.24175899700003356 0.4557889594528579 0.44894968246213973
0.24194991900003515 0.45188080117244755 0.4460185637518319
0.24214067600041744 0.45188080117244755 0.44406448461162684
0.2423312460005036 0.44894968246213973 0.4352711284807034
0.24252268800046295 0.44992672203224227 0.431362970200293
0.2427150920002532 0.44894968246213973 0.4235466536394723
0.24290668100002222 0.44894968246213973 0.4206155349291647
0.24309777100006613 0.4460185637518319 0.4206155349291647
0.24328839700046956 0.44406448461162684 0.4176844162188569
0.24348000500049238 0.4460185637518319 0.4176844162188569
0.2436706320004305 0.4460185637518319 0.4157303370786516
0.24386205500013602 0.44699560332193444 0.41475329750854906
0.24405344000024343 0.4450415241817294 0.4176844162188569
0.24424406700018153 0.43917928676111373 0.42256961406936977
0.24443491600050038 0.4450415241817294 0.4255007327796776
0.24462524600039615 0.44699560332193444 0.4303859306301905
0.244816224000715 0.4460185637518319 0.42256961406936977
0.24500759100010328 0.4430874450415241 0.4255007327796776
0.2452015320004648 0.4460185637518319 0.4264777723497801
0.24539325200021267 0.44699560332193444 0.42452369320957506
0.2455838970008699 0.45188080117244755 0.42940889106008795
0.24577431900070223 0.4450415241817294 0.4333170493404983
0.24596570500034431 0.4479726428920372 0.43722520762090866
0.24615762800021912 0.4450415241817294 0.4450415241817294
0.24634801400043216 0.44992672203224227 0.44992672203224227
0.24654051000015897 0.45188080117244755 0.4509037616023448
0.24673054400045658 0.44699560332193444 0.45188080117244755
0.2469207260000985 0.45676599902296044 0.4557889594528579
0.2471119820002059 0.45188080117244755 0.45481191988275516
0.24730166500012274 0.4479726428920372 0.4636052760136786
0.24750203200073884 0.4479726428920372 0.46165119687347334
0.24769330600065587 0.45188080117244755 0.4665363947239862
0.24788402500053053 0.45188080117244755 0.46946751343429405
0.24807555900042644 0.45188080117244755 0.47239863214460187
0.2482662780003011 0.4528578407425501 0.4753297508549097
0.2484573490000912 0.4509037616023448 0.467513434294089
0.24864782800068497 0.45188080117244755 0.46458231558378116
0.24883878700075002 0.45188080117244755 0.45969711773326827
0.24902898800064577 0.44699560332193444 0.44992672203224227
0.24921948500013968 0.4450415241817294 0.44894968246213973
0.24940942600005656 0.4460185637518319 0.4460185637518319
0.249616275000335 0.44992672203224227 0.4430874450415241
0.24980790100016748 0.4557889594528579 0.441133365901319
0.2499993790006556 0.4509037616023448 0.43429408891060084
0.2501893390008263 0.4479726428920372 0.4323400097703958
0.2503796320006586 0.4509037616023448 0.42452369320957506
0.2505705180001314 0.44992672203224227 0.42256961406936977
0.25076305200036586 0.4509037616023448 0.41670737664875435
0.25095619700005045 0.44894968246213973 0.4157303370786516
0.2511472310006866 0.44894968246213973 0.4108451392281387
0.2513481350006259 0.45188080117244755 0.4108451392281387
0.25153996500012 0.4479726428920372 0.41182217879824123
0.25173099900075613 0.45188080117244755 0.4137762579384465
0.25193384700014576 0.44992672203224227 0.4186614557889594
0.2521360660002756 0.45188080117244755 0.4235466536394723
0.2523284340004466 0.45481191988275516 0.4284318514899854
0.25251928200032125 0.4528578407425501 0.43429408891060084
0.25271081600021716 0.457743038593063 0.4333170493404983
0.2529014800002187 0.4538348803126526 0.4352711284807034
0.25309218000074907 0.45481191988275516 0.43624816805080613
0.25328280700068717 0.45481191988275516 0.43722520762090866
0.2534868220000135 0.45481191988275516 0.43917928676111373
0.2536775590006073 0.45481191988275516 0.4382022471910112
0.25387042700003803 0.4538348803126526 0.4450415241817294
0.2540843680008038 0.45188080117244755 0.44894968246213973
0.25428638300036255 0.4538348803126526 0.44992672203224227
0.25449234200004867 0.45188080117244755 0.457743038593063
0.2547066350007299 0.4509037616023448 0.4587200781631655
0.2549105390007753 0.45188080117244755 0.46946751343429405
0.2551156470008209 0.45481191988275516 0.47239863214460187
0.2553968090005583 0.4557889594528579 0.4811919882755251
0.25565391600048315 0.4528578407425501 0.4851001465559355
0.25592143000085343 0.45481191988275516 0.4811919882755251
0.2562218880002547 0.45676599902296044 0.48705422569614076
0.2565098460008812 0.45481191988275516 0.4831460674157304
0.25674026800061256 0.45481191988275516 0.47923790913532005
0.25696265300030063 0.45188080117244755 0.4782608695652173
0.257173409000643 0.44992672203224227 0.47728382999511476
0.25738194300083705 0.4528578407425501 0.47728382999511476
0.2575902540002062 0.45188080117244755 0.4733756717147044
0.25784676800049056 0.45188080117244755 0.4733756717147044
0.25810643100066955 0.45188080117244755 0.4802149487054226
0.25834574200052884 0.45481191988275516 0.486077186126038
0.2585805530006837 0.45481191988275516 0.4753297508549097
0.2589431760006846 0.45481191988275516 0.47435271128480694
0.2592521710002984 0.45188080117244755 0.4753297508549097
0.2595270370002254 0.45188080117244755 0.4763067904250122
0.25975155200012523 0.4528578407425501 0.47239863214460187
0.25995069700002205 0.44992672203224227 0.4684904738641915
0.2601496010001938 0.44894968246213973 0.4655593551538837
0.2603591900005995 0.44992672203224227 0.46458231558378116
0.2605949270000565 0.44992672203224227 0.45481191988275516
0.26081897900076 0.44699560332193444 0.44894968246213973
0.2610721230003037 0.44894968246213973 0.4430874450415241
0.2612818790003075 0.44699560332193444 0.441133365901319
0.2614809310007331 0.4460185637518319 0.4352711284807034
0.2616734090006503 0.4450415241817294 0.4323400097703958
0.2618661280002925 0.44699560332193444 0.431362970200293
0.262056995000421 0.44699560332193444 0.4323400097703958
0.26224810300027457 0.44992672203224227 0.43429408891060084
0.2624389890006569 0.4528578407425501 0.4401563263312165
0.26263115300025675 0.44894968246213973 0.4430874450415241
0.2628221310005756 0.4528578407425501 0.44992672203224227
0.2630124610004714 0.45481191988275516 0.45188080117244755
0.26320253200083243 0.4538348803126526 0.4557889594528579
0.263394084000538 0.45481191988275516 0.457743038593063
0.26358519200039154 0.4528578407425501 0.45969711773326827
0.2637773559999914 0.44894968246213973 0.45969711773326827
0.26396857500003534 0.45188080117244755 0.4557889594528579
0.26416077600060817 0.44894968246213973 0.4509037616023448
0.2643510690004405 0.44699560332193444 0.4460185637518319
0.26454134300001897 0.44211040547142155 0.4450415241817294
0.2647322480006551 0.4430874450415241 0.441133365901319
0.2649238930007414 0.4450415241817294 0.4430874450415241
0.2651139450008486 0.4430874450415241 0.4382022471910112
0.26530484900013107 0.441133365901319 0.43917928676111373
0.26549492000049213 0.441133365901319 0.44211040547142155
0.26568497300013405 0.44211040547142155 0.43917928676111373
0.26587572900007217 0.441133365901319 0.4352711284807034
0.2660655220006447 0.44211040547142155 0.43722520762090866
0.2662566670005617 0.4430874450415241 0.43624816805080613
0.2664478490005422 0.4450415241817294 0.4352711284807034
0.2666386610007976 0.4460185637518319 0.43624816805080613
0.2668296020001435 0.4430874450415241 0.43722520762090866
0.2670212470002298 0.44992672203224227 0.4382022471910112
0.26726072400015255 0.4460185637518319 0.43624816805080613
0.26746064700000716 0.4460185637518319 0.43429408891060084
0.2676511620002202 0.44406448461162684 0.43624816805080613
0.26784154800043325 0.4450415241817294 0.4352711284807034
0.26803241500056174 0.44211040547142155 0.43624816805080613
0.268223338000098 0.44406448461162684 0.43722520762090866
0.26841372400031105 0.4479726428920372 0.43429408891060084
0.2686042390005241 0.44894968246213973 0.4323400097703958
0.26879436600029294 0.44992672203224227 0.4333170493404983
0.2689853440006118 0.44992672203224227 0.4401563263312165
0.269176785000127 0.44894968246213973 0.431362970200293
0.26936757900057273 0.44992672203224227 0.43624816805080613
0.26955857500070124 0.4538348803126526 0.4401563263312165
0.26974946100017405 0.45188080117244755 0.4401563263312165
0.2699397910000698 0.4528578407425501 0.44211040547142155
0.27013054700000794 0.4538348803126526 0.4460185637518319
0.2703227850006442 0.4528578407425501 0.4479726428920372
0.2705156710007941 0.45481191988275516 0.4538348803126526
0.2707074450008804 0.4509037616023448 0.4557889594528579
0.2708978680002474 0.4509037616023448 0.45676599902296044
0.27108908700029133 0.45188080117244755 0.45969711773326827
0.27127976900010253 0.44992672203224227 0.45969711773326827
0.271474340000168 0.45188080117244755 0.45676599902296044
0.27166498500082525 0.45188080117244755 0.45676599902296044
0.27185600100074225 0.4479726428920372 0.45676599902296044
0.2720456830002149 0.44894968246213973 0.4538348803126526
0.27223858700017445 0.4509037616023448 0.45676599902296044
0.272429695000028 0.44992672203224227 0.4557889594528579
0.2726297470007921 0.45188080117244755 0.4606741573033708
0.27284418800081767 0.44992672203224227 0.45481191988275516
0.2730430180008625 0.4528578407425501 0.457743038593063
0.2732716070004244 0.4509037616023448 0.4587200781631655
0.2734798440005761 0.45188080117244755 0.4587200781631655
0.2736726560005991 0.44992672203224227 0.4557889594528579
0.2738632080008756 0.4557889594528579 0.45676599902296044
0.2740539090000311 0.44992672203224227 0.4557889594528579
0.2742443690003711 0.4528578407425501 0.4538348803126526
0.27443488400058413 0.4528578407425501 0.4509037616023448
0.2746286030005649 0.44992672203224227 0.45188080117244755
0.27481898900077795 0.44699560332193444 0.4509037616023448
0.2750094490002084 0.44894968246213973 0.4538348803126526
0.2752017420007178 0.4450415241817294 0.4528578407425501
0.2753940530001273 0.44406448461162684 0.45188080117244755
0.2756108650000897 0.4401563263312165 0.45188080117244755
0.27580241700070474 0.44211040547142155 0.45676599902296044
0.27599291400019865 0.441133365901319 0.4587200781631655
0.27618365100079245 0.4450415241817294 0.45969711773326827
0.2763755370006038 0.44406448461162684 0.46262823644357587
0.2765666820005208 0.4430874450415241 0.467513434294089
0.27675843800079747 0.44699560332193444 0.4733756717147044
0.27695339800084184 0.4450415241817294 0.4655593551538837
0.2771443760002512 0.4479726428920372 0.47142159257449934
0.2773369470005491 0.44894968246213973 0.47239863214460187
0.2775275550002334 0.4460185637518319 0.47728382999511476
0.27772040400031983 0.4479726428920372 0.47239863214460187
0.27791193800021574 0.4460185637518319 0.4753297508549097
0.2781022680001115 0.4528578407425501 0.47435271128480694
0.2782920980007475 0.45481191988275516 0.47142159257449934
0.27848274300049525 0.45481191988275516 0.467513434294089
0.27867409200007387 0.45481191988275516 0.4655593551538837
0.27886579200003325 0.4538348803126526 0.4636052760136786
0.2790564370006905 0.4509037616023448 0.46165119687347334
0.2792469340001844 0.4538348803126526 0.4606741573033708
0.27945220900073764 0.4538348803126526 0.4538348803126526
0.27964248300031613 0.4528578407425501 0.44992672203224227
0.27983311000025424 0.45188080117244755 0.4450415241817294
0.280024921000404 0.45188080117244755 0.44406448461162684
0.28021519600042666 0.4538348803126526 0.43917928676111373
0.2804066740000053 0.4538348803126526 0.4352711284807034
0.28059791200030304 0.4538348803126526 0.4352711284807034
0.28078833500057954 0.4528578407425501 0.4323400097703958
0.28097907200026384 0.45188080117244755 0.4323400097703958
0.2811700510001174 0.45188080117244755 0.43429408891060084
0.28136258500035183 0.4528578407425501 0.43429408891060084
0.2815520630001629 0.45188080117244755 0.4352711284807034
0.2817422260004605 0.44992672203224227 0.4352711284807034
0.28193279700008134 0.44894968246213973 0.4352711284807034
0.2821235160008655 0.4479726428920372 0.4352711284807034
0.28231373600010556 0.44699560332193444 0.4352711284807034
0.2825048250006148 0.4460185637518319 0.431362970200293
0.2826960260008491 0.4460185637518319 0.431362970200293
0.2828863000004276 0.4460185637518319 0.4333170493404983
0.28307676000076754 0.4460185637518319 0.4352711284807034
0.28327318300034676 0.4479726428920372 0.4352711284807034
0.28346521700041194 0.4460185637518319 0.43917928676111373
0.28365608400054043 0.4479726428920372 0.43722520762090866
0.28386054300062824 0.44699560332193444 0.43624816805080613
0.28405233700050303 0.4479726428920372 0.4333170493404983
0.2842433150008219 0.44992672203224227 0.4352711284807034
0.28443447800054855 0.44992672203224227 0.431362970200293
0.2846253460002117 0.44406448461162684 0.4333170493404983
0.28481623100014986 0.4450415241817294 0.43429408891060084
0.2850097470000037 0.4460185637518319 0.4401563263312165
0.2852174100007687 0.4430874450415241 0.44406448461162684
0.285427647000688 0.4430874450415241 0.44894968246213973
0.28562245900047856 0.4401563263312165 0.4538348803126526
0.28581488200052263 0.44211040547142155 0.4655593551538837
0.286008378000588 0.441133365901319 0.4655593551538837
0.28619956000056845 0.441133365901319 0.467513434294089
0.28639120500065474 0.4509037616023448 0.4665363947239862
0.28658366500076227 0.4430874450415241 0.46165119687347334
0.2867763290005314 0.441133365901319 0.4606741573033708
0.28696832500008895 0.441133365901319 0.4587200781631655
0.2871617670007254 0.441133365901319 0.457743038593063
0.28736159700019925 0.4401563263312165 0.4587200781631655
0.28756222300035006 0.441133365901319 0.457743038593063
0.28776168300009886 0.44211040547142155 0.4606741573033708
0.2879780680004842 0.4450415241817294 0.46458231558378116
0.28818399100055103 0.4479726428920372 0.4655593551538837
0.2883866170004694 0.4460185637518319 0.4636052760136786
0.28859859500062157 0.44894968246213973 0.46262823644357587
0.2888250540008812 0.44992672203224227 0.457743038593063
0.28906829100014875 0.4460185637518319 0.4528578407425501
0.28935349000039423 0.4460185637518319 0.4460185637518319
0.2896246340005746 0.4460185637518319 0.4382022471910112
0.2898642590007512 0.4479726428920372 0.43624816805080613
0.29008149600031174 0.44992672203224227 0.431362970200293
0.29030319600042276 0.4460185637518319 0.4264777723497801
0.2905277110003226 0.44894968246213973 0.4303859306301905
0.29074318900075014 0.44992672203224227 0.4264777723497801
0.2909581120002258 0.4479726428920372 0.42256961406936977
0.29120607000004384 0.44699560332193444 0.412799218368344
0.2915149170003133 0.4479726428920372 0.4059599413776258
0.2917541170008917 0.45188080117244755 0.39912066438690763
0.29204970500086347 0.4479726428920372 0.38935026868588185
0.29234171799998876 0.44699560332193444 0.38641914997557403
0.2925921220003147 0.4479726428920372 0.3932584269662922
0.29283302500061836 0.45188080117244755 0.4010747435271129
0.2931027800004813 0.4557889594528579 0.41182217879824123
0.2933660900007453 0.45188080117244755 0.4176844162188569
0.2935632170001554 0.4538348803126526 0.4255007327796776
0.2937540840002839 0.4538348803126526 0.4333170493404983
0.29394504400079313 0.45481191988275516 0.4352711284807034
0.2941356330002236 0.45481191988275516 0.44211040547142155
0.2943270380001195 0.457743038593063 0.44699560332193444
0.294517590000396 0.4538348803126526 0.4528578407425501
0.29470966100052465 0.45676599902296044 0.4587200781631655
0.294900195000082 0.45676599902296044 0.4665363947239862
0.29509369200059155 0.4538348803126526 0.47435271128480694
0.2952862250003818 0.457743038593063 0.4753297508549097
0.2954873150001731 0.457743038593063 0.47728382999511476
0.2956784600000901 0.45676599902296044 0.4782608695652173
0.2958691970006839 0.45676599902296044 0.47728382999511476
0.2960596570001144 0.4636052760136786 0.47239863214460187
0.29625148700051795 0.4587200781631655 0.46946751343429405
0.29644257700056187 0.4538348803126526 0.467513434294089
0.2966332590003731 0.4528578407425501 0.4665363947239862
0.29682288500043796 0.45481191988275516 0.46946751343429405
0.2970129010000164 0.4538348803126526 0.4733756717147044
0.29720319400075823 0.45481191988275516 0.4811919882755251
0.29739558000073885 0.4538348803126526 0.48412310698583294
0.29758600200057117 0.4528578407425501 0.4909623839765511
0.2977861470008065 0.45676599902296044 0.4938935026868587
0.2979765510008292 0.4509037616023448 0.4929164631167562
0.29816740000023856 0.4509037616023448 0.4948705422569615
0.29835852700034593 0.44992672203224227 0.4929164631167562
0.2985503380004957 0.44894968246213973 0.49682462139716654
0.2987416870000743 0.44992672203224227 0.49193942354665365
0.2989322950006681 0.4557889594528579 0.4880312652662433
0.29912288400009857 0.44992672203224227 0.4880312652662433
0.29931304800084035 0.4479726428920372 0.48900830483634583
0.29952069300088624 0.4460185637518319 0.4851001465559355
0.2997125600004438 0.4479726428920372 0.4802149487054226
0.29990426000040316 0.44894968246213973 0.4811919882755251
0.3000955540001087 0.4509037616023448 0.47923790913532005
0.30028593900078704 0.4509037616023448 0.4831460674157304
0.3004761950005559 0.4509037616023448 0.4831460674157304
0.30066672900011326 0.45188080117244755 0.48412310698583294
0.3008568000004743 0.44992672203224227 0.486077186126038
0.30104674200083537 0.44992672203224227 0.47923790913532005
0.3012372940002024 0.44992672203224227 0.47728382999511476
0.3014438460004385 0.44992672203224227 0.47239863214460187
0.30163417600033426 0.44894968246213973 0.47142159257449934
0.3018242290008857 0.44894968246213973 0.467513434294089
0.30201481800031615 0.4479726428920372 0.46262823644357587
0.30220596300023317 0.44992672203224227 0.4606741573033708
0.3023962010001924 0.44992672203224227 0.4606741573033708
0.302586679000342 0.44699560332193444 0.4636052760136786
0.30277715700049157 0.44894968246213973 0.46165119687347334
0.30296743200051424 0.4479726428920372 0.45969711773326827
0.3031589100000929 0.44992672203224227 0.4557889594528579
0.3033517040003062 0.4509037616023448 0.45188080117244755
0.3035432930000752 0.4509037616023448 0.44992672203224227
0.3037344750000557 0.44894968246213973 0.4479726428920372
0.3039255090006918 0.44894968246213973 0.44699560332193444
0.3041162470008203 0.44992672203224227 0.441133365901319
0.3043061320004199 0.4479726428920372 0.43917928676111373
0.30449653700088675 0.44699560332193444 0.4382022471910112
0.3046865330006767 0.4479726428920372 0.4382022471910112
0.30487684500076284 0.4450415241817294 0.43624816805080613
0.30506752700057405 0.44894968246213973 0.43624816805080613
0.3052671530003863 0.44699560332193444 0.43624816805080613
0.3054594100003669 0.44406448461162684 0.4352711284807034
0.30565925800055993 0.44211040547142155 0.4323400097703958
0.30586853200020414 0.441133365901319 0.42745481191988266
0.3060857140008011 0.441133365901319 0.4284318514899854
0.3062972110001283 0.44406448461162684 0.4284318514899854
0.3064962070002366 0.44699560332193444 0.4264777723497801
0.30668627800059767 0.44699560332193444 0.4284318514899854
0.3068773680006416 0.44699560332193444 0.4284318514899854
0.30706927200026257 0.44894968246213973 0.42940889106008795
0.3072593240003698 0.45481191988275516 0.4303859306301905
0.3074719690002894 0.44406448461162684 0.4284318514899854
0.3076634290000584 0.44406448461162684 0.42940889106008795
0.3078537030005464 0.4460185637518319 0.4303859306301905
0.30804379300025175 0.441133365901319 0.4284318514899854
0.30823766000048636 0.4430874450415241 0.4323400097703958
0.3084283240004879 0.44699560332193444 0.4323400097703958
0.30861889500010875 0.441133365901319 0.4382022471910112
0.30880929900013143 0.441133365901319 0.44211040547142155
0.3089994250003656 0.44406448461162684 0.4430874450415241
0.3091894590006632 0.4430874450415241 0.44894968246213973
0.3093802710000091 0.4479726428920372 0.45188080117244755
0.30960076700011996 0.4479726428920372 0.4528578407425501
0.30979235700033314 0.44406448461162684 0.4606741573033708
0.30998309400001745 0.4479726428920372 0.4587200781631655
0.3101732950008227 0.4450415241817294 0.46458231558378116
0.31036349500027427 0.4430874450415241 0.4636052760136786
0.3105541960003393 0.4460185637518319 0.4684904738641915
0.3107446930007427 0.4450415241817294 0.4684904738641915
0.310936338000829 0.4460185637518319 0.47142159257449934
0.3111257980008304 0.4450415241817294 0.4704445530043966
0.3113162950003243 0.44699560332193444 0.47142159257449934
0.31152929100062465 0.44699560332193444 0.46946751343429405
0.31171989900030894 0.44406448461162684 0.46458231558378116
0.31191021100039507 0.44211040547142155 0.4587200781631655
0.3121012450001217 0.4460185637518319 0.45188080117244755
0.3122919820007155 0.44406448461162684 0.4460185637518319
0.31248205300016707 0.4450415241817294 0.441133365901319
0.31267486500019004 0.4460185637518319 0.4401563263312165
0.3128658430005089 0.4479726428920372 0.43722520762090866
0.3130568580008912 0.44699560332193444 0.4352711284807034
0.3132472070001313 0.4479726428920372 0.43624816805080613
0.313437611000154 0.44992672203224227 0.44211040547142155
0.31362910799998645 0.44992672203224227 0.43917928676111373
0.3138198270007706 0.44992672203224227 0.43917928676111373
0.31401223200009554 0.44894968246213973 0.43722520762090866
0.31420376500045677 0.4509037616023448 0.44211040547142155
0.31439452200083906 0.44894968246213973 0.44211040547142155
0.31458459200075595 0.4528578407425501 0.44211040547142155
0.31477558900041913 0.4509037616023448 0.4401563263312165
0.3149666970002727 0.45481191988275516 0.44211040547142155
0.31515775000025315 0.45188080117244755 0.4430874450415241
0.3153536540003188 0.4528578407425501 0.43624816805080613
0.31554326200057403 0.4528578407425501 0.43429408891060084
0.3157335920004698 0.4528578407425501 0.4352711284807034
0.3159241260000272 0.4538348803126526 0.43722520762090866
0.3161155300003884 0.45188080117244755 0.4382022471910112
0.3163066200004323 0.4538348803126526 0.4382022471910112
0.316497024000455 0.45481191988275516 0.4382022471910112
0.3166875020006046 0.45481191988275516 0.4430874450415241
0.31687783200050035 0.4538348803126526 0.44699560332193444
0.3170682370000577 0.4528578407425501 0.4509037616023448
0.31726015900039783 0.4557889594528579 0.4538348803126526
0.3174510080007167 0.4528578407425501 0.45676599902296044
0.3176592460004031 0.4528578407425501 0.4587200781631655
0.3178643160008505 0.4538348803126526 0.45969711773326827
0.3180551090008521 0.45188080117244755 0.457743038593063
0.31824699500066345 0.45188080117244755 0.4538348803126526
0.3184540840002228 0.4528578407425501 0.45481191988275516
0.31866484000056516 0.4479726428920372 0.4538348803126526
0.31885959600003844 0.45188080117244755 0.4538348803126526
0.3190527230008229 0.457743038593063 0.45676599902296044
0.31924940400040214 0.4538348803126526 0.457743038593063
0.3194513270000243 0.4509037616023448 0.4587200781631655
0.31964247200085083 0.45188080117244755 0.45676599902296044
0.3198329320002813 0.4509037616023448 0.45969711773326827
0.3200235950007482 0.4509037616023448 0.4538348803126526
0.3202138520000517 0.4528578407425501 0.4557889594528579
0.32040462600070896 0.4509037616023448 0.45676599902296044
0.3205961230005414 0.45188080117244755 0.45969711773326827
0.3207943420002266 0.44992672203224227 0.4655593551538837
0.3209902280004826 0.44894968246213973 0.4665363947239862
0.321188706000612 0.44894968246213973 0.47239863214460187
0.3213808880000215 0.44992672203224227 0.47923790913532005
0.32158277300004556 0.44992672203224227 0.4851001465559355
0.32178715900045063 0.44992672203224227 0.4851001465559355
0.32198904500000936 0.44894968246213973 0.48705422569614076
0.3221938560000126 0.4479726428920372 0.4831460674157304
0.3223976670005868 0.44699560332193444 0.4802149487054226
0.3225986270008434 0.44699560332193444 0.4831460674157304
0.3228123640001286 0.44992672203224227 0.4782608695652173
0.32303930500074785 0.44894968246213973 0.4802149487054226
0.3232867080005235 0.4509037616023448 0.47923790913532005
0.32361948100060545 0.4509037616023448 0.47728382999511476
0.323878958000023 0.44992672203224227 0.47435271128480694
0.32411104700076976 0.44894968246213973 0.4733756717147044
0.32431678400007513 0.4479726428920372 0.46946751343429405
0.32452163200014184 0.4479726428920372 0.4655593551538837
0.3247234070004197 0.44894968246213973 0.45969711773326827
0.3249319030001061 0.4479726428920372 0.4557889594528579
0.32516695499998605 0.4479726428920372 0.44992672203224227
0.325406433000353 0.44894968246213973 0.4460185637518319
0.32564511400050833 0.44894968246213973 0.441133365901319
0.3258745730008741 0.45188080117244755 0.43624816805080613
0.32612171700020554 0.4538348803126526 0.4333170493404983
0.32634901000074024 0.45188080117244755 0.4323400097703958
0.32657278400074574 0.45188080117244755 0.42940889106008795
0.3267755770002623 0.4509037616023448 0.4323400097703958
0.32700933200067084 0.44894968246213973 0.4255007327796776
0.3272230690008655 0.44699560332193444 0.41963849535906195
0.32751169400034996 0.4509037616023448 0.42256961406936977
0.3277371350004614 0.4479726428920372 0.41475329750854906
0.3279395760000625 0.4479726428920372 0.4157303370786516
0.3281312400004026 0.4509037616023448 0.41475329750854906
0.32832194000002346 0.44992672203224227 0.4186614557889594
0.32851197400032106 0.44992672203224227 0.4186614557889594
0.32870147100038594 0.44992672203224227 0.41963849535906195
0.3288928940000915 0.4479726428920372 0.42159257449926724
0.3290829280003891 0.44699560332193444 0.4264777723497801
0.32927312800075015 0.4460185637518319 0.4284318514899854
0.3294631250000748 0.4479726428920372 0.4284318514899854
0.32965291800064733 0.4460185637518319 0.42940889106008795
0.3298431190005431 0.44699560332193444 0.42940889106008795
0.3300332820008407 0.4479726428920372 0.43429408891060084
0.33022353800060955 0.44992672203224227 0.43429408891060084
0.33041299800061097 0.4460185637518319 0.4333170493404983
0.3306034030001683 0.44699560332193444 0.43624816805080613
0.3308133810005529 0.44699560332193444 0.4382022471910112
0.33100419200036413 0.4479726428920372 0.4401563263312165
0.3312081700005365 0.4509037616023448 0.44406448461162684
0.3314041490002637 0.4479726428920372 0.45188080117244755
0.33159659000011743 0.4479726428920372 0.4538348803126526
0.33178656800009776 0.4479726428920372 0.45676599902296044
0.33197802800077625 0.4479726428920372 0.4587200781631655
0.332168229000672 0.4509037616023448 0.4655593551538837
0.33235841100031394 0.44992672203224227 0.46458231558378116
0.3325487220008654 0.44894968246213973 0.467513434294089
0.33273897800063423 0.44894968246213973 0.46458231558378116
0.3329289940002127 0.4479726428920372 0.46458231558378116
0.33312049100004515 0.4509037616023448 0.46262823644357587
0.3333109500008504 0.4509037616023448 0.4606741573033708
0.3335022070004925 0.44992672203224227 0.4587200781631655
0.33369220300028246 0.4509037616023448 0.457743038593063
0.3338822560008339 0.4479726428920372 0.4587200781631655
0.3340730680001798 0.4509037616023448 0.457743038593063
0.3342631760006043 0.44894968246213973 0.45676599902296044
0.3344532460005212 0.45481191988275516 0.457743038593063
0.33464528000058635 0.45188080117244755 0.4528578407425501
0.33483512900056667 0.4538348803126526 0.45676599902296044
0.33502527400014515 0.44992672203224227 0.4509037616023448
0.33522517800065543 0.4509037616023448 0.45188080117244755
0.33542778600076417 0.44992672203224227 0.4528578407425501
0.33561885700055427 0.45188080117244755 0.45676599902296044
0.33580905700000585 0.4538348803126526 0.4587200781631655
0.33599911000055727 0.4538348803126526 0.46458231558378116
0.3361909770001148 0.45188080117244755 0.46946751343429405
0.33638151100058167 0.4528578407425501 0.4733756717147044
0.33657178600060433 0.4538348803126526 0.47239863214460187
0.33676241200009827 0.4538348803126526 0.4782608695652173
0.3369524090003324 0.4528578407425501 0.47239863214460187
0.33714631300063047 0.4528578407425501 0.4763067904250122
0.3373360510004204 0.4538348803126526 0.4704445530043966
0.33752675100004126 0.4528578407425501 0.4665363947239862
0.33771898900067754 0.45188080117244755 0.4665363947239862
0.33790780100025586 0.4528578407425501 0.46458231558378116
0.33809744600057456 0.4538348803126526 0.4655593551538837
0.3382879610007876 0.4538348803126526 0.46165119687347334
0.33847793900076795 0.457743038593063 0.46165119687347334
0.33866797300015605 0.457743038593063 0.4636052760136786
0.338858433000496 0.45676599902296044 0.4655593551538837
0.33905889300058334 0.45481191988275516 0.45969711773326827
0.3392837960000179 0.4538348803126526 0.4557889594528579
0.3395155700000032 0.4528578407425501 0.4509037616023448
0.33973386300021957 0.45188080117244755 0.4450415241817294
0.33996150700022554 0.4509037616023448 0.43917928676111373
0.3401991700002327 0.4538348803126526 0.43917928676111373
0.34040751900010946 0.44992672203224227 0.4401563263312165
0.3406001270004708 0.4509037616023448 0.4382022471910112
0.3407903460001762 0.45188080117244755 0.43624816805080613
0.34098097200057964 0.45188080117244755 0.4382022471910112
0.34117126500041195 0.4509037616023448 0.43722520762090866
0.34136150300037116 0.45188080117244755 0.43917928676111373
0.34155135200035147 0.4538348803126526 0.44211040547142155
0.3417438670003321 0.44992672203224227 0.4401563263312165
0.3419339010006297 0.4479726428920372 0.44211040547142155
0.3421241200003351 0.4509037616023448 0.44211040547142155
0.3423133950000192 0.44992672203224227 0.4450415241817294
0.34251026200035994 0.44894968246213973 0.4479726428920372
0.342701536000277 0.44699560332193444 0.4479726428920372
0.3428921070008073 0.44699560332193444 0.44992672203224227
0.34308210400013195 0.4479726428920372 0.4509037616023448
0.3435523930002091 0.44699560332193444 0.4509037616023448
0.3437593520002338 0.4450415241817294 0.4479726428920372
0.34395112700076425 0.44699560332193444 0.44992672203224227
0.3441414020007869 0.4450415241817294 0.44992672203224227
0.34433126900057687 0.4479726428920372 0.44894968246213973
0.344521710000663 0.44699560332193444 0.4538348803126526
0.3447134290008762 0.4460185637518319 0.4557889594528579
0.3449037220007085 0.44992672203224227 0.4528578407425501
0.3450933670001177 0.4509037616023448 0.4528578407425501
0.3452836420001404 0.44894968246213973 0.4528578407425501
0.34547358300005726 0.44992672203224227 0.44992672203224227
0.3456641730008414 0.45188080117244755 0.4460185637518319
0.3458541880008852 0.44992672203224227 0.441133365901319
0.34604420400046365 0.44992672203224227 0.4382022471910112
0.34623442300016904 0.44894968246213973 0.43429408891060084
0.3464243450007416 0.44894968246213973 0.43429408891060084
0.3466148420002355 0.45188080117244755 0.4352711284807034
0.34680465400015237 0.4460185637518319 0.43917928676111373
0.34699415100021724 0.44699560332193444 0.44406448461162684
0.347185203000663 0.44992672203224227 0.45188080117244755
0.34737673700055893 0.44894968246213973 0.4528578407425501
0.34756710400051816 0.44992672203224227 0.457743038593063
0.34775830500075244 0.44992672203224227 0.45481191988275516
0.34794846800014056 0.44992672203224227 0.4538348803126526
0.34813883600054396 0.44894968246213973 0.45188080117244755
0.34832846200060885 0.4538348803126526 0.4450415241817294
0.34851842200077954 0.44992672203224227 0.4450415241817294
0.3487091410006542 0.4460185637518319 0.441133365901319
0.3489009160002752 0.4460185637518319 0.44211040547142155
0.34909300500021345 0.4460185637518319 0.44211040547142155
0.34928355800002464 0.4450415241817294 0.44406448461162684
0.3494738880008299 0.4460185637518319 0.4401563263312165
0.34966395900028147 0.4450415241817294 0.4401563263312165
0.3498546780001561 0.4460185637518319 0.44211040547142155
0.3500454520008134 0.4460185637518319 0.44211040547142155
0.3502357830002438 0.4460185637518319 0.4430874450415241
0.3504255200004991 0.4460185637518319 0.44211040547142155
0.3506148500000563 0.4479726428920372 0.441133365901319
0.3508046250008192 0.4479726428920372 0.441133365901319
0.35099577000073623 0.4460185637518319 0.4430874450415241
0.3511857110006531 0.44992672203224227 0.4430874450415241
0.3513765420002528 0.44992672203224227 0.4450415241817294
0.3515668160007408 0.4509037616023448 0.4450415241817294
0.35175748000074236 0.4538348803126526 0.441133365901319
0.35196036500019545 0.4528578407425501 0.44211040547142155
0.3521503620004296 0.4538348803126526 0.43917928676111373
0.352340266000283 0.45188080117244755 0.4401563263312165
0.35253117100000964 0.45481191988275516 0.441133365901319
0.35272198200073035 0.4509037616023448 0.441133365901319
0.3529161270007535 0.4528578407425501 0.44992672203224227
0.35310732800007827 0.45188080117244755 0.4460185637518319
0.3532973990004393 0.45188080117244755 0.4450415241817294
0.3534897470008218 0.44894968246213973 0.44699560332193444
0.3536820040008024 0.44894968246213973 0.44211040547142155
0.3538746110007196 0.4479726428920372 0.44406448461162684
0.3540929410000899 0.44992672203224227 0.44211040547142155
0.35429406800085417 0.4479726428920372 0.4450415241817294
0.35449324900037027 0.44406448461162684 0.4509037616023448
0.354689394000161 0.44699560332193444 0.4557889594528579
0.354888039000798 0.44992672203224227 0.45676599902296044
0.35508720300003915 0.4509037616023448 0.46165119687347334
0.35528334800073935 0.4509037616023448 0.4655593551538837
0.35550419600076566 0.45481191988275516 0.4665363947239862
0.3557236370006649 0.45676599902296044 0.47239863214460187
0.3559716510008002 0.45188080117244755 0.46946751343429405
0.3561761850005496 0.4538348803126526 0.4704445530043966
0.35638340300010896 0.4509037616023448 0.4733756717147044
0.3565936780005359 0.4538348803126526 0.4733756717147044
0.3568088590000116 0.4538348803126526 0.4753297508549097
0.35704894800073816 0.4528578407425501 0.47728382999511476
0.35734936900007597 0.45188080117244755 0.4763067904250122
0.357632179000575 0.4528578407425501 0.4811919882755251
0.3579017300007763 0.45188080117244755 0.47435271128480694
0.3581455970006573 0.4528578407425501 0.47142159257449934
0.3583867960005591 0.45188080117244755 0.4704445530043966
0.35859890400024597 0.4528578407425501 0.47142159257449934
0.3588077340000382 0.4557889594528579 0.4704445530043966
0.3590061750001041 0.45676599902296044 0.46946751343429405
0.3591998940000849 0.457743038593063 0.46946751343429405
0.3593985950001297 0.4557889594528579 0.4655593551538837
0.35959233200082963 0.45676599902296044 0.46262823644357587
0.3597829960008312 0.45481191988275516 0.4606741573033708
0.359973567000452 0.4557889594528579 0.4606741573033708
0.3601640820006651 0.4557889594528579 0.46165119687347334
0.3603601710001385 0.45676599902296044 0.45969711773326827
0.36057735300073546 0.457743038593063 0.4538348803126526
0.36082718200032105 0.44894968246213973 0.45188080117244755
0.36112188100014464 0.4509037616023448 0.44894968246213973
0.3613469140000234 0.4509037616023448 0.44699560332193444
0.36159731800034933 0.44894968246213973 0.4479726428920372
0.3618274990003556 0.4509037616023448 0.4479726428920372
0.36205697700006567 0.44992672203224227 0.4479726428920372
0.36227956600032485 0.44992672203224227 0.44699560332193444
0.3624880810002651 0.44699560332193444 0.4460185637518319
0.36269474400069157 0.44699560332193444 0.44699560332193444
0.362897611000335 0.4460185637518319 0.44894968246213973
0.36310734800008504 0.4479726428920372 0.4401563263312165
0.36331878900000447 0.4460185637518319 0.43429408891060084
0.3635646740003722 0.4450415241817294 0.4255007327796776
0.36378063300071517 0.44699560332193444 0.4176844162188569
0.36399711100057175 0.44699560332193444 0.412799218368344
0.36419768200084945 0.4509037616023448 0.4108451392281387
0.3644047900006626 0.4479726428920372 0.4137762579384465
0.3646078050005599 0.44992672203224227 0.41963849535906195
0.3648136159999922 0.44699560332193444 0.4206155349291647
0.3650134280005659 0.4479726428920372 0.42745481191988266
0.3652268690002529 0.45188080117244755 0.4323400097703958
0.36548595700060105 0.4450415241817294 0.4382022471910112
0.36571467600060714 0.44699560332193444 0.44211040547142155
0.3659133200008 0.4460185637518319 0.44699560332193444
0.36610722500063275 0.4509037616023448 0.4509037616023448
0.36629946200082486 0.44699560332193444 0.4509037616023448
0.3664916630004882 0.4528578407425501 0.45188080117244755
0.36669051100034267 0.4528578407425501 0.44894968246213973
0.36690258200087555 0.45188080117244755 0.44406448461162684
0.36710331900030724 0.44894968246213973 0.43917928676111373
0.367305612000564 0.4509037616023448 0.4323400097703958
0.36754751600074087 0.45188080117244755 0.4284318514899854
0.3677621420001742 0.44992672203224227 0.4323400097703958
0.3679677680001987 0.45188080117244755 0.43624816805080613
0.36817995000001247 0.4538348803126526 0.4430874450415241
0.3684123350003574 0.45676599902296044 0.4479726428920372
0.3686465530008718 0.45676599902296044 0.44894968246213973
0.3688767530002224 0.45481191988275516 0.4479726428920372
0.3690888980008822 0.45676599902296044 0.4450415241817294
0.36929248700016615 0.45481191988275516 0.44406448461162684
0.36949292799999967 0.4557889594528579 0.4382022471910112
0.36971253600040654 0.4557889594528579 0.4352711284807034
0.36999969800035615 0.4538348803126526 0.42452369320957506
0.37022391600021365 0.45481191988275516 0.42940889106008795
0.37041902400051185 0.44992672203224227 0.431362970200293
0.37067411200041533 0.44894968246213973 0.43722520762090866
0.3708852570007366 0.4509037616023448 0.4401563263312165
0.3710810690008657 0.44992672203224227 0.441133365901319
0.3712849540006573 0.45188080117244755 0.4460185637518319
0.3715094870003668 0.45188080117244755 0.44992672203224227
0.3717270950000966 0.44894968246213973 0.4509037616023448
0.37194498000008025 0.4509037616023448 0.4587200781631655
0.37215244000071834 0.4460185637518319 0.457743038593063
0.3723514180001075 0.4509037616023448 0.45969711773326827
0.3725434330008284 0.4509037616023448 0.4655593551538837
0.3727340040004492 0.4479726428920372 0.4684904738641915
0.37292679700021836 0.44699560332193444 0.47239863214460187
0.37311877600041043 0.4479726428920372 0.4753297508549097
0.37331056900075055 0.44699560332193444 0.47923790913532005
0.3735093620007319 0.4460185637518319 0.4831460674157304
0.37372221000077843 0.4479726428920372 0.48998534440644836
0.373937966000085 0.44894968246213973 0.4938935026868587
0.37413648100027785 0.4479726428920372 0.5036638983878847
0.3743270150007447 0.44699560332193444 0.5056179775280898
0.37451654900087306 0.44992672203224227 0.5026868588177822
0.374707175000367 0.4509037616023448 0.49975574010747437
0.3748986540003898 0.4460185637518319 0.495847581827064
0.37508968800011644 0.44699560332193444 0.4938935026868587
0.3752793700004986 0.44406448461162684 0.48705422569614076
0.3754744040006699 0.4479726428920372 0.4811919882755251
0.375666363000164 0.44699560332193444 0.4811919882755251
0.3758562310003981 0.44894968246213973 0.4782608695652173
0.3760469500002728 0.4479726428920372 0.47435271128480694
0.37623742800042237 0.44699560332193444 0.467513434294089
0.37642870300078357 0.45481191988275516 0.4655593551538837
0.3766195330008486 0.44992672203224227 0.4509037616023448
0.3768099370008713 0.4528578407425501 0.4450415241817294
0.3770001750008305 0.4538348803126526 0.4382022471910112
0.3771900600004301 0.45188080117244755 0.4352711284807034
0.37738033500045276 0.45188080117244755 0.42452369320957506
0.37757055400015815 0.4509037616023448 0.4206155349291647
0.3777626250002868 0.45188080117244755 0.4206155349291647
0.37795336300041527 0.4509037616023448 0.4206155349291647
0.3781436560002476 0.44992672203224227 0.4235466536394723
0.37833550499999546 0.44992672203224227 0.42745481191988266
0.378554501000508 0.4528578407425501 0.43624816805080613
0.3787453680006365 0.4557889594528579 0.43917928676111373
0.3789357910000035 0.4528578407425501 0.4460185637518319
0.3791291950001323 0.4509037616023448 0.4528578407425501
0.37934826600030647 0.44992672203224227 0.4587200781631655
0.3795602990003317 0.44894968246213973 0.4587200781631655
0.3797715919999973 0.44992672203224227 0.457743038593063
0.3799692740003593 0.44699560332193444 0.45188080117244755
0.38016001200048777 0.44894968246213973 0.44699560332193444
0.3803518230006375 0.45188080117244755 0.4450415241817294
0.38054382000063924 0.4479726428920372 0.4401563263312165
0.380734021000535 0.4479726428920372 0.4382022471910112
0.38092538800083275 0.44699560332193444 0.4382022471910112
0.38111573700007284 0.44699560332193444 0.44211040547142155
0.3813062520002859 0.4479726428920372 0.44699560332193444
0.3814951930007737 0.4479726428920372 0.44894968246213973
0.3816851350002253 0.44894968246213973 0.44992672203224227
0.3818766130007134 0.4479726428920372 0.4509037616023448
0.38206648000050336 0.44992672203224227 0.45188080117244755
0.38225964400044177 0.44992672203224227 0.4509037616023448
0.3824782880001294 0.44894968246213973 0.44992672203224227
0.3826692480006386 0.44894968246213973 0.44992672203224227
0.38285976300085167 0.44894968246213973 0.45188080117244755
0.3830499640007474 0.4479726428920372 0.44992672203224227
0.38324005300000863 0.45188080117244755 0.44894968246213973
0.38346430900037376 0.4509037616023448 0.44894968246213973
0.38365445400086173 0.4509037616023448 0.4479726428920372
0.38384454300012294 0.45188080117244755 0.44992672203224227
0.3840346330007378 0.44992672203224227 0.44894968246213973
0.3842247590000625 0.45188080117244755 0.44992672203224227
0.3844153490008466 0.44894968246213973 0.45188080117244755
0.3846060860005309 0.4479726428920372 0.45481191988275516
0.3847961760002363 0.44992672203224227 0.45676599902296044
0.384986265000407 0.4509037616023448 0.45969711773326827
0.385176966000472 0.44894968246213973 0.4636052760136786
0.3853670000007696 0.4509037616023448 0.46458231558378116
0.3855569600000308 0.4509037616023448 0.4636052760136786
0.38574901200081513 0.44894968246213973 0.46262823644357587
0.3859471570003734 0.4509037616023448 0.4606741573033708
0.38619033800023317 0.4479726428920372 0.45676599902296044
0.38642253800026083 0.44699560332193444 0.4528578407425501
0.3866183120007918 0.4479726428920372 0.4528578407425501
0.38680971700068767 0.4479726428920372 0.44894968246213973
0.38702101000035327 0.4479726428920372 0.44211040547142155
0.387214173000757 0.44894968246213973 0.43917928676111373
0.38743128100031754 0.44699560332193444 0.4333170493404983
0.38762274000055186 0.4450415241817294 0.42940889106008795
0.3878135340000881 0.4460185637518319 0.42452369320957506
0.3880041230004281 0.4460185637518319 0.42159257449926724
0.38819400900047185 0.45188080117244755 0.42256961406936977
0.38838630200007174 0.44894968246213973 0.4284318514899854
0.3885764470005597 0.44699560332193444 0.4264777723497801
0.38876696200077276 0.441133365901319 0.42745481191988266
0.3889572550006051 0.44992672203224227 0.431362970200293
0.38914753000062774 0.44894968246213973 0.4284318514899854
0.3893373420005446 0.4479726428920372 0.431362970200293
0.38952780200088455 0.4509037616023448 0.43722520762090866
0.38971800200033613 0.45188080117244755 0.4352711284807034
0.3899076840007183 0.45188080117244755 0.43722520762090866
0.3900979770005506 0.4509037616023448 0.43624816805080613
0.3902890480003407 0.4509037616023448 0.4323400097703958
0.3904825270001311 0.45188080117244755 0.431362970200293
0.3906748570007039 0.4479726428920372 0.431362970200293
0.3908644090006419 0.4479726428920372 0.43624816805080613
0.39105479500085494 0.4479726428920372 0.43624816805080613
0.3912444770003276 0.44699560332193444 0.43917928676111373
0.39145873300003586 0.44992672203224227 0.441133365901319
0.3916492850003124 0.4528578407425501 0.44406448461162684
0.3918387450003138 0.45188080117244755 0.4450415241817294
0.39202894600020954 0.44992672203224227 0.4460185637518319
0.3922187020007186 0.45188080117244755 0.44699560332193444
0.3924112540007627 0.45188080117244755 0.4430874450415241
0.39261197300038475 0.45188080117244755 0.44211040547142155
0.392815581000832 0.44894968246213973 0.4450415241817294
0.39301848500053893 0.44894968246213973 0.4430874450415241
0.3932150370001182 0.45188080117244755 0.44406448461162684
0.39340634900054283 0.44894968246213973 0.44406448461162684
0.3935966600001848 0.45188080117244755 0.4430874450415241
0.39378719400065165 0.45188080117244755 0.441133365901319
0.3939777650002725 0.44992672203224227 0.43624816805080613
0.3941674840007181 0.44894968246213973 0.43429408891060084
0.3943573890001062 0.45188080117244755 0.4382022471910112
0.3945476630005942 0.4538348803126526 0.4352711284807034
0.39473812300002464 0.4528578407425501 0.4382022471910112
0.3949558970007274 0.45188080117244755 0.43917928676111373
0.3951464310002848 0.4538348803126526 0.441133365901319
0.39536094600043725 0.45188080117244755 0.44699560332193444
0.3955531650008197 0.4538348803126526 0.4528578407425501
0.39574329200058855 0.4528578407425501 0.457743038593063
0.3959331590003785 0.4557889594528579 0.46165119687347334
0.39612276700063376 0.4528578407425501 0.4655593551538837
0.3963146530004451 0.4557889594528579 0.467513434294089
0.3965055940007005 0.45188080117244755 0.4704445530043966
0.3966957200000252 0.45188080117244755 0.4704445530043966
0.39688523600034387 0.45188080117244755 0.4684904738641915
0.39707525100038765 0.4509037616023448 0.4704445530043966
0.39726471100038907 0.44992672203224227 0.4753297508549097
0.39745465200030594 0.44894968246213973 0.4684904738641915
0.397644594000667 0.44894968246213973 0.4684904738641915
0.3978357940004571 0.44699560332193444 0.46946751343429405
0.39802619900001446 0.44894968246213973 0.4684904738641915
0.398215992000587 0.4509037616023448 0.4665363947239862
0.39840513700073643 0.4509037616023448 0.4684904738641915
0.3985958560006111 0.45481191988275516 0.4655593551538837
0.3987861490004434 0.45188080117244755 0.4665363947239862
0.39897614600067755 0.44894968246213973 0.46165119687347334
0.39916584600086935 0.4450415241817294 0.4587200781631655
0.3993572140007018 0.4479726428920372 0.4557889594528579
0.39954800700070336 0.4450415241817294 0.4587200781631655
0.39973755900064134 0.4509037616023448 0.4655593551538837
0.3999270560007062 0.44992672203224227 0.45969711773326827
0.4001165530007711 0.44894968246213973 0.46165119687347334
0.4003066610002861 0.44406448461162684 0.46165119687347334
0.4004966950005837 0.4430874450415241 0.46165119687347334
0.4006863950007755 0.4479726428920372 0.46262823644357587
0.40087663300073473 0.4509037616023448 0.46165119687347334
0.4010666300000594 0.4479726428920372 0.46458231558378116
0.40125670100042043 0.44992672203224227 0.467513434294089
0.4014465870004642 0.4479726428920372 0.4665363947239862
0.4016362130005291 0.45188080117244755 0.467513434294089
0.4018261360006363 0.44894968246213973 0.46946751343429405
0.4020157620007012 0.4509037616023448 0.467513434294089
0.40220609300013166 0.44699560332193444 0.46946751343429405
0.4023964040006831 0.44894968246213973 0.4704445530043966
0.40258614200047305 0.4479726428920372 0.45969711773326827
0.4027753420004956 0.4479726428920372 0.45676599902296044
0.40296463600043353 0.44894968246213973 0.45188080117244755
0.4031547070007946 0.4509037616023448 0.44992672203224227
0.40335405500081833 0.4509037616023448 0.4460185637518319
0.40354418200058717 0.44894968246213973 0.4430874450415241
0.4037339559999964 0.44992672203224227 0.4401563263312165
0.40392524900016724 0.4509037616023448 0.43722520762090866
0.4041244870004448 0.44894968246213973 0.4352711284807034
0.4043201130007219 0.4509037616023448 0.43429408891060084
0.4045171660000051 0.44894968246213973 0.4323400097703958
0.40471373600030347 0.4528578407425501 0.42745481191988266
0.4049087890007286 0.44992672203224227 0.42940889106008795
0.4051111740000124 0.44894968246213973 0.4284318514899854
0.405308430000332 0.45676599902296044 0.4303859306301905
0.40550726000037685 0.44894968246213973 0.4264777723497801
0.40571673800059216 0.44992672203224227 0.4176844162188569
0.4059134390008694 0.4450415241817294 0.4176844162188569
0.40611962100047094 0.4430874450415241 0.4157303370786516
0.4063365990004968 0.441133365901319 0.4176844162188569
0.40655389100083994 0.44406448461162684 0.41963849535906195
0.4068145910005114 0.4430874450415241 0.41963849535906195
0.4070848270002898 0.44406448461162684 0.4235466536394723
0.4073930630001996 0.44699560332193444 0.4235466536394723
0.4077077060001102 0.44894968246213973 0.4255007327796776
0.40795231300035084 0.44992672203224227 0.4303859306301905
0.4081906240007811 0.44992672203224227 0.4333170493404983
0.4083965830004672 0.44992672203224227 0.43722520762090866
0.4086122090002391 0.4528578407425501 0.441133365901319
0.4088192799999888 0.4509037616023448 0.4509037616023448
0.40903573900050105 0.45188080117244755 0.4557889594528579
0.40926140200008376 0.4528578407425501 0.45676599902296044
0.40948771300008957 0.45188080117244755 0.457743038593063
0.40971765400081495 0.44992672203224227 0.457743038593063
0.4099363360001007 0.45188080117244755 0.45969711773326827
0.4101773870006582 0.44992672203224227 0.45969711773326827
0.41041992000009486 0.44894968246213973 0.46165119687347334
0.4106443240007138 0.4479726428920372 0.457743038593063
0.4108758200000011 0.4460185637518319 0.45969711773326827
0.411101613000028 0.44699560332193444 0.46165119687347334
0.41137118200003897 0.44992672203224227 0.4704445530043966
0.4116811220001182 0.4538348803126526 0.47239863214460187
0.411889563000841 0.45188080117244755 0.4733756717147044
0.4120982260001256 0.4528578407425501 0.47239863214460187
0.4123085000001083 0.45481191988275516 0.4704445530043966
0.4125138670005981 0.45481191988275516 0.4606741573033708
0.41278954800054635 0.4538348803126526 0.46262823644357587
0.41307658000005176 0.4509037616023448 0.45676599902296044
0.4133300200001031 0.4528578407425501 0.4587200781631655
0.41353712800082576 0.45188080117244755 0.46165119687347334
