0 0.4636052760136786 0.6355642403517343
0.00031954800033417996 0.45969711773326827 0.6111382510991694
0.000526877000083914 0.457743038593063 0.5837811431362969
0.000726039000255696 0.457743038593063 0.5613092330239375
0.0009430720001546433 0.45188080117244755 0.5349291646311676
0.0011442340000940021 0.4528578407425501 0.5075720566682951
0.001357174000077066 0.4538348803126526 0.48216902784562765
0.0015476329999728478 0.4509037616023448 0.4606741573033708
0.0017368140006510657 0.4479726428920372 0.43917928676111373
0.0019266980007159873 0.4460185637518319 0.42256961406936977
0.002118082999913895 0.44699560332193444 0.4108451392281387
0.002305949000401597 0.44699560332193444 0.39716658524670256
0.0024944450005932595 0.44406448461162684 0.38935026868588185
0.002682145000107994 0.4450415241817294 0.38446507083536874
0.0028696040008071577 0.4460185637518319 0.3834880312652662
0.0030565249999199295 0.44406448461162684 0.38251099169516367
0.003243855000619078 0.4538348803126526 0.38251099169516367
0.003432980000070529 0.4460185637518319 0.38446507083536874
0.0036194200001773424 0.44699560332193444 0.38739618954567656
0.0038061200002630358 0.4479726428920372 0.39423546653639474
0.003992801000094914 0.4460185637518319 0.40889106008793363
0.00417977899996913 0.44992672203224227 0.42452369320957506
0.004366237000795081 0.44699560332193444 0.4430874450415241
0.004552474000774964 0.44894968246213973 0.4606741573033708
0.004738952000479912 0.4479726428920372 0.4733756717147044
0.004925836000438721 0.4460185637518319 0.47923790913532005
0.00511262899999565 0.4450415241817294 0.4831460674157304
0.005301476000568073 0.44406448461162684 0.4753297508549097
0.0054897130003155326 0.44211040547142155 0.4665363947239862
0.0056782460005706525 0.441133365901319 0.45481191988275516
0.0058657970002968796 0.44211040547142155 0.44211040547142155
0.006052904000171111 0.44211040547142155 0.4352711284807034
0.006240067000362615 0.4401563263312165 0.4303859306301905
0.006429322000258253 0.4430874450415241 0.4235466536394723
0.006616429000132484 0.4460185637518319 0.4235466536394723
0.00680251700032386 0.4479726428920372 0.42256961406936977
0.0069887360004941 0.44406448461162684 0.42256961406936977
0.007175528000516351 0.44406448461162684 0.4206155349291647
0.007362190000094415 0.44406448461162684 0.42452369320957506
0.007548390000010841 0.44699560332193444 0.41963849535906195
0.007734442000582931 0.4509037616023448 0.41963849535906195
0.007926919000055932 0.44992672203224227 0.41670737664875435
0.008115155000268715 0.44992672203224227 0.41475329750854906
0.008302077000735153 0.45188080117244755 0.41670737664875435
0.008488944000418996 0.44894968246213973 0.4176844162188569
0.008675662000314333 0.44992672203224227 0.4206155349291647
0.008862528000463499 0.44894968246213973 0.42159257449926724
0.009050061000380083 0.44992672203224227 0.4235466536394723
0.009247020000657358 0.4509037616023448 0.4255007327796776
0.009453348000533879 0.44992672203224227 0.4303859306301905
0.009640195999963908 0.4479726428920372 0.4284318514899854
0.009827673000472714 0.44992672203224227 0.4284318514899854
0.010014002999923832 0.44992672203224227 0.42940889106008795
0.010200739000538306 0.44992672203224227 0.4284318514899854
0.010387513000750914 0.44992672203224227 0.4264777723497801
0.0105743980002444 0.4460185637518319 0.4284318514899854
0.010761153000203194 0.4460185637518319 0.4303859306301905
0.01094827900033124 0.45188080117244755 0.4323400097703958
0.011134977999972762 0.4479726428920372 0.43624816805080613
0.01132212199991045 0.45188080117244755 0.43624816805080613
0.011508526000397978 0.4479726428920372 0.4323400097703958
0.011694207000800816 0.4509037616023448 0.43624816805080613
0.011880740000378864 0.44992672203224227 0.43429408891060084
0.01206699500016839 0.4509037616023448 0.4303859306301905
0.01225613900078315 0.4509037616023448 0.4303859306301905
0.012444764000065334 0.4509037616023448 0.42745481191988266
0.012632427000426105 0.4509037616023448 0.431362970200293
0.012818978000723291 0.4509037616023448 0.431362970200293
0.013005937000343692 0.4509037616023448 0.42940889106008795
0.013192822000746673 0.44894968246213973 0.4303859306301905
0.013381355000092299 0.4479726428920372 0.42940889106008795
0.013567666000199097 0.4460185637518319 0.4323400097703958
0.013755253999988781 0.4479726428920372 0.4352711284807034
0.013942786999905366 0.44699560332193444 0.4352711284807034
0.014129283000329451 0.4460185637518319 0.4352711284807034
0.014323149000119884 0.44406448461162684 0.43917928676111373
0.014512941000248247 0.4430874450415241 0.441133365901319
0.014701363000312995 0.44406448461162684 0.44211040547142155
0.014888970000356494 0.4430874450415241 0.44699560332193444
0.015076207000674913 0.441133365901319 0.4509037616023448
0.015262962000633706 0.44211040547142155 0.45481191988275516
0.01544879100038088 0.441133365901319 0.46165119687347334
0.01563497200004349 0.441133365901319 0.4684904738641915
0.015821431000404118 0.44406448461162684 0.47728382999511476
0.01600839000002452 0.4479726428920372 0.4929164631167562
0.01619579300040641 0.4509037616023448 0.49975574010747437
0.016382604000682477 0.44894968246213973 0.5095261358085001
0.016568989000006695 0.45188080117244755 0.5212506106497312
0.016756650999923295 0.4528578407425501 0.524181729360039
0.01694361000045319 0.4557889594528579 0.5163654127992183
0.017131401999904483 0.4587200781631655 0.5026868588177822
0.017322509000223363 0.457743038593063 0.49193942354665365
0.017511635000118986 0.4587200781631655 0.4753297508549097
0.017702538000776258 0.4587200781631655 0.46458231558378116
0.017898959999911312 0.4557889594528579 0.45969711773326827
0.018091326000103436 0.4587200781631655 0.46165119687347334
0.018279247999998915 0.45676599902296044 0.4704445530043966
0.018466725000507722 0.4587200781631655 0.47728382999511476
0.018653369000276143 0.45481191988275516 0.48216902784562765
0.018840198000361852 0.4557889594528579 0.486077186126038
0.019027861000722623 0.45676599902296044 0.486077186126038
0.019214542000554502 0.4587200781631655 0.4802149487054226
0.019400890000724758 0.4587200781631655 0.4782608695652173
0.019587775000218244 0.4587200781631655 0.47435271128480694
0.019774585000050138 0.4587200781631655 0.47142159257449934
0.019962007000685844 0.4587200781631655 0.4733756717147044
0.020148503000200435 0.457743038593063 0.47142159257449934
0.020335943000645784 0.457743038593063 0.46458231558378116
0.020522995000646915 0.4557889594528579 0.4606741573033708
0.020710250000774977 0.45676599902296044 0.44992672203224227
0.02089717200033192 0.45676599902296044 0.4382022471910112
0.021094407999953546 0.4557889594528579 0.4333170493404983
0.021290700000463403 0.4557889594528579 0.4323400097703958
0.021479011000337778 0.4528578407425501 0.4284318514899854
0.0216659140005504 0.4538348803126526 0.42940889106008795
0.02185239200025535 0.4528578407425501 0.42745481191988266
0.022038536000763997 0.45188080117244755 0.4235466536394723
0.02222505000008823 0.44894968246213973 0.4157303370786516
0.02241228700040665 0.44699560332193444 0.4040058622374205
0.022599098000682716 0.44699560332193444 0.39912066438690763
0.022785668000324222 0.44894968246213973 0.39423546653639474
0.0229723490001561 0.44894968246213973 0.3961895456765998
0.023159104000114894 0.44699560332193444 0.4040058622374205
0.023345637000602437 0.44699560332193444 0.4157303370786516
0.023532355000497773 0.44894968246213973 0.4303859306301905
0.02371892500013928 0.44699560332193444 0.4450415241817294
0.023905421000563365 0.44894968246213973 0.4587200781631655
0.02409208300014143 0.44894968246213973 0.46946751343429405
0.024283431000185374 0.44992672203224227 0.4753297508549097
0.024470909000228858 0.45188080117244755 0.4802149487054226
0.02465796000069531 0.4509037616023448 0.4782608695652173
0.02484521499991388 0.4509037616023448 0.4655593551538837
0.025032303999978467 0.44992672203224227 0.44894968246213973
0.02522729900010745 0.44894968246213973 0.431362970200293
0.025418017000447435 0.4460185637518319 0.4176844162188569
0.025605532000554376 0.44406448461162684 0.4108451392281387
0.025792471999920963 0.4479726428920372 0.412799218368344
0.025979375000133587 0.44406448461162684 0.4176844162188569
0.026166594000642363 0.441133365901319 0.4255007327796776
0.02635362700038968 0.44406448461162684 0.4323400097703958
0.026540863000263926 0.4450415241817294 0.4352711284807034
0.0267279330000747 0.44894968246213973 0.4352711284807034
0.026914929000668053 0.4479726428920372 0.4382022471910112
0.027101536000373017 0.4479726428920372 0.4352711284807034
0.027288273000522167 0.4450415241817294 0.431362970200293
0.027474787000755896 0.44406448461162684 0.42745481191988266
0.02766161599993211 0.441133365901319 0.42452369320957506
0.027847742000631115 0.44211040547142155 0.4206155349291647
0.028033812000103353 0.4382022471910112 0.41670737664875435
0.02822114100035833 0.4460185637518319 0.41670737664875435
0.028407341000274755 0.4450415241817294 0.4137762579384465
0.02859391099991626 0.4430874450415241 0.4137762579384465
0.028780407000340347 0.44406448461162684 0.4186614557889594
0.02896706899991841 0.44406448461162684 0.4235466536394723
0.029152991000046313 0.4430874450415241 0.42745481191988266
0.029355542000303103 0.44406448461162684 0.4333170493404983
0.029543020000346587 0.4450415241817294 0.4479726428920372
0.029729904000305396 0.4479726428920372 0.4538348803126526
0.029916308000792924 0.4460185637518319 0.467513434294089
0.030103582000265305 0.4450415241817294 0.48216902784562765
0.03029094800058374 0.4460185637518319 0.49877870053737183
0.03047857300043688 0.4479726428920372 0.522227650219834
0.030665828000564943 0.44406448461162684 0.5349291646311676
0.03085234300033335 0.4450415241817294 0.5495847581827065
0.031039172000419057 0.44406448461162684 0.5613092330239375
0.031226205000166374 0.441133365901319 0.550561797752809
0.031412330999955884 0.44211040547142155 0.5388373229115779
0.0315989750006338 0.44211040547142155 0.5075720566682951
0.031785488999958034 0.44211040547142155 0.4811919882755251
0.03197192900006485 0.44211040547142155 0.44992672203224227
0.032159536000108346 0.441133365901319 0.4176844162188569
0.032346310000320955 0.4401563263312165 0.3903273082559844
0.03253315800066048 0.441133365901319 0.36003908158280407
0.03271996900002705 0.441133365901319 0.3365901319003419
0.03291527900000801 0.44406448461162684 0.32486565705911086
0.033116866999989725 0.4430874450415241 0.3258426966292134
0.033308067000689334 0.4450415241817294 0.3356130923302394
0.033501303000775806 0.44992672203224227 0.35710796287249624
0.03369194700007938 0.44894968246213973 0.376648754274548
0.03388248000010208 0.44894968246213973 0.3854421104054715
0.034072495000145864 0.4528578407425501 0.39423546653639474
0.0342621390000204 0.4528578407425501 0.39423546653639474
0.034451838000677526 0.45481191988275516 0.3834880312652662
0.03464185300072131 0.4538348803126526 0.3688324377137273
0.03483260800021526 0.4557889594528579 0.3404982901807523
0.03502314000070328 0.45481191988275516 0.3209574987787005
0.035213210000620165 0.45481191988275516 0.3160723009281876
0.035402891000558157 0.45481191988275516 0.3238886174890083
0.0355926840002212 0.45676599902296044 0.3502686858817783
0.03578221600037068 0.45481191988275516 0.3834880312652662
0.0359723790006683 0.45481191988275516 0.41475329750854906
0.036161986000479374 0.4587200781631655 0.4479726428920372
0.0363659810000172 0.457743038593063 0.47728382999511476
0.03656307000073866 0.45676599902296044 0.5007327796775769
0.03675412100074027 0.4587200781631655 0.5183194919394236
0.03694400600033987 0.4587200781631655 0.5417684416218858
0.03713457600042602 0.45969711773326827 0.5710796287249633
0.03732594200027961 0.4606741573033708 0.5945285784074255
0.03751701200053503 0.4606741573033708 0.6033219345383487
0.037707452000177 0.45969711773326827 0.6072300928187591
0.03789768900060153 0.45969711773326827 0.5984367366878358
0.038089907000539824 0.4606741573033708 0.576941866145579
0.038280421000308706 0.46165119687347334 0.5574010747435272
0.03847062100066978 0.46262823644357587 0.5456765999022961
0.038661098000375205 0.4665363947239862 0.5368832437713726
0.03885120500035555 0.467513434294089 0.5368832437713726
0.03904144100033591 0.46946751343429405 0.540791402051783
0.03923138200025278 0.4733756717147044 0.5486077186126037
0.03942115500012733 0.47142159257449934 0.5534929164631168
0.039611466000678774 0.4704445530043966 0.5583781143136297
0.03980125800080714 0.4684904738641915 0.567171470444553
0.039991180000470194 0.4665363947239862 0.5652173913043479
0.04018221300066216 0.4655593551538837 0.5564240351734244
0.04037207900000794 0.4606741573033708 0.5388373229115779
0.040563204000136466 0.46262823644357587 0.5163654127992183
0.04075366300003225 0.4587200781631655 0.4948705422569615
0.040943659000731714 0.457743038593063 0.4763067904250122
0.04113385900018329 0.457743038593063 0.4587200781631655
0.04135479800061148 0.4528578407425501 0.44992672203224227
0.041545441999915056 0.44894968246213973 0.4509037616023448
0.041735568000149215 0.44992672203224227 0.4509037616023448
0.04192584100019303 0.45188080117244755 0.45481191988275516
0.04211600400049065 0.44894968246213973 0.457743038593063
0.042306222000661364 0.44894968246213973 0.4655593551538837
0.04249619900019752 0.4479726428920372 0.47142159257449934
0.042686251000304765 0.4528578407425501 0.4753297508549097
0.042876395000348566 0.44699560332193444 0.4802149487054226
0.04306655700020201 0.4450415241817294 0.48998534440644836
0.04325683100069 0.44406448461162684 0.48900830483634583
0.04344708600001468 0.4479726428920372 0.4851001465559355
0.04363763700075651 0.4460185637518319 0.47728382999511476
0.043828096000652295 0.4460185637518319 0.4704445530043966
0.04401790700012498 0.4479726428920372 0.46262823644357587
0.04420862500046496 0.44699560332193444 0.4538348803126526
0.044399602000339655 0.4450415241817294 0.4460185637518319
0.04458924600021419 0.44406448461162684 0.4382022471910112
0.04477942700032145 0.4450415241817294 0.4333170493404983
0.044969275000767084 0.44211040547142155 0.431362970200293
0.04515925200030324 0.4401563263312165 0.4264777723497801
0.04536598800041247 0.44211040547142155 0.42745481191988266
0.04555746500045643 0.4430874450415241 0.42940889106008795
0.045748387000458024 0.44211040547142155 0.42745481191988266
0.04593908700007887 0.441133365901319 0.42452369320957506
0.046129657000165025 0.4430874450415241 0.4235466536394723
0.04631987500033574 0.44406448461162684 0.41963849535906195
0.046509888999935356 0.44406448461162684 0.4157303370786516
0.04669912600002135 0.4430874450415241 0.4157303370786516
0.04688888100008626 0.4460185637518319 0.41475329750854906
0.047078840000722266 0.4460185637518319 0.4010747435271129
0.04726890900019498 0.4460185637518319 0.3952125061064973
0.047458591000577144 0.4450415241817294 0.3854421104054715
0.04764834600064205 0.4460185637518319 0.38251099169516367
0.047838008000326226 0.4430874450415241 0.38153395212506114
0.0480280040001162 0.44211040547142155 0.38251099169516367
0.04821787000037148 0.44406448461162684 0.3883732291157791
0.04841184700035228 0.441133365901319 0.3981436248168051
0.04860297300001548 0.44406448461162684 0.40986809965803617
0.04879289500058803 0.44211040547142155 0.42159257449926724
0.048982687000716396 0.44406448461162684 0.4352711284807034
0.049173183000675635 0.4450415241817294 0.44211040547142155
0.04937236300065706 0.44992672203224227 0.4557889594528579
0.04957195200040587 0.4450415241817294 0.46165119687347334
0.04976241000076698 0.44406448461162684 0.4665363947239862
0.04995240600055695 0.4450415241817294 0.46946751343429405
0.050142069000685296 0.4450415241817294 0.4733756717147044
0.05033202800041181 0.4479726428920372 0.47142159257449934
0.05052200499994797 0.44699560332193444 0.47142159257449934
0.05071226000018214 0.4450415241817294 0.4684904738641915
0.050902885000141396 0.4460185637518319 0.4665363947239862
0.05109282600005827 0.4479726428920372 0.45969711773326827
0.051283173000229 0.44699560332193444 0.45969711773326827
0.05147311400014587 0.4479726428920372 0.4509037616023448
0.051663369000380044 0.44894968246213973 0.44992672203224227
0.05185325399997964 0.44894968246213973 0.44211040547142155
0.05204312000023492 0.4538348803126526 0.43624816805080613
0.05223330100034218 0.4509037616023448 0.42745481191988266
0.05242370399992069 0.4538348803126526 0.42159257449926724
0.05261353300011251 0.4538348803126526 0.4157303370786516
0.052803176999987045 0.4557889594528579 0.4157303370786516
0.052993006000178866 0.45676599902296044 0.4186614557889594
0.053182835999905365 0.4557889594528579 0.4206155349291647
0.053373443000054976 0.457743038593063 0.42745481191988266
0.05356380900047952 0.4557889594528579 0.431362970200293
0.053753860000142595 0.457743038593063 0.43917928676111373
0.05394318900016515 0.4557889594528579 0.44211040547142155
0.05413346300065314 0.45676599902296044 0.44406448461162684
0.05432336600006238 0.45676599902296044 0.45188080117244755
0.0545131400003811 0.4587200781631655 0.45481191988275516
0.05470308000076329 0.457743038593063 0.4655593551538837
0.054894075999982306 0.45676599902296044 0.4557889594528579
0.05508459000066068 0.45481191988275516 0.4636052760136786
0.05527466000057757 0.457743038593063 0.46262823644357587
0.05546476700055791 0.4557889594528579 0.46262823644357587
0.05565433700030553 0.4557889594528579 0.45969711773326827
0.055844444000285876 0.45481191988275516 0.45969711773326827
0.05603484700077388 0.4557889594528579 0.46165119687347334
0.05622534300073312 0.4557889594528579 0.45969711773326827
0.05641570900024817 0.45676599902296044 0.4538348803126526
0.056605909000609245 0.45481191988275516 0.4557889594528579
0.05679607100046269 0.4587200781631655 0.45481191988275516
0.056985678000273765 0.457743038593063 0.4528578407425501
0.057175359000211756 0.4557889594528579 0.45188080117244755
0.0573740590007219 0.45676599902296044 0.44894968246213973
0.057577832000788476 0.4557889594528579 0.44699560332193444
0.05776971700015565 0.457743038593063 0.4460185637518319
0.05795999000019947 0.4557889594528579 0.44406448461162684
0.058150523000222165 0.457743038593063 0.44699560332193444
0.05834118600068905 0.4557889594528579 0.44894968246213973
0.058531718000267574 0.4538348803126526 0.44992672203224227
0.058722955000121146 0.4538348803126526 0.4538348803126526
0.05917674100055592 0.4587200781631655 0.4587200781631655
0.05937047800034634 0.4557889594528579 0.457743038593063
0.05956077000064397 0.4557889594528579 0.46262823644357587
0.0597543769999902 0.45481191988275516 0.4655593551538837
0.059948353999971005 0.45481191988275516 0.4684904738641915
0.06013814600009937 0.4528578407425501 0.47142159257449934
0.06032825300007971 0.45188080117244755 0.4782608695652173
0.060518342000250414 0.45188080117244755 0.4763067904250122
0.06070861500029423 0.45188080117244755 0.4763067904250122
0.0608990000000631 0.4528578407425501 0.4831460674157304
0.06108945899995888 0.4528578407425501 0.47923790913532005
0.061285288000362925 0.4479726428920372 0.4782608695652173
0.06147607999992033 0.44894968246213973 0.4753297508549097
0.06166594600017561 0.44699560332193444 0.4733756717147044
0.061856885999986844 0.44699560332193444 0.47239863214460187
0.06204688200068631 0.44699560332193444 0.46458231558378116
0.062237119000201346 0.4479726428920372 0.4606741573033708
0.062427763000414416 0.4479726428920372 0.457743038593063
0.06261798100058513 0.44699560332193444 0.45188080117244755
0.06280851400060783 0.4479726428920372 0.4401563263312165
0.06300463900061004 0.4450415241817294 0.4352711284807034
0.0632034130003376 0.44406448461162684 0.42256961406936977
0.06339914900036092 0.44406448461162684 0.4137762579384465
0.06360438499996235 0.4430874450415241 0.40889106008793363
0.06381867700019939 0.44406448461162684 0.4040058622374205
0.06403550499999255 0.4460185637518319 0.40009770395701016
0.06424777900065237 0.44406448461162684 0.39716658524670256
0.06444947799991496 0.44406448461162684 0.39423546653639474
0.0646521960006794 0.44406448461162684 0.3913043478260869
0.06485700600023847 0.4450415241817294 0.3854421104054715
0.06506213100055902 0.4460185637518319 0.3854421104054715
0.0652846259999933 0.44699560332193444 0.38251099169516367
0.06549230700056796 0.44406448461162684 0.38446507083536874
0.06569263600067643 0.4479726428920372 0.3952125061064973
0.06590431600034208 0.44894968246213973 0.4010747435271129
0.0661449220006034 0.4509037616023448 0.3981436248168051
0.0663678990003973 0.44894968246213973 0.40009770395701016
0.06660739400012972 0.44699560332193444 0.4059599413776258
0.06681251900045027 0.4538348803126526 0.41670737664875435
0.06703656900026544 0.4479726428920372 0.4303859306301905
0.06727136100016651 0.4460185637518319 0.4606741573033708
0.06751813300070353 0.44699560332193444 0.48412310698583294
0.06776603500020428 0.4509037616023448 0.5065950170981925
0.06800795600065612 0.4528578407425501 0.5212506106497312
0.0682547650003471 0.4528578407425501 0.5359062042012701
0.068483056000332 0.45481191988275516 0.5437225207620908
0.0686942550000822 0.4538348803126526 0.5486077186126037
0.06889810300071986 0.45188080117244755 0.5525158768930141
0.069103154000004 0.4557889594528579 0.5515388373229115
0.06931781599996611 0.4538348803126526 0.5446995603321934
0.06958323600065341 0.4509037616023448 0.5290669272105519
0.0697935830003189 0.4528578407425501 0.49193942354665365
0.0699882080007228 0.4509037616023448 0.4655593551538837
0.0701826490003441 0.4509037616023448 0.43917928676111373
0.07037562599998637 0.45188080117244755 0.4108451392281387
0.0705678620006438 0.4528578407425501 0.3883732291157791
0.07077726500028803 0.45188080117244755 0.37274059599413767
0.07098011300058715 0.45481191988275516 0.35906204201270153
0.07118044200069562 0.44992672203224227 0.348314606741573
0.07138210400080425 0.45676599902296044 0.34636052760136793
0.07158591400002479 0.4587200781631655 0.34636052760136793
0.07178816900068341 0.46165119687347334 0.3502686858817783
0.07199157200011541 0.46458231558378116 0.3551538837322912
0.07221354900048027 0.4636052760136786 0.3659013190034197
0.07243248800023139 0.46165119687347334 0.36980947728383007
0.07264763200055313 0.46262823644357587 0.37176355642403514
0.07287179300055868 0.45969711773326827 0.37469467513434296
0.07309964000069158 0.457743038593063 0.3854421104054715
0.0733389500001067 0.45481191988275516 0.39912066438690763
0.07357061200036696 0.45676599902296044 0.4255007327796776
0.0737972360002459 0.4557889594528579 0.4538348803126526
0.07403241600059118 0.45676599902296044 0.48998534440644836
0.07429518800017831 0.457743038593063 0.522227650219834
0.07460481100042671 0.45969711773326827 0.5564240351734244
0.07494411800053058 0.45676599902296044 0.578895945285784
0.07527685200057022 0.45676599902296044 0.5847581827063997
0.07557043800079555 0.457743038593063 0.5720566682950659
0.07579878500018822 0.45481191988275516 0.5534929164631168
0.07602178000070126 0.45481191988275516 0.5398143624816805
0.07622099800028082 0.4538348803126526 0.5261358085002443
0.07641901200076973 0.4528578407425501 0.5192965315095261
0.07661965600073017 0.4509037616023448 0.5183194919394236
0.07681670700003451 0.44992672203224227 0.5212506106497312
0.07701820300007967 0.44894968246213973 0.5163654127992183
0.07721727200078021 0.4509037616023448 0.5085490962383976
0.07742558300014935 0.44894968246213973 0.4929164631167562
0.0776300600000468 0.44699560332193444 0.4880312652662433
0.07783450000079029 0.4479726428920372 0.48216902784562765
0.07804825400035043 0.4450415241817294 0.4733756717147044
0.07824830500067037 0.44992672203224227 0.4655593551538837
0.07844630100044014 0.44699560332193444 0.45188080117244755
0.07864864900057 0.44894968246213973 0.44211040547142155
0.07884940300027665 0.4509037616023448 0.4303859306301905
0.07907321300081094 0.45188080117244755 0.4176844162188569
0.07930998600022576 0.4538348803126526 0.4059599413776258
0.07955112900071981 0.45481191988275516 0.3981436248168051
0.07976245700047002 0.4557889594528579 0.3913043478260869
0.07996608300072694 0.4528578407425501 0.38153395212506114
0.08017170800030726 0.44992672203224227 0.3707865168539326
0.080380203000459 0.44992672203224227 0.358085002442599
0.0805863280002086 0.4479726428920372 0.3512457254518808
0.08078349100014748 0.44894968246213973 0.3453834880312652
0.0809779860001072 0.4509037616023448 0.3434294088910601
0.08117544500055374 0.45188080117244755 0.35222276502198335
0.08139919900077075 0.44894968246213973 0.3639472398632144
0.08159038000030705 0.44992672203224227 0.38641914997557403
0.08178098700045666 0.44992672203224227 0.41182217879824123
0.08197198300058517 0.45188080117244755 0.4460185637518319
0.08216209000056551 0.44894968246213973 0.48216902784562765
0.0823517160006304 0.45188080117244755 0.512457254518808
0.08254184100042039 0.44894968246213973 0.5280898876404494
0.08274661399991601 0.4479726428920372 0.5329750854909623
0.08295757300038531 0.4509037616023448 0.5261358085002443
0.0831664390007063 0.44894968246213973 0.5153883732291158
0.08337123000001156 0.4528578407425501 0.5056179775280898
0.08357505900039541 0.4509037616023448 0.4948705422569615
0.0837805360006314 0.4509037616023448 0.48998534440644836
0.08400797600006626 0.45188080117244755 0.4811919882755251
0.08423739699992439 0.44894968246213973 0.4811919882755251
0.08446872500007885 0.44992672203224227 0.48705422569614076
0.0847444600003655 0.4509037616023448 0.4851001465559355
0.08499728700007836 0.44992672203224227 0.4851001465559355
0.0852343380001912 0.44992672203224227 0.4831460674157304
0.08554083100079879 0.4479726428920372 0.4802149487054226
0.08576375200027542 0.4479726428920372 0.4753297508549097
0.08600365400070586 0.44894968246213973 0.47435271128480694
0.08627551900008257 0.44894968246213973 0.47728382999511476
0.0865271800003029 0.4509037616023448 0.4733756717147044
0.08675817500079575 0.44992672203224227 0.4636052760136786
0.08699341000010463 0.44699560332193444 0.4450415241817294
0.08725681200030522 0.4479726428920372 0.42745481191988266
0.0875044180002078 0.44406448461162684 0.4049829018075233
0.08775196800070262 0.4450415241817294 0.39228138739618945
0.08797748100005265 0.4460185637518319 0.3805569125549584
0.08821106899995357 0.4460185637518319 0.3707865168539326
0.08846147100030066 0.44699560332193444 0.36687835857352225
0.08869305799998983 0.44699560332193444 0.36980947728383007
0.08889549800005625 0.4460185637518319 0.37274059599413767
0.08909542000037618 0.4450415241817294 0.38153395212506114
0.08930891500040161 0.44406448461162684 0.3913043478260869
0.08951689200057444 0.44699560332193444 0.4040058622374205
0.0897247580005569 0.4460185637518319 0.40986809965803617
0.08992827200017928 0.4479726428920372 0.41475329750854906
0.0901334529999076 0.4587200781631655 0.4176844162188569
0.09033046700005798 0.44992672203224227 0.41963849535906195
0.0905302400005894 0.44992672203224227 0.4235466536394723
0.09073184699991543 0.44894968246213973 0.4323400097703958
0.09095267500015325 0.44894968246213973 0.43722520762090866
0.09117070800039073 0.4509037616023448 0.4460185637518319
0.09142146200065326 0.4479726428920372 0.45481191988275516
0.09162784599993756 0.44992672203224227 0.46262823644357587
0.0918306190005751 0.44992672203224227 0.4684904738641915
0.0920368930001132 0.44992672203224227 0.4763067904250122
0.09224149900001066 0.44699560332193444 0.4802149487054226
0.0924562350000997 0.44992672203224227 0.4851001465559355
0.09265519400014455 0.44894968246213973 0.4909623839765511
0.09284917100012535 0.4479726428920372 0.48900830483634583
0.09304025900019042 0.4479726428920372 0.4851001465559355
0.0932303290001073 0.44699560332193444 0.4831460674157304
0.09342465800000355 0.4460185637518319 0.47239863214460187
0.09361700600038603 0.4460185637518319 0.46946751343429405
0.09380778000013379 0.4509037616023448 0.4655593551538837
0.09400044199992408 0.45481191988275516 0.4684904738641915
0.09423143700041692 0.4538348803126526 0.47142159257449934
0.09442128499995306 0.45481191988275516 0.47923790913532005
0.09461092900073709 0.4557889594528579 0.486077186126038
0.09480125800018868 0.457743038593063 0.48998534440644836
0.09499118000076123 0.4557889594528579 0.4909623839765511
0.09518163800021284 0.4557889594528579 0.4851001465559355
0.09537170800012973 0.4587200781631655 0.47728382999511476
0.0955617039999197 0.45676599902296044 0.4665363947239862
0.09575207000034425 0.4538348803126526 0.4538348803126526
0.09594265900068422 0.45676599902296044 0.4479726428920372
0.09613265500047419 0.4587200781631655 0.441133365901319
0.09632439100005286 0.45969711773326827 0.4460185637518319
0.09651446099996974 0.45969711773326827 0.457743038593063
0.09670456799995009 0.4606741573033708 0.46458231558378116
0.09689506399990933 0.4606741573033708 0.4802149487054226
0.09708483800022805 0.4587200781631655 0.4909623839765511
0.09729177700046421 0.4587200781631655 0.495847581827064
0.09748631000002206 0.45676599902296044 0.49193942354665365
0.09767697300048894 0.4538348803126526 0.486077186126038
0.09786872800032143 0.4557889594528579 0.47923790913532005
0.09805902000061906 0.45676599902296044 0.4665363947239862
0.09825570100019831 0.45188080117244755 0.4528578407425501
0.09844691900070757 0.45188080117244755 0.44894968246213973
0.09863648900045519 0.4528578407425501 0.4401563263312165
0.09883363300014025 0.44699560332193444 0.4303859306301905
0.09903377600039676 0.45188080117244755 0.4303859306301905
0.09923508700012462 0.44992672203224227 0.4264777723497801
0.09943623100025434 0.45188080117244755 0.4235466536394723
0.09964304100049048 0.45188080117244755 0.4235466536394723
0.099845092000578 0.45188080117244755 0.4186614557889594
0.10004736500013678 0.44992672203224227 0.4137762579384465
0.1002498050002032 0.4460185637518319 0.403028822667318
0.10045533800075646 0.44699560332193444 0.3981436248168051
0.10065988900078082 0.4460185637518319 0.39423546653639474
0.10086264400069922 0.44406448461162684 0.3952125061064973
0.10107223200066073 0.441133365901319 0.403028822667318
0.10131109700068919 0.4460185637518319 0.412799218368344
0.10151909200067166 0.4450415241817294 0.431362970200293
0.10172862500076008 0.4460185637518319 0.44992672203224227
0.10192767600074149 0.44406448461162684 0.46165119687347334
0.10212752300049033 0.44406448461162684 0.4655593551538837
0.10232698200070445 0.4430874450415241 0.46458231558378116
0.102549533000456 0.441133365901319 0.45188080117244755
0.10275958400052332 0.44406448461162684 0.42452369320957506
0.10299209700042411 0.4430874450415241 0.3932584269662922
0.10320001900072384 0.4430874450415241 0.3659013190034197
0.1033989030001976 0.4460185637518319 0.34636052760136793
0.10360051000043313 0.4479726428920372 0.33756717147044446
0.10380602400073258 0.4479726428920372 0.3424523693209576
0.10400953800035495 0.44894968246213973 0.35710796287249624
0.10421345900067536 0.4509037616023448 0.3776257938446508
0.10441604700008611 0.4538348803126526 0.3981436248168051
0.10461443200074427 0.45188080117244755 0.4186614557889594
0.10481711300053576 0.4528578407425501 0.4352711284807034
0.10502566400009528 0.45676599902296044 0.4528578407425501
0.10523449300035281 0.4557889594528579 0.4665363947239862
0.10543726600008085 0.45481191988275516 0.4733756717147044
0.10563150200050586 0.4557889594528579 0.4811919882755251
0.1058233690000634 0.45188080117244755 0.4880312652662433
0.10601397500067833 0.44992672203224227 0.4948705422569615
0.10620441600076447 0.45188080117244755 0.5056179775280898
0.10639863400047034 0.45481191988275516 0.522227650219834
0.10658851800053526 0.44894968246213973 0.5398143624816805
0.1067790140004945 0.45188080117244755 0.5554469956033219
0.10696919500060176 0.4509037616023448 0.5710796287249633
0.10715974699996877 0.4528578407425501 0.5818270639960919
0.10735055700024532 0.45481191988275516 0.5964826575476307
0.1075403680006275 0.45481191988275516 0.6082071323888618
0.10773119700024836 0.4538348803126526 0.6150464093795798
0.10792184100046143 0.4557889594528579 0.6062530532486565
0.1081118370002514 0.4528578407425501 0.5876893014167073
0.10830225900008372 0.4538348803126526 0.5642403517342451
0.10849366200000077 0.4538348803126526 0.5417684416218858
0.10868482400019275 0.45188080117244755 0.512457254518808
0.10887485700004618 0.4509037616023448 0.4929164631167562
0.1090654830004496 0.4528578407425501 0.47239863214460187
0.10925590400074725 0.4479726428920372 0.4587200781631655
0.10946115900060249 0.45188080117244755 0.4401563263312165
0.10965137700077321 0.44992672203224227 0.42940889106008795
0.10984118800024589 0.45188080117244755 0.41963849535906195
0.11003118400003586 0.44992672203224227 0.4176844162188569
0.11022092000075645 0.44992672203224227 0.41475329750854906
0.11041141600071569 0.44699560332193444 0.41182217879824123
0.11060146799991344 0.45481191988275516 0.4137762579384465
0.11079348200019012 0.4509037616023448 0.4108451392281387
0.11101629200038587 0.44894968246213973 0.4137762579384465
0.11120817700066254 0.44894968246213973 0.412799218368344
0.11139872800049488 0.4479726428920372 0.412799218368344
0.11158940900077141 0.44992672203224227 0.4186614557889594
0.11178075699990586 0.44699560332193444 0.42940889106008795
0.11197125200033042 0.44894968246213973 0.4333170493404983
0.11216184100067039 0.4479726428920372 0.4460185637518319
0.11235205899993161 0.44894968246213973 0.44894968246213973
0.1125421840006311 0.4450415241817294 0.44992672203224227
0.1127325320003365 0.44699560332193444 0.44699560332193444
0.11292297199997847 0.4430874450415241 0.4430874450415241
0.11311352400025498 0.4430874450415241 0.441133365901319
0.1133063340002991 0.44699560332193444 0.43722520762090866
0.11349758899996232 0.4430874450415241 0.431362970200293
0.11368769599994266 0.4479726428920372 0.4264777723497801
0.11387771099998645 0.4450415241817294 0.4235466536394723
0.11406755799998791 0.4450415241817294 0.4206155349291647
0.11425788800079317 0.44406448461162684 0.4176844162188569
0.11444829100037168 0.4450415241817294 0.40693698094772834
0.11463886100045784 0.4479726428920372 0.4010747435271129
0.11482846800026891 0.4460185637518319 0.39423546653639474
0.11501835200033383 0.44699560332193444 0.3883732291157791
0.11521014500067395 0.44992672203224227 0.3786028334147533
0.1154252690002977 0.44894968246213973 0.3659013190034197
0.115636228000767 0.45188080117244755 0.35710796287249624
0.11587255600079516 0.45481191988275516 0.35417684416218864
0.11612466200040217 0.4528578407425501 0.36492427943331696
0.11634841600061918 0.4528578407425501 0.38641914997557403
0.1165695780000533 0.4538348803126526 0.40889106008793363
0.11677716600024723 0.457743038593063 0.431362970200293
0.11697723500037682 0.45676599902296044 0.46165119687347334
0.11718106400076067 0.45969711773326827 0.5026868588177822
0.11744863300009456 0.45481191988275516 0.5349291646311676
0.11766331300077582 0.45676599902296044 0.5564240351734244
0.1178730120000182 0.45481191988275516 0.5632633121641426
0.11810128500019346 0.45676599902296044 0.5554469956033219
0.11833596500036947 0.4528578407425501 0.5368832437713726
0.11855731200012087 0.4538348803126526 0.5105031753786029
0.11880993600061629 0.4528578407425501 0.4831460674157304
0.11903574600000866 0.44992672203224227 0.4636052760136786
0.11924009300037142 0.4509037616023448 0.44992672203224227
0.11943964500005677 0.44992672203224227 0.4401563263312165
0.11963706599999568 0.45188080117244755 0.44211040547142155
0.11991272700015543 0.44894968246213973 0.45188080117244755
0.1201184440005818 0.44894968246213973 0.46262823644357587
0.1203186620004999 0.4479726428920372 0.47435271128480694
0.12052880600003846 0.44894968246213973 0.4782608695652173
0.1207282640007179 0.4450415241817294 0.4753297508549097
0.12093589000050997 0.44699560332193444 0.467513434294089
0.12116457000047376 0.44992672203224227 0.457743038593063
0.12142256400056795 0.4450415241817294 0.4509037616023448
0.12161763400035852 0.4460185637518319 0.4479726428920372
0.12187240599996585 0.4430874450415241 0.4450415241817294
0.12207090199990489 0.44406448461162684 0.441133365901319
0.12226895300045726 0.44699560332193444 0.4401563263312165
0.12246698600029049 0.4528578407425501 0.441133365901319
0.12266844400073751 0.4479726428920372 0.44406448461162684
0.12287082900002133 0.4528578407425501 0.4460185637518319
0.12306960200021422 0.45481191988275516 0.4450415241817294
0.12326665300042805 0.45188080117244755 0.441133365901319
0.12346057500053575 0.457743038593063 0.44211040547142155
0.12365266300002986 0.4538348803126526 0.4401563263312165
0.12384304800070822 0.45188080117244755 0.4323400097703958
0.12405802500052232 0.4509037616023448 0.4264777723497801
0.12424879900027008 0.4538348803126526 0.42159257449926724
0.12445309000031557 0.4538348803126526 0.41963849535906195
0.12465867800074193 0.4479726428920372 0.42452369320957506
0.12486052600070252 0.4509037616023448 0.4333170493404983
0.12506707700049446 0.4460185637518319 0.4450415241817294
0.12531199700060824 0.44699560332193444 0.45188080117244755
0.12552360400059115 0.4401563263312165 0.45676599902296044
0.12572082200040313 0.441133365901319 0.45969711773326827
0.1259186140005113 0.44211040547142155 0.457743038593063
0.12611685000047146 0.44406448461162684 0.4557889594528579
0.12632134600062273 0.441133365901319 0.44894968246213973
0.12652074900051957 0.4382022471910112 0.44406448461162684
0.12672407800073415 0.4430874450415241 0.43917928676111373
0.126926870000716 0.4430874450415241 0.43429408891060084
0.12712638400080323 0.4382022471910112 0.4323400097703958
0.12735491600051319 0.44211040547142155 0.43722520762090866
0.12758661400039273 0.4450415241817294 0.4430874450415241
0.12779470200075593 0.44211040547142155 0.4430874450415241
0.12799549400006072 0.44211040547142155 0.4460185637518319
0.12819984199995815 0.4450415241817294 0.44894968246213973
0.12841052200019476 0.4479726428920372 0.44992672203224227
0.1286588130005839 0.4460185637518319 0.44699560332193444
0.12885362399993028 0.4460185637518319 0.44211040547142155
0.12904354500005866 0.44894968246213973 0.42940889106008795
0.12923752300048363 0.44406448461162684 0.4186614557889594
0.1294393329999366 0.4450415241817294 0.4108451392281387
0.12963114400008635 0.44406448461162684 0.4059599413776258
0.12982139900032053 0.441133365901319 0.40009770395701016
0.13001263500063942 0.44406448461162684 0.3903273082559844
0.13020235300064087 0.44699560332193444 0.39228138739618945
0.13039351600036753 0.4460185637518319 0.3981436248168051
0.1306060670003717 0.44699560332193444 0.40693698094772834
0.13079969200043706 0.44992672203224227 0.41475329750854906
0.13099587300075655 0.44992672203224227 0.4206155349291647
0.13119277600071655 0.44992672203224227 0.4284318514899854
0.13139690100069856 0.4509037616023448 0.42940889106008795
0.13159228600034112 0.4509037616023448 0.4284318514899854
0.1317896890004704 0.45188080117244755 0.42940889106008795
0.1320055920004961 0.44992672203224227 0.4206155349291647
0.13222416100052214 0.4479726428920372 0.41963849535906195
0.13249691400051233 0.4479726428920372 0.4157303370786516
0.13274011300018174 0.4509037616023448 0.4157303370786516
0.13295144099993195 0.4509037616023448 0.41670737664875435
0.13317188100063504 0.44894968246213973 0.4157303370786516
0.13341533900074865 0.4509037616023448 0.42256961406936977
0.13368701800027338 0.4538348803126526 0.43429408891060084
0.13392369800021697 0.4538348803126526 0.45188080117244755
0.13414835999992647 0.4538348803126526 0.467513434294089
0.13437704000079975 0.4528578407425501 0.4831460674157304
0.13461359000029915 0.4528578407425501 0.48900830483634583
0.13488030700045783 0.44894968246213973 0.4909623839765511
0.13514302300063719 0.4557889594528579 0.49877870053737183
0.13540322100016056 0.44699560332193444 0.49877870053737183
0.13564293800027372 0.4450415241817294 0.5173424523693209
0.13591774700034875 0.4479726428920372 0.5359062042012701
0.13615722300073685 0.44699560332193444 0.5574010747435272
0.13637127400033933 0.4479726428920372 0.5691255495847583
0.13659115800055588 0.44894968246213973 0.5730337078651686
0.13682993100064778 0.45188080117244755 0.5681485100146555
0.1370465919999333 0.45188080117244755 0.5613092330239375
0.13724919900050736 0.45188080117244755 0.5476306790425012
0.13748471200051426 0.45481191988275516 0.5456765999022961
0.1376925040003698 0.45676599902296044 0.5368832437713726
0.13793072099997516 0.45676599902296044 0.5329750854909623
0.13814069799991557 0.4538348803126526 0.524181729360039
0.138336194000658 0.4538348803126526 0.5114802149487054
0.13853163400017365 0.44699560332193444 0.49975574010747437
0.13872325900047144 0.44992672203224227 0.48900830483634583
0.1389140330002192 0.4450415241817294 0.4733756717147044
0.13910558400039008 0.44894968246213973 0.46165119687347334
0.1392961910005397 0.4557889594528579 0.4509037616023448
0.13948683500075276 0.44894968246213973 0.4430874450415241
0.1396768680006062 0.44699560332193444 0.43722520762090866
0.1398674010006289 0.44992672203224227 0.4333170493404983
0.14005767500020738 0.44894968246213973 0.431362970200293
0.14024830000016664 0.44992672203224227 0.42745481191988266
0.14043816600042192 0.44992672203224227 0.4284318514899854
0.1406281810004657 0.45188080117244755 0.42745481191988266
0.14081815800000186 0.45188080117244755 0.4333170493404983
0.14100811700063787 0.4557889594528579 0.4352711284807034
0.14119903900063946 0.45188080117244755 0.441133365901319
0.14139016400076798 0.4538348803126526 0.44406448461162684
0.14158054900053685 0.4528578407425501 0.4430874450415241
0.14177095200011536 0.45188080117244755 0.4401563263312165
0.14196113300022262 0.45188080117244755 0.43624816805080613
0.14215168400005496 0.4538348803126526 0.4333170493404983
0.14234195800054295 0.44894968246213973 0.42940889106008795
0.1425410460005878 0.45188080117244755 0.4206155349291647
0.14273315300033573 0.4509037616023448 0.4137762579384465
0.14292424199993548 0.44894968246213973 0.4040058622374205
0.1431151080005293 0.44894968246213973 0.3981436248168051
0.14330601100027707 0.4479726428920372 0.39716658524670256
0.14349617400057468 0.44211040547142155 0.3932584269662922
0.14368689200000517 0.44211040547142155 0.3981436248168051
0.14387829499992222 0.4430874450415241 0.403028822667318
0.14406884600066405 0.4430874450415241 0.4049829018075233
0.144260323000708 0.44406448461162684 0.40693698094772834
0.1444521530002021 0.4401563263312165 0.403028822667318
0.14464257400049974 0.44699560332193444 0.40009770395701016
0.14483331100018404 0.4460185637518319 0.39423546653639474
0.14502406600058748 0.4479726428920372 0.38935026868588185
0.14521517299999687 0.4430874450415241 0.3834880312652662
0.1454062430002523 0.44699560332193444 0.3737176355642404
0.14559662800002116 0.44406448461162684 0.3737176355642404
0.1457867900007841 0.44406448461162684 0.36687835857352225
0.1459796010003629 0.4450415241817294 0.3639472398632144
0.1461892440001975 0.441133365901319 0.36492427943331696
0.14637948100062204 0.4430874450415241 0.37176355642403514
0.1465697910007293 0.44211040547142155 0.3737176355642404
0.14676028700068855 0.43917928676111373 0.3756717147044455
0.14695170899994991 0.441133365901319 0.37274059599413767
0.14714426000045933 0.43722520762090866 0.36980947728383007
0.14733470100054546 0.4352711284807034 0.37176355642403514
0.14752553000016633 0.43917928676111373 0.37274059599413767
0.1477159890000621 0.43429408891060084 0.37957987298485585
0.14790600300057122 0.43917928676111373 0.3913043478260869
0.14809657300065737 0.4401563263312165 0.40693698094772834
0.14829279100013082 0.43917928676111373 0.42745481191988266
0.14849152700026025 0.441133365901319 0.45188080117244755
0.1487153190000754 0.4430874450415241 0.48705422569614076
0.14893583200046123 0.44406448461162684 0.5271128480703469
0.14915332700002182 0.44699560332193444 0.5622862725940401
0.14941471100064518 0.4460185637518319 0.5759648265754762
0.14961750200018287 0.4509037616023448 0.5759648265754762
0.14981818300020677 0.4538348803126526 0.5593551538837322
0.15003640100076154 0.4528578407425501 0.5466536394723986
0.1502725250002186 0.45188080117244755 0.5378602833414754
0.15053146400077821 0.4528578407425501 0.5271128480703469
0.15079184700061887 0.4509037616023448 0.512457254518808
0.1510347860003094 0.4509037616023448 0.4831460674157304
0.15127157700044336 0.4509037616023448 0.4450415241817294
0.15150520200040773 0.4479726428920372 0.39716658524670256
0.15176541800065024 0.45188080117244755 0.37274059599413767
0.15201141300076415 0.4509037616023448 0.36687835857352225
0.15221909400042932 0.4509037616023448 0.3786028334147533
0.15243034800005262 0.45188080117244755 0.40205178309721545
0.15265673200065066 0.4528578407425501 0.4284318514899854
0.152858080000442 0.4538348803126526 0.44699560332193444
0.15305246400021133 0.45481191988275516 0.4684904738641915
0.15325223800027743 0.45676599902296044 0.4880312652662433
0.1534922880000522 0.457743038593063 0.5056179775280898
0.15368293200026528 0.4606741573033708 0.5212506106497312
0.15387915000064822 0.4587200781631655 0.5388373229115779
0.15407951599991065 0.4606741573033708 0.5564240351734244
0.15427751200058992 0.4636052760136786 0.5642403517342451
0.15447028500057058 0.46262823644357587 0.5652173913043479
0.15466079900033947 0.4636052760136786 0.5583781143136297
0.1548527210006796 0.46458231558378116 0.5495847581827065
0.1550443100004486 0.45969711773326827 0.5290669272105519
0.1552772120003283 0.4557889594528579 0.5173424523693209
0.15546874500068952 0.457743038593063 0.5036638983878847
0.15565875900028914 0.4538348803126526 0.49682462139716654
0.15584960700016381 0.4557889594528579 0.4811919882755251
0.15604008400077873 0.4538348803126526 0.4753297508549097
0.1562306730002092 0.45188080117244755 0.4704445530043966
0.1564231500005917 0.4538348803126526 0.4587200781631655
0.15661375700074132 0.45481191988275516 0.45481191988275516
0.15680373400027747 0.44894968246213973 0.4450415241817294
0.15699458200015215 0.44894968246213973 0.4382022471910112
0.15718592900066142 0.4479726428920372 0.4382022471910112
0.1573860730004526 0.4509037616023448 0.4382022471910112
0.15757842099992558 0.45188080117244755 0.4382022471910112
0.15776832400024432 0.4509037616023448 0.4401563263312165
0.1579586530006054 0.4606741573033708 0.4450415241817294
0.15814942700035317 0.45481191988275516 0.4509037616023448
0.15834005200031243 0.45188080117244755 0.45481191988275516
0.15853047400014475 0.4528578407425501 0.4606741573033708
0.15872147000027326 0.4528578407425501 0.4636052760136786
0.15891128100065544 0.45188080117244755 0.46262823644357587
0.1591011280006569 0.45188080117244755 0.4733756717147044
0.1592910870003834 0.44992672203224227 0.47728382999511476
0.15948232400023699 0.44894968246213973 0.486077186126038
0.15967496800021763 0.4479726428920372 0.4851001465559355
0.15986490800059983 0.4587200781631655 0.486077186126038
0.1600547739999456 0.44992672203224227 0.48216902784562765
0.16024436200041237 0.44992672203224227 0.4733756717147044
0.16043385800003307 0.44992672203224227 0.46165119687347334
0.16062685399992915 0.4479726428920372 0.4557889594528579
0.1608178129999942 0.4479726428920372 0.4460185637518319
0.16100830899995344 0.4509037616023448 0.4450415241817294
0.16119930500008195 0.45188080117244755 0.4401563263312165
0.16138956000031612 0.44992672203224227 0.43722520762090866
0.16157975900023303 0.45188080117244755 0.42940889106008795
0.1617701990007845 0.4509037616023448 0.42452369320957506
0.16196043600029952 0.45188080117244755 0.4206155349291647
0.16215091300000495 0.4538348803126526 0.4157303370786516
0.16234203900057764 0.4509037616023448 0.4157303370786516
0.162532275000558 0.4509037616023448 0.4235466536394723
0.162725345000581 0.4509037616023448 0.43429408891060084
0.1629189340001176 0.44894968246213973 0.44699560332193444
0.1631094660006056 0.4538348803126526 0.45481191988275516
0.16332025800056726 0.44894968246213973 0.467513434294089
0.1635130869999557 0.45188080117244755 0.4733756717147044
0.16370417600046494 0.4509037616023448 0.47239863214460187
0.16389417100072023 0.4479726428920372 0.47142159257449934
0.16408401900025638 0.4479726428920372 0.4636052760136786
0.16427297800055385 0.4450415241817294 0.46946751343429405
0.16446284400080913 0.4450415241817294 0.4587200781631655
0.1646530990001338 0.4509037616023448 0.45188080117244755
0.1648450580005374 0.4479726428920372 0.4538348803126526
0.1650359240002217 0.4460185637518319 0.4460185637518319
0.1652257350006039 0.44699560332193444 0.441133365901319
0.16541582300033042 0.4479726428920372 0.4352711284807034
0.1656062820002262 0.4450415241817294 0.4333170493404983
0.16579677800018544 0.441133365901319 0.43429408891060084
0.16598764400077926 0.44211040547142155 0.43429408891060084
0.16617841800052702 0.4430874450415241 0.4352711284807034
0.16636861700044392 0.441133365901319 0.4284318514899854
0.16655852100029733 0.44211040547142155 0.4157303370786516
0.16675751599996147 0.4450415241817294 0.4040058622374205
0.16696564100038813 0.4450415241817294 0.38446507083536874
0.16717856300056155 0.4450415241817294 0.3707865168539326
0.1673894100003963 0.44992672203224227 0.36492427943331696
0.16759312800058979 0.4450415241817294 0.3629702002931119
0.1677905490005287 0.44699560332193444 0.3678553981436248
0.16798806299993885 0.4479726428920372 0.3776257938446508
0.16819531800047116 0.4450415241817294 0.3913043478260869
0.16839636900022015 0.44699560332193444 0.4010747435271129
0.1686078090006049 0.4479726428920372 0.4137762579384465
0.16881150800054456 0.4479726428920372 0.4235466536394723
0.16902146700067533 0.4450415241817294 0.43429408891060084
0.16923792500074342 0.44894968246213973 0.44894968246213973
0.16952625200065086 0.44992672203224227 0.46262823644357587
0.1697310440004003 0.4557889594528579 0.47728382999511476
0.16993272400031856 0.4557889594528579 0.48705422569614076
0.17013214600046922 0.4557889594528579 0.5065950170981925
0.1703257900007884 0.4557889594528579 0.5183194919394236
0.17051669300053618 0.457743038593063 0.522227650219834
0.17070746700028394 0.4587200781631655 0.5251587689301416
0.17089866600053938 0.45676599902296044 0.522227650219834
0.1710881810004139 0.45676599902296044 0.5134342940889105
0.1712787140004366 0.45676599902296044 0.5036638983878847
0.17147082000064984 0.45188080117244755 0.4831460674157304
0.17169979700065596 0.4538348803126526 0.47239863214460187
0.17189401500036183 0.44992672203224227 0.457743038593063
0.17208515900074417 0.44992672203224227 0.44699560332193444
0.1722772660004921 0.44992672203224227 0.441133365901319
0.1724695580005573 0.44992672203224227 0.43624816805080613
0.17266038700017816 0.44894968246213973 0.4352711284807034
0.17285340100079338 0.4479726428920372 0.43429408891060084
0.17304435999994894 0.44699560332193444 0.4401563263312165
0.17323579999992944 0.4509037616023448 0.43624816805080613
0.1734278700005234 0.45188080117244755 0.4352711284807034
0.17361534800056688 0.44992672203224227 0.4333170493404983
0.173803288000272 0.4528578407425501 0.431362970200293
0.17398996900010388 0.45481191988275516 0.431362970200293
0.1741764830003376 0.4538348803126526 0.42940889106008795
0.17436305299997912 0.45481191988275516 0.42940889106008795
0.17454932700002246 0.4538348803126526 0.4264777723497801
0.1747359900000447 0.4557889594528579 0.4284318514899854
0.1749225600005957 0.45188080117244755 0.4333170493404983
0.17510949999996228 0.45188080117244755 0.4303859306301905
0.17530203300066205 0.4509037616023448 0.4303859306301905
0.17549534299996594 0.44992672203224227 0.4333170493404983
0.175690413000666 0.4509037616023448 0.441133365901319
0.17587700200056133 0.4509037616023448 0.44699560332193444
0.1760636090002663 0.4509037616023448 0.457743038593063
0.1762506420000136 0.45188080117244755 0.4704445530043966
0.176437452000755 0.45188080117244755 0.48412310698583294
0.17662417100018502 0.4509037616023448 0.49682462139716654
0.17681122200065147 0.45188080117244755 0.5085490962383976
0.17699792200073716 0.4538348803126526 0.5163654127992183
0.1771860660001039 0.45188080117244755 0.524181729360039
0.17739035800059355 0.4528578407425501 0.512457254518808
0.17758200100070098 0.4509037616023448 0.5046409379579873
0.17777283100076602 0.4509037616023448 0.4948705422569615
0.17796367800019652 0.45188080117244755 0.4938935026868587
0.1781538780005576 0.45188080117244755 0.4811919882755251
0.1783445400005803 0.4509037616023448 0.4782608695652173
0.17853512900001078 0.4528578407425501 0.46946751343429405
0.17872527300005459 0.44894968246213973 0.4684904738641915
0.17891539800075407 0.4528578407425501 0.46262823644357587
0.1791054310006075 0.44894968246213973 0.46165119687347334
0.17929526000079932 0.44992672203224227 0.45676599902296044
0.17948492300001817 0.44699560332193444 0.46165119687347334
0.17967475200021 0.44992672203224227 0.4636052760136786
0.17987352500040288 0.4460185637518319 0.47239863214460187
0.18006333600078506 0.4450415241817294 0.47728382999511476
0.1802536280001732 0.4450415241817294 0.4851001465559355
0.180444494000767 0.44406448461162684 0.4909623839765511
0.1806413230006001 0.44406448461162684 0.4948705422569615
0.1808611700007532 0.44406448461162684 0.4978016609672691
0.18105916600052296 0.44992672203224227 0.49877870053737183
0.18128295700080344 0.4430874450415241 0.4978016609672691
0.18149558200002502 0.44406448461162684 0.4880312652662433
0.18169698500059894 0.4450415241817294 0.48216902784562765
0.18189546300072834 0.4450415241817294 0.46262823644357587
0.18209042100079387 0.4460185637518319 0.44992672203224227
0.18228523200014024 0.4479726428920372 0.4333170493404983
0.18248413500077731 0.44894968246213973 0.4176844162188569
0.18270459300038056 0.4479726428920372 0.40205178309721545
0.1829229770000893 0.4509037616023448 0.3834880312652662
0.18316671299999143 0.4509037616023448 0.3551538837322912
0.18347990900019795 0.44992672203224227 0.32975085490962375
0.18373255200003769 0.44992672203224227 0.3131411822178798
0.18397641699993983 0.45188080117244755 0.30923302393746943
0.18421207900064474 0.45481191988275516 0.3063019052271616
0.1844159070005844 0.457743038593063 0.3180263800683927
0.18461984700024914 0.457743038593063 0.3365901319003419
0.18481934300052671 0.45676599902296044 0.3688324377137273
0.18503056100053072 0.4557889594528579 0.3981436248168051
0.18524613000045065 0.45481191988275516 0.4352711284807034
0.18552116099999694 0.45481191988275516 0.4557889594528579
0.18575621100080753 0.4557889594528579 0.47435271128480694
0.18602353900041635 0.4538348803126526 0.48900830483634583
0.18626460800078348 0.45676599902296044 0.5017098192476794
0.18647628800044913 0.45676599902296044 0.5075720566682951
0.18667963600000803 0.4528578407425501 0.5095261358085001
0.18688335300066683 0.45481191988275516 0.5046409379579873
0.18708834900007787 0.4557889594528579 0.4948705422569615
0.18728695600020728 0.4538348803126526 0.4880312652662433
0.18748885900004097 0.4528578407425501 0.4851001465559355
0.18768965100025525 0.44992672203224227 0.4763067904250122
0.1878884060006385 0.44992672203224227 0.4655593551538837
0.18809110500023962 0.4479726428920372 0.45969711773326827
0.18829187800020009 0.44894968246213973 0.4538348803126526
0.1884897070003717 0.4450415241817294 0.44699560332193444
0.1886907030002476 0.44699560332193444 0.44406448461162684
0.18893573400055175 0.4450415241817294 0.44211040547142155
0.18916604400055803 0.44406448461162684 0.44211040547142155
0.18947738900078548 0.4401563263312165 0.44211040547142155
0.18969377300072665 0.44211040547142155 0.4430874450415241
0.18989438000062364 0.44211040547142155 0.43917928676111373
0.1901307080006518 0.4401563263312165 0.431362970200293
0.19034781500067766 0.4450415241817294 0.41670737664875435
0.1905543660004696 0.44211040547142155 0.403028822667318
0.19075291700028174 0.44406448461162684 0.3776257938446508
0.19094324600064283 0.4450415241817294 0.358085002442599
0.1911338899999464 0.4460185637518319 0.3356130923302394
0.1913241640004344 0.44699560332193444 0.31704934049829014
0.19151441900066857 0.4460185637518319 0.303370786516854
0.1917045070003951 0.44894968246213973 0.3004396678065462
0.19189855800050282 0.4509037616023448 0.30434782608695654
0.1920879250001235 0.44992672203224227 0.3180263800683927
0.19227843900080188 0.44992672203224227 0.3385442110405472
0.19246861999999965 0.4509037616023448 0.3629702002931119
0.19265857900063565 0.45676599902296044 0.40205178309721545
0.1928492600000027 0.457743038593063 0.42745481191988266
0.1930399410002792 0.457743038593063 0.46165119687347334
0.19324201100062055 0.4587200781631655 0.5085490962383976
0.19347596800071187 0.4655593551538837 0.5417684416218858
0.19366655700014235 0.46262823644357587 0.5720566682950659
0.19385684900043998 0.46458231558378116 0.5964826575476307
0.19404703000054724 0.4655593551538837 0.6140693698094772
0.19423795200054883 0.4636052760136786 0.6238397655105032
0.1944297070003813 0.46458231558378116 0.621885686370298
0.1946201660002771 0.4636052760136786 0.6121152906692722
0.19481079100023635 0.46458231558378116 0.5984367366878358
0.19500230500034377 0.46262823644357587 0.5779189057156815
0.19519328300066263 0.46165119687347334 0.5622862725940401
0.19538362999992387 0.4587200781631655 0.5437225207620908
0.19557758900009503 0.4587200781631655 0.524181729360039
0.19576834400049847 0.4538348803126526 0.512457254518808
0.1959583770003519 0.45481191988275516 0.49975574010747437
0.19614874300077645 0.45481191988275516 0.48900830483634583
0.19634090599993215 0.45481191988275516 0.4802149487054226
0.1965310870000394 0.45188080117244755 0.4704445530043966
0.19672163800078124 0.44992672203224227 0.4606741573033708
0.19691165299991553 0.4509037616023448 0.4479726428920372
0.19710285200017097 0.4528578407425501 0.4401563263312165
0.19729677400027867 0.4509037616023448 0.431362970200293
0.19754362000003312 0.4528578407425501 0.42940889106008795
0.19773404200077493 0.4557889594528579 0.4264777723497801
0.19792464900001505 0.4528578407425501 0.42745481191988266
0.1981152739999743 0.457743038593063 0.4333170493404983
0.19830564099993353 0.4538348803126526 0.4323400097703958
0.1984958960001677 0.44992672203224227 0.441133365901319
0.19868598400080373 0.44894968246213973 0.4460185637518319
0.19887540600029752 0.44894968246213973 0.44992672203224227
0.1990651420001086 0.44992672203224227 0.4538348803126526
0.19925441600025806 0.44992672203224227 0.45481191988275516
0.19944457900055568 0.44894968246213973 0.45969711773326827
0.19963900000038848 0.44992672203224227 0.45676599902296044
0.19984131100045488 0.44894968246213973 0.45969711773326827
0.2000459540004158 0.44992672203224227 0.4557889594528579
0.2002767270005279 0.4528578407425501 0.4509037616023448
0.20047335200069938 0.44894968246213973 0.4460185637518319
0.2006646260006164 0.44699560332193444 0.44406448461162684
0.2008538630007024 0.44894968246213973 0.43624816805080613
0.2010432100005346 0.4479726428920372 0.4303859306301905
0.20123352100017655 0.4479726428920372 0.4264777723497801
0.20142560900058015 0.44992672203224227 0.42159257449926724
0.20164462299999286 0.4479726428920372 0.42452369320957506
0.20183678500052338 0.44992672203224227 0.4264777723497801
0.2020276700004615 0.44992672203224227 0.431362970200293
0.20232920100079355 0.4509037616023448 0.42940889106008795
0.20252062200052023 0.4538348803126526 0.431362970200293
0.20271202599997196 0.44992672203224227 0.4303859306301905
0.20290354000007937 0.4509037616023448 0.4284318514899854
0.20309453600020788 0.44894968246213973 0.4264777723497801
0.2032864390002942 0.4479726428920372 0.4264777723497801
0.2034771010003169 0.4460185637518319 0.42256961406936977
0.2036678380000012 0.44699560332193444 0.42452369320957506
0.2038581670003623 0.4460185637518319 0.4206155349291647
0.2040478670005541 0.44699560332193444 0.4206155349291647
0.2042405480005982 0.4479726428920372 0.41963849535906195
0.20443034000072657 0.4479726428920372 0.4206155349291647
0.20462068800043198 0.44406448461162684 0.41670737664875435
0.20481175700024323 0.44406448461162684 0.4206155349291647
0.20500282700049866 0.4479726428920372 0.42745481191988266
0.20520293400022638 0.4460185637518319 0.44211040547142155
0.20539598499999556 0.44406448461162684 0.4538348803126526
0.20558861100016657 0.44406448461162684 0.4684904738641915
0.20579595800063544 0.4460185637518319 0.4763067904250122
0.20598795400019299 0.4460185637518319 0.4811919882755251
0.2061783760000253 0.44699560332193444 0.486077186126038
0.2063683160004075 0.4479726428920372 0.49193942354665365
0.20657138600017788 0.44699560332193444 0.5046409379579873
0.2067740660004347 0.44992672203224227 0.5114802149487054
0.20696811800007708 0.45188080117244755 0.5144113336590133
0.20715876200029015 0.4528578407425501 0.5046409379579873
0.2073489980002705 0.4509037616023448 0.49975574010747437
0.20753884600071615 0.44894968246213973 0.4978016609672691
0.20772862000012537 0.44992672203224227 0.4909623839765511
0.2079187080007614 0.45188080117244755 0.48412310698583294
0.20810877800067829 0.44992672203224227 0.4733756717147044
0.20829936600057408 0.4528578407425501 0.46458231558378116
0.20849008400000457 0.44894968246213973 0.45676599902296044
0.20867956200072513 0.4460185637518319 0.45188080117244755
0.20886994600004982 0.44699560332193444 0.4509037616023448
0.20905997900081275 0.4479726428920372 0.44211040547142155
0.20924977100003161 0.45188080117244755 0.4401563263312165
0.20946061900031054 0.44992672203224227 0.4352711284807034
0.20965130000058707 0.4509037616023448 0.4333170493404983
0.20984146200044052 0.44992672203224227 0.4284318514899854
0.2100325690007594 0.44894968246213973 0.42940889106008795
0.21022204600012628 0.4509037616023448 0.4264777723497801
0.21041235700067773 0.44894968246213973 0.4303859306301905
0.21061174200076493 0.44992672203224227 0.4352711284807034
0.21081625600072584 0.4509037616023448 0.441133365901319
0.21100925100017776 0.44992672203224227 0.4382022471910112
0.21119978400020045 0.44699560332193444 0.43917928676111373
0.2113907430002655 0.44992672203224227 0.42452369320957506
0.21158098000069003 0.44894968246213973 0.4108451392281387
0.21177084600003582 0.4509037616023448 0.39423546653639474
0.21196074900035455 0.4479726428920372 0.3805569125549584
0.21215102299993305 0.45188080117244755 0.3639472398632144
0.21234114800063253 0.45481191988275516 0.36003908158280407
0.21253225500004191 0.4538348803126526 0.35417684416218864
0.2127225290005299 0.4557889594528579 0.35710796287249624
0.2129129320001084 0.45481191988275516 0.3639472398632144
0.21310289100074442 0.457743038593063 0.376648754274548
0.21329590500045015 0.45969711773326827 0.3932584269662922
0.21348645700072666 0.45481191988275516 0.40986809965803617
0.21367741500034754 0.45481191988275516 0.4235466536394723
0.21387548500024423 0.45481191988275516 0.4479726428920372
0.21411512800023047 0.44992672203224227 0.4655593551538837
0.21432412300055148 0.4557889594528579 0.4802149487054226
0.21453110000038578 0.44992672203224227 0.4938935026868587
0.21473631800017756 0.4479726428920372 0.5085490962383976
0.2149420170007943 0.4528578407425501 0.5163654127992183
0.21514912400016328 0.4509037616023448 0.5212506106497312
0.21538337800029694 0.45188080117244755 0.5232046897899365
0.21561796500009223 0.4509037616023448 0.5232046897899365
0.21588281200001802 0.4538348803126526 0.5261358085002443
0.2161391210001966 0.44992672203224227 0.5202735710796287
0.2163969850007561 0.45481191988275516 0.5114802149487054
0.21660272200006148 0.4587200781631655 0.4978016609672691
0.2168119210000441 0.45188080117244755 0.4851001465559355
0.21701230500002566 0.4509037616023448 0.4655593551538837
0.21721537500070554 0.4528578407425501 0.4509037616023448
0.21741879599994718 0.4509037616023448 0.4401563263312165
0.21763016200020502 0.4528578407425501 0.4323400097703958
0.21785823100071866 0.4538348803126526 0.4264777723497801
0.21811461500055884 0.457743038593063 0.4255007327796776
0.21833649900054297 0.4606741573033708 0.4333170493404983
0.21856393800044316 0.45969711773326827 0.44699560332193444
0.21878500700040604 0.4636052760136786 0.46165119687347334
0.21901507600068726 0.4587200781631655 0.4851001465559355
0.21926431200063234 0.46262823644357587 0.5046409379579873
0.21951758400064136 0.457743038593063 0.5232046897899365
0.21974691200011875 0.45969711773326827 0.5329750854909623
0.21998346300006233 0.457743038593063 0.5290669272105519
0.2202762150000126 0.457743038593063 0.5114802149487054
0.22050945099999808 0.45481191988275516 0.4909623839765511
0.22071518700067827 0.457743038593063 0.467513434294089
0.22091135000027862 0.4528578407425501 0.44699560332193444
0.22110995599996386 0.4528578407425501 0.4284318514899854
0.22131656300007307 0.4538348803126526 0.4079140205178309
0.22155033600029128 0.44894968246213973 0.3903273082559844
0.2218299220003246 0.4450415241817294 0.3776257938446508
0.2221368780001285 0.44406448461162684 0.36980947728383007
0.22240494700054114 0.4450415241817294 0.37176355642403514
0.22265884800071944 0.44699560332193444 0.3688324377137273
0.2228585850007221 0.4460185637518319 0.3707865168539326
0.22305084000072384 0.4509037616023448 0.36492427943331696
0.2232455020002817 0.44211040547142155 0.36003908158280407
0.22343729400017764 0.43917928676111373 0.35710796287249624
0.22362886400060233 0.44211040547142155 0.3531998045920859
0.2238517480000155 0.4401563263312165 0.3531998045920859
0.22404285500033438 0.441133365901319 0.3561309233023937
0.22423212900048384 0.441133365901319 0.36980947728383007
0.22442210600002 0.4450415241817294 0.3854421104054715
0.22461249100069836 0.44699560332193444 0.403028822667318
0.2248028570002134 0.4450415241817294 0.4235466536394723
0.2249925570004052 0.4479726428920372 0.44406448461162684
0.22518312700049137 0.4460185637518319 0.47142159257449934
0.2253875110000081 0.4479726428920372 0.49682462139716654
0.22557782200055954 0.4479726428920372 0.524181729360039
0.2257680030006668 0.4538348803126526 0.5437225207620908
0.22595936900052038 0.44894968246213973 0.5583781143136297
0.22614929100018344 0.44992672203224227 0.5681485100146555
0.22633937899990997 0.4509037616023448 0.5710796287249633
0.22653133800031355 0.4538348803126526 0.5661944308744504
0.22672251900075935 0.44992672203224227 0.5652173913043479
0.22691455200038035 0.44992672203224227 0.5574010747435272
0.22710762099995918 0.45188080117244755 0.5486077186126037
0.22729983900080697 0.4479726428920372 0.5368832437713726
0.22749016900070274 0.44992672203224227 0.522227650219834
0.22769220100053644 0.45188080117244755 0.512457254518808
0.2278831600006015 0.45188080117244755 0.5046409379579873
0.22807306300001073 0.4509037616023448 0.4948705422569615
0.2282625410007313 0.4509037616023448 0.4802149487054226
0.2284527400006482 0.4460185637518319 0.467513434294089
0.2286438660003114 0.4460185637518319 0.4538348803126526
0.22883489800005918 0.4450415241817294 0.44699560332193444
0.22902632000023004 0.44406448461162684 0.43429408891060084
0.2292165010003373 0.44406448461162684 0.431362970200293
0.22940746000040235 0.4450415241817294 0.4255007327796776
0.22959749300025578 0.44211040547142155 0.41670737664875435
0.22978884100029973 0.441133365901319 0.412799218368344
0.22998009599996294 0.44406448461162684 0.40693698094772834
0.23017018400059897 0.4450415241817294 0.4010747435271129
0.2303621610008122 0.4460185637518319 0.40009770395701016
0.2305813600005422 0.4479726428920372 0.39716658524670256
0.23077120800007833 0.4479726428920372 0.3932584269662922
0.23096105600052397 0.4460185637518319 0.3961895456765998
0.23115060700001777 0.4509037616023448 0.40205178309721545
0.23134114000004047 0.4479726428920372 0.40889106008793363
0.23153054300018994 0.4479726428920372 0.412799218368344
0.23172094600067794 0.44894968246213973 0.4157303370786516
0.23192923800070275 0.44992672203224227 0.42452369320957506
0.23212001200045052 0.45188080117244755 0.431362970200293
0.23230913700081146 0.45676599902296044 0.431362970200293
0.2324991700006649 0.45188080117244755 0.431362970200293
0.23269009200066648 0.4606741573033708 0.4333170493404983
0.23288897600014025 0.45188080117244755 0.43624816805080613
0.2330924910002068 0.4528578407425501 0.43722520762090866
0.23330409700065502 0.4528578407425501 0.44211040547142155
0.23353207300078793 0.45481191988275516 0.44406448461162684
0.23374623500058078 0.457743038593063 0.4460185637518319
0.23394998999992822 0.4538348803126526 0.4587200781631655
0.23414431900073396 0.4528578407425501 0.47142159257449934
0.23433620400010113 0.4528578407425501 0.48900830483634583
0.23452888500014524 0.45481191988275516 0.5075720566682951
0.23471915900063323 0.4509037616023448 0.5134342940889105
0.23490885800038086 0.45481191988275516 0.522227650219834
0.23509924300014973 0.45481191988275516 0.5153883732291158
0.23528877600074338 0.45188080117244755 0.5036638983878847
0.235478790000343 0.44992672203224227 0.48900830483634583
0.23566861900053482 0.44894968246213973 0.47239863214460187
0.23585896700024023 0.4479726428920372 0.45481191988275516
0.23604864800017822 0.4479726428920372 0.43624816805080613
0.23624071800077218 0.4479726428920372 0.4255007327796776
0.23643039900071017 0.44699560332193444 0.4176844162188569
0.2366210800000772 0.4479726428920372 0.4108451392281387
0.2368116130000999 0.44894968246213973 0.40693698094772834
0.23700170100073592 0.44699560332193444 0.4059599413776258
0.2371929930004626 0.44699560332193444 0.403028822667318
0.23738706299991463 0.44894968246213973 0.4059599413776258
0.23757730000033916 0.44992672203224227 0.40009770395701016
0.2377670180003406 0.45188080117244755 0.403028822667318
0.2379566250001517 0.44992672203224227 0.39228138739618945
0.23814882400074566 0.4509037616023448 0.39716658524670256
0.2383394500002396 0.44992672203224227 0.39912066438690763
0.23852970500047377 0.4538348803126526 0.3981436248168051
0.2387193490003483 0.4528578407425501 0.4049829018075233
0.23890877100075159 0.45188080117244755 0.41670737664875435
0.2390987850003512 0.45188080117244755 0.44211040547142155
0.239288485000543 0.4509037616023448 0.4587200781631655
0.23947979500007932 0.45481191988275516 0.48998534440644836
0.23966995800037694 0.4528578407425501 0.5202735710796287
0.23986036099995545 0.4509037616023448 0.5515388373229115
0.2400798560001931 0.4538348803126526 0.5779189057156815
0.24027061100059655 0.45676599902296044 0.5964826575476307
0.24046095900030195 0.4528578407425501 0.6033219345383487
0.24065258400059975 0.45481191988275516 0.605276013678554
0.24084363600013603 0.4557889594528579 0.6013678553981436
0.24103379799998947 0.4509037616023448 0.5837811431362969
0.24122340500071004 0.4528578407425501 0.5710796287249633
0.2414135120006904 0.4479726428920372 0.5456765999022961
0.2416037299999516 0.44699560332193444 0.5202735710796287
0.24179368900058762 0.4509037616023448 0.4978016609672691
0.24198431400054687 0.44699560332193444 0.47239863214460187
0.24217482900075993 0.4479726428920372 0.4479726428920372
0.2423646950001057 0.44699560332193444 0.42940889106008795
0.2425548390001495 0.44699560332193444 0.40009770395701016
0.2427444650002144 0.44992672203224227 0.3834880312652662
0.2429344790007235 0.44699560332193444 0.36492427943331696
0.2431248080001751 0.4450415241817294 0.34733756717147046
0.24331711900049413 0.4460185637518319 0.32975085490962375
0.2435180219999893 0.4450415241817294 0.31998045920859797
0.24372003600001335 0.4450415241817294 0.31021006350757196
0.24391493900020578 0.4430874450415241 0.3063019052271616
0.2441056200004823 0.4450415241817294 0.30727894479726436
0.2442960230000608 0.44406448461162684 0.3111871030776747
0.24448568600018916 0.44406448461162684 0.3160723009281876
0.24467568199997913 0.4460185637518319 0.32486565705911086
0.2448667700000442 0.4450415241817294 0.33463605276013686
0.24505748800038418 0.44699560332193444 0.348314606741573
0.24524889100030123 0.44894968246213973 0.3610161211529066
0.24545801600015693 0.44992672203224227 0.37469467513434296
0.2456480119999469 0.45188080117244755 0.38739618954567656
0.2458376930007944 0.4509037616023448 0.40889106008793363
0.2460279110000556 0.45188080117244755 0.431362970200293
0.2462177220004378 0.45188080117244755 0.45969711773326827
0.2464096250005241 0.4528578407425501 0.48900830483634583
0.246599380000589 0.4528578407425501 0.5202735710796287
0.2467895240006328 0.45481191988275516 0.5495847581827065
0.24698027900012676 0.45188080117244755 0.5749877870053737
0.24717229399993812 0.44992672203224227 0.5867122618466047
0.2473680670000249 0.44992672203224227 0.5915974596971176
0.24757113700070477 0.45188080117244755 0.5876893014167073
0.24778726200020174 0.44992672203224227 0.5779189057156815
0.2479910160000145 0.4509037616023448 0.5593551538837322
0.24820166000063182 0.4479726428920372 0.5388373229115779
0.24843428400072298 0.44992672203224227 0.5163654127992183
0.24864207600057853 0.4460185637518319 0.495847581827064
0.24886833100026706 0.44992672203224227 0.47728382999511476
0.2491354540006796 0.44894968246213973 0.4587200781631655
0.2494918910006163 0.4479726428920372 0.44894968246213973
0.24976368100033142 0.44699560332193444 0.45188080117244755
0.24997343600080058 0.44699560332193444 0.44992672203224227
0.25018298700069863 0.4450415241817294 0.4528578407425501
0.2503853900007016 0.4479726428920372 0.45481191988275516
0.25058916300076817 0.4479726428920372 0.4557889594528579
0.2508024180006032 0.44894968246213973 0.45676599902296044
0.2510191910005233 0.4509037616023448 0.44894968246213973
0.2512585750000653 0.45676599902296044 0.4479726428920372
0.2515004400001999 0.45481191988275516 0.44992672203224227
0.251735490000101 0.45188080117244755 0.4509037616023448
0.2519884840003215 0.44992672203224227 0.4509037616023448
0.25223992300016107 0.457743038593063 0.44992672203224227
0.25247836300059134 0.45481191988275516 0.441133365901319
0.25275854200026515 0.45188080117244755 0.4401563263312165
0.2530454240004474 0.4538348803126526 0.43624816805080613
0.2533206779999091 0.4557889594528579 0.4333170493404983
0.2535649690007631 0.45188080117244755 0.42452369320957506
0.25375929800065933 0.4538348803126526 0.4186614557889594
0.2539491450006608 0.4528578407425501 0.4137762579384465
0.25414460400043026 0.45188080117244755 0.40009770395701016
0.2543354700001146 0.45188080117244755 0.3903273082559844
0.2545298550003281 0.45481191988275516 0.37957987298485585
0.2547212210001817 0.44894968246213973 0.37274059599413767
0.2549121060001198 0.44992672203224227 0.3629702002931119
0.2551031020002483 0.45188080117244755 0.36492427943331696
0.25529420800012304 0.4557889594528579 0.36492427943331696
0.25548418600010336 0.44992672203224227 0.36980947728383007
0.2556742000006125 0.4528578407425501 0.3834880312652662
0.255865196000741 0.4528578407425501 0.403028822667318
0.25605480300055206 0.4538348803126526 0.4264777723497801
0.2562464650000038 0.45481191988275516 0.4557889594528579
0.2564363500005129 0.45481191988275516 0.48216902784562765
0.2566266050007471 0.4587200781631655 0.5026868588177822
0.25681686000007176 0.457743038593063 0.5183194919394236
0.2570066520002001 0.45676599902296044 0.5232046897899365
0.25719720400047663 0.457743038593063 0.524181729360039
0.25738912599990726 0.4538348803126526 0.5192965315095261
0.25757971400071256 0.457743038593063 0.5134342940889105
0.2577898389999973 0.45676599902296044 0.5065950170981925
0.25797968700044294 0.45676599902296044 0.5085490962383976
0.258172683000339 0.4557889594528579 0.5075720566682951
0.2583633080002983 0.4538348803126526 0.5065950170981925
0.25855304500055354 0.45481191988275516 0.5065950170981925
0.2587427070002377 0.44992672203224227 0.5085490962383976
0.25893266599996423 0.44699560332193444 0.5114802149487054
0.25912327300011384 0.44894968246213973 0.512457254518808
0.259313084000496 0.44992672203224227 0.5114802149487054
0.25950348700007453 0.45188080117244755 0.5085490962383976
0.259693205000076 0.4509037616023448 0.5007327796775769
0.25988351500018325 0.4509037616023448 0.4880312652662433
0.26007425200077705 0.44992672203224227 0.4733756717147044
0.2602643400005036 0.4509037616023448 0.45676599902296044
0.26045433600029355 0.4479726428920372 0.4352711284807034
0.2606442579999566 0.4509037616023448 0.4176844162188569
0.2608338840000215 0.44992672203224227 0.3961895456765998
0.2610240280000653 0.44992672203224227 0.37469467513434296
0.2612134490000244 0.44894968246213973 0.3561309233023937
0.26140537100036454 0.44992672203224227 0.3385442110405472
0.2615955710007256 0.4528578407425501 0.31900341963849543
0.2617863440000292 0.4557889594528579 0.3063019052271616
0.2619765620001999 0.45188080117244755 0.2984855886663409
0.2621665030001168 0.44894968246213973 0.2955544699560333
0.262356887000351 0.44992672203224227 0.3004396678065462
0.26254792000054294 0.45188080117244755 0.3082559843673669
0.2627388230002907 0.44699560332193444 0.3160723009281876
0.2629286530000172 0.4450415241817294 0.32486565705911086
0.2631191480004418 0.4430874450415241 0.33268197361993157
0.26330973700078175 0.4382022471910112 0.3336590131900341
0.2634997700006352 0.4382022471910112 0.33756717147044446
0.2636905620001926 0.4382022471910112 0.34636052760136793
0.2639063900005567 0.4382022471910112 0.35710796287249624
0.2640965900000083 0.43624816805080613 0.35222276502198335
0.264286364000327 0.4401563263312165 0.3512457254518808
0.26447678500062466 0.4401563263312165 0.35417684416218864
0.2646681890000764 0.4382022471910112 0.35417684416218864
0.2648587210005644 0.43917928676111373 0.35710796287249624
0.2650491430003967 0.4382022471910112 0.3610161211529066
0.2652393430007578 0.4450415241817294 0.38153395212506114
0.26545224500023323 0.44211040547142155 0.4157303370786516
0.265681389000747 0.44699560332193444 0.4606741573033708
0.26593745700029103 0.4479726428920372 0.5095261358085001
0.2661739889999808 0.44992672203224227 0.5495847581827065
0.26638496600025974 0.4538348803126526 0.5925744992672204
0.2665835360003257 0.45188080117244755 0.6345872007816316
0.2667748650001158 0.4528578407425501 0.6629213483146068
0.26696515700041346 0.45481191988275516 0.6844162188568637
0.2671555970000554 0.457743038593063 0.6922325354176844
0.26734601900079724 0.45481191988275516 0.6971177332681973
0.26753616299993155 0.457743038593063 0.6912554958475818
0.26772917700054677 0.4557889594528579 0.688324377137274
0.2679202660001465 0.4557889594528579 0.6687835857352222
0.2681106690006345 0.45481191988275516 0.6404494382022472
0.26830116500059376 0.457743038593063 0.605276013678554
0.26849129000038374 0.4557889594528579 0.5593551538837322
0.26868215600006806 0.4509037616023448 0.5085490962383976
0.2688718930003233 0.45481191988275516 0.45676599902296044
0.2690618330007055 0.45188080117244755 0.4137762579384465
0.269252107000284 0.4479726428920372 0.36003908158280407
0.2694856020007137 0.4460185637518319 0.3238886174890083
0.26967630100079987 0.44699560332193444 0.29946262823644365
0.2698666120004418 0.4460185637518319 0.2877381533952126
0.27005688500048564 0.44211040547142155 0.2789447972642891
0.2702465669999583 0.4460185637518319 0.27699071812408405
0.2704412660004891 0.4450415241817294 0.2808988764044944
0.2706309470004271 0.44406448461162684 0.2887151929653151
0.2708217950003018 0.4460185637518319 0.3063019052271616
0.27101260500057833 0.4509037616023448 0.33756717147044446
0.2712031750006645 0.45188080117244755 0.37957987298485585
0.27139317100045446 0.4509037616023448 0.43722520762090866
0.27158342600068863 0.4528578407425501 0.4929164631167562
0.2717736070007959 0.4587200781631655 0.5486077186126037
0.271963770000184 0.457743038593063 0.5906204201270151
0.2721568020006089 0.45481191988275516 0.6140693698094772
0.27234672400027193 0.4528578407425501 0.6238397655105032
0.27253733100042155 0.45676599902296044 0.6199316072300929
0.27272840100067697 0.4538348803126526 0.6072300928187591
0.2729188780003824 0.45188080117244755 0.5925744992672204
0.2731101330000456 0.4509037616023448 0.5837811431362969
0.2733032770001955 0.4509037616023448 0.5759648265754762
0.2734942550005144 0.45188080117244755 0.5691255495847583
0.27368410200051585 0.4509037616023448 0.5603321934538348
0.2738745240003482 0.45188080117244755 0.5534929164631168
0.27409270499993 0.44992672203224227 0.5417684416218858
0.2742853670006298 0.44894968246213973 0.5280898876404494
0.2744761220001237 0.45481191988275516 0.5095261358085001
0.2746665810000195 0.4509037616023448 0.4938935026868587
0.27485741000054986 0.4538348803126526 0.4802149487054226
0.27504846100055147 0.44894968246213973 0.46946751343429405
0.2752391419999185 0.4509037616023448 0.4606741573033708
0.27542900900061795 0.45188080117244755 0.4538348803126526
0.27561869000055594 0.45188080117244755 0.4509037616023448
0.2758093150005152 0.45188080117244755 0.44406448461162684
0.27599994100000913 0.44992672203224227 0.4382022471910112
0.27619069600041257 0.44992672203224227 0.43722520762090866
0.27638113600005454 0.4538348803126526 0.4352711284807034
0.27657544700014114 0.4509037616023448 0.4333170493404983
0.27676877600060834 0.45188080117244755 0.4333170493404983
0.2769700680000824 0.4479726428920372 0.4303859306301905
0.2771723780006141 0.44894968246213973 0.42256961406936977
0.27740289100074733 0.44992672203224227 0.42159257449926724
0.27759559100013576 0.44992672203224227 0.412799218368344
0.2777862350003488 0.4479726428920372 0.40986809965803617
0.2779775270000755 0.4509037616023448 0.41182217879824123
0.27819344799991086 0.44992672203224227 0.412799218368344
0.27838416600025084 0.44699560332193444 0.4137762579384465
0.2785783290000836 0.4509037616023448 0.42159257449926724
0.2787679360008042 0.44992672203224227 0.4255007327796776
0.27895889400042506 0.44699560332193444 0.431362970200293
0.2791488160000881 0.4509037616023448 0.43429408891060084
0.27933983100047044 0.44992672203224227 0.4382022471910112
0.2795303259999855 0.44894968246213973 0.441133365901319
0.2797206000004735 0.44894968246213973 0.4450415241817294
0.2799107440005173 0.4509037616023448 0.44699560332193444
0.2801010920002227 0.45188080117244755 0.4479726428920372
0.28029099500054144 0.44992672203224227 0.4460185637518319
0.28049115700014227 0.44894968246213973 0.4528578407425501
0.28068770800018683 0.44992672203224227 0.45188080117244755
0.28088351900078123 0.44992672203224227 0.4538348803126526
0.28108386600069935 0.44894968246213973 0.45481191988275516
0.2813075470003241 0.44992672203224227 0.46262823644357587
0.28152000499994756 0.44894968246213973 0.4538348803126526
0.2817169820000345 0.4538348803126526 0.457743038593063
0.28192295900043973 0.4528578407425501 0.457743038593063
0.2821254360005696 0.45188080117244755 0.4587200781631655
0.28233256100065773 0.45188080117244755 0.45676599902296044
0.2826309990005029 0.4509037616023448 0.4538348803126526
0.2828995670006407 0.45188080117244755 0.4460185637518319
0.28316954300044017 0.44992672203224227 0.43624816805080613
0.2834321110003657 0.4509037616023448 0.431362970200293
0.28366105100030836 0.45188080117244755 0.4264777723497801
0.28386462000071333 0.4479726428920372 0.4255007327796776
0.28407206000065344 0.4479726428920372 0.42256961406936977
0.28428325900040363 0.4450415241817294 0.41670737664875435
0.28449558800002706 0.44406448461162684 0.4157303370786516
0.2847050090003904 0.4460185637518319 0.4137762579384465
0.2849481890007155 0.4430874450415241 0.40205178309721545
0.2852202390004095 0.4450415241817294 0.39716658524670256
0.2854617890006921 0.4450415241817294 0.3913043478260869
0.2856969880003817 0.44406448461162684 0.3932584269662922
0.28594364900072833 0.4450415241817294 0.3981436248168051
0.2861643109999932 0.44406448461162684 0.4079140205178309
0.28636554700005945 0.4430874450415241 0.412799218368344
0.2865669130005699 0.4430874450415241 0.4235466536394723
0.2867701310005941 0.4460185637518319 0.431362970200293
0.28696971900080825 0.44211040547142155 0.441133365901319
0.28717641799994453 0.441133365901319 0.4479726428920372
0.2874169130000155 0.44699560332193444 0.4479726428920372
0.2876432230004866 0.44894968246213973 0.44992672203224227
0.2878408850001506 0.4450415241817294 0.4528578407425501
0.2880334000001312 0.44211040547142155 0.4528578407425501
0.28822367300017504 0.4430874450415241 0.45481191988275516
0.2884152800006632 0.44406448461162684 0.44699560332193444
0.28860553499998787 0.441133365901319 0.44992672203224227
0.28879627200058167 0.441133365901319 0.44992672203224227
0.288986508000562 0.441133365901319 0.45481191988275516
0.289176375000352 0.441133365901319 0.4655593551538837
0.28939859199999773 0.441133365901319 0.46946751343429405
0.28958947699993587 0.4460185637518319 0.47435271128480694
0.2897804910007835 0.4450415241817294 0.4704445530043966
0.2899708760005524 0.45188080117244755 0.4636052760136786
0.2901614640004482 0.44699560332193444 0.45188080117244755
0.2903521450007247 0.44699560332193444 0.4333170493404983
0.290544084999965 0.4450415241817294 0.412799218368344
0.2907365999999456 0.44699560332193444 0.3883732291157791
0.2909276880000107 0.44992672203224227 0.35906204201270153
0.2911187019999488 0.45481191988275516 0.33756717147044446
0.29131140200024674 0.4509037616023448 0.3277967757694187
0.2915393410003162 0.45481191988275516 0.33463605276013686
0.2917478740000661 0.45969711773326827 0.3502686858817783
0.2919406099999833 0.4557889594528579 0.37176355642403514
0.29213223600072524 0.45676599902296044 0.4049829018075233
0.29232308300015575 0.457743038593063 0.44211040547142155
0.2925148390004324 0.457743038593063 0.4802149487054226
0.292706205000286 0.4528578407425501 0.512457254518808
0.29289670100024523 0.4538348803126526 0.5417684416218858
0.29308828900047956 0.45481191988275516 0.5691255495847583
0.2932820810001431 0.4528578407425501 0.5876893014167073
0.2934730770002716 0.45481191988275516 0.6013678553981436
0.29366305400071724 0.457743038593063 0.6033219345383487
0.2938536430001477 0.45481191988275516 0.5915974596971176
0.29404606400021294 0.4528578407425501 0.5798729848558866
0.2942360050001298 0.4557889594528579 0.5613092330239375
0.29442740800004685 0.45481191988275516 0.5388373229115779
0.2946175890001541 0.4538348803126526 0.5144113336590133
0.2948078440003883 0.457743038593063 0.4851001465559355
0.2949978579999879 0.45481191988275516 0.4528578407425501
0.2951875389999259 0.4538348803126526 0.4186614557889594
0.29537862800043513 0.4538348803126526 0.3903273082559844
0.2955690870003309 0.4557889594528579 0.3688324377137273
0.2957601930002056 0.4557889594528579 0.3531998045920859
0.29594983700008015 0.45969711773326827 0.34636052760136793
0.2961404260004201 0.457743038593063 0.3424523693209576
0.29633090300012555 0.45481191988275516 0.35222276502198335
0.29652117700061353 0.4587200781631655 0.3610161211529066
0.2967117280004459 0.45676599902296044 0.37176355642403514
0.29690179800036276 0.457743038593063 0.38251099169516367
0.2970915160003642 0.4606741573033708 0.3854421104054715
0.2972848270001123 0.46262823644357587 0.38641914997557403
0.29747495200081175 0.45969711773326827 0.3883732291157791
0.2976652440001999 0.46165119687347334 0.38935026868588185
0.29785575900041295 0.46165119687347334 0.38935026868588185
0.2980457920002664 0.46262823644357587 0.39423546653639474
0.2982362500006275 0.4636052760136786 0.39423546653639474
0.29842769100014266 0.45969711773326827 0.4108451392281387
0.29861959400022897 0.4587200781631655 0.4333170493404983
0.2988112930006537 0.4587200781631655 0.4655593551538837
0.299008493000656 0.45969711773326827 0.4929164631167562
0.29921237700000347 0.45676599902296044 0.5192965315095261
0.2994292060002408 0.46165119687347334 0.5427454811919883
0.29962788700049714 0.4557889594528579 0.5828041035661944
0.2998440119999941 0.4528578407425501 0.5925744992672204
0.30003560000022844 0.45676599902296044 0.6101612115290669
0.3002260400007799 0.457743038593063 0.6160234489496825
0.300417684000422 0.45481191988275516 0.6091841719589643
0.30060725400016963 0.4528578407425501 0.5935515388373229
0.30079734300034033 0.457743038593063 0.5798729848558866
0.3009871900003418 0.44992672203224227 0.5622862725940401
0.3011788900003012 0.45188080117244755 0.5466536394723986
0.30140527399998973 0.44992672203224227 0.5359062042012701
0.30159601000013936 0.45676599902296044 0.524181729360039
0.30178991299999325 0.44699560332193444 0.5114802149487054
0.3019801500004178 0.4460185637518319 0.4978016609672691
0.3021704980001232 0.44699560332193444 0.48412310698583294
0.3023605120006323 0.44406448461162684 0.46946751343429405
0.30255048900016845 0.44406448461162684 0.4538348803126526
0.30274037400067755 0.4450415241817294 0.4430874450415241
0.3029306660000657 0.44406448461162684 0.43624816805080613
0.30312073599998257 0.44211040547142155 0.4284318514899854
0.3033108990002802 0.44211040547142155 0.42159257449926724
0.3035009320001336 0.44211040547142155 0.42159257449926724
0.30369166800028324 0.44211040547142155 0.41670737664875435
0.30389377500068804 0.44211040547142155 0.412799218368344
0.30408523400001286 0.441133365901319 0.41182217879824123
0.304277285000353 0.43917928676111373 0.403028822667318
0.3044683360003546 0.4401563263312165 0.403028822667318
0.3046579620004195 0.4401563263312165 0.39423546653639474
0.30484819800039986 0.441133365901319 0.3932584269662922
0.3050382500005071 0.44211040547142155 0.39228138739618945
0.3052282090002336 0.4460185637518319 0.403028822667318
0.3054187780007851 0.4430874450415241 0.40986809965803617
0.30560895899998286 0.4401563263312165 0.4186614557889594
0.3057981590000054 0.43917928676111373 0.43429408891060084
0.3059883030000492 0.43722520762090866 0.4479726428920372
0.3061780580001141 0.4382022471910112 0.4557889594528579
0.3063683870004752 0.4401563263312165 0.46165119687347334
0.3065587910004979 0.43917928676111373 0.45676599902296044
0.3067489530003513 0.4401563263312165 0.44211040547142155
0.30693878200054314 0.44211040547142155 0.4235466536394723
0.3071287780003331 0.44211040547142155 0.40693698094772834
0.30731894100063073 0.44211040547142155 0.3981436248168051
0.3075093249999554 0.441133365901319 0.4010747435271129
0.30769982099991466 0.4450415241817294 0.4186614557889594
0.3078984460007632 0.44406448461162684 0.44406448461162684
0.3080902010005957 0.4430874450415241 0.4684904738641915
0.3082806790007453 0.441133365901319 0.4831460674157304
0.30847028600055637 0.44211040547142155 0.4909623839765511
0.30866052200053673 0.4430874450415241 0.4851001465559355
0.30885029599994596 0.44211040547142155 0.4684904738641915
0.30904042100064544 0.44406448461162684 0.4509037616023448
0.30923069500022393 0.441133365901319 0.4264777723497801
0.30942241299999296 0.44406448461162684 0.39423546653639474
0.3096117420000155 0.44211040547142155 0.358085002442599
0.3098014790002708 0.441133365901319 0.32193453834880303
0.3099912520001453 0.4450415241817294 0.29457743038593054
0.3101817110000411 0.44894968246213973 0.28285295554469947
0.31037176300014835 0.4509037616023448 0.2857840742550073
0.31056125900067855 0.45676599902296044 0.29946262823644365
0.3107534390001092 0.4587200781631655 0.31998045920859797
0.3109538610005984 0.45969711773326827 0.3502686858817783
0.31114826400062157 0.4606741573033708 0.3903273082559844
0.31133890799992514 0.4606741573033708 0.42745481191988266
0.31152842300070915 0.4587200781631655 0.46458231558378116
0.3117183260001184 0.45676599902296044 0.4909623839765511
0.31190908100052184 0.457743038593063 0.5036638983878847
0.31209904000024835 0.45969711773326827 0.49975574010747437
0.3122893870004191 0.457743038593063 0.4851001465559355
0.31247886500023014 0.4538348803126526 0.4665363947239862
0.3126727490007397 0.45481191988275516 0.44211040547142155
0.312864116000128 0.4538348803126526 0.42256961406936977
0.3130539450003198 0.4538348803126526 0.40986809965803617
0.313243607000004 0.44992672203224227 0.41182217879824123
0.3134650280007918 0.4509037616023448 0.4186614557889594
0.31366217200047686 0.45481191988275516 0.4460185637518319
0.3138558720002038 0.4538348803126526 0.4802149487054226
0.314055701000143 0.45188080117244755 0.522227650219834
0.3142501219999758 0.457743038593063 0.5554469956033219
0.3144449880001048 0.4557889594528579 0.58866634098681
0.31465292800021416 0.4557889594528579 0.6023448949682462
0.31486225700064097 0.4557889594528579 0.6023448949682462
0.315064586000517 0.4538348803126526 0.58866634098681
0.3152839700005643 0.45188080117244755 0.5691255495847583
0.3154835949999324 0.45481191988275516 0.5476306790425012
0.31568586899993534 0.4509037616023448 0.5271128480703469
0.3158916600004886 0.45481191988275516 0.5173424523693209
0.31610036000074615 0.4509037616023448 0.49877870053737183
0.3164973140001166 0.44699560332193444 0.49975574010747437
0.3167455490001885 0.44699560332193444 0.49877870053737183
0.3169800440000472 0.45481191988275516 0.4880312652662433
0.31721320599990577 0.4479726428920372 0.4811919882755251
0.31746442200073943 0.44894968246213973 0.46946751343429405
0.31769658400025946 0.4479726428920372 0.4528578407425501
0.31791467200037005 0.44992672203224227 0.44211040547142155
0.3181272600004377 0.45188080117244755 0.4333170493404983
0.31834175500080164 0.4450415241817294 0.42940889106008795
0.318550139000763 0.4479726428920372 0.4255007327796776
0.31875383900023735 0.44992672203224227 0.4235466536394723
0.3189486860001125 0.4509037616023448 0.4284318514899854
0.31913944100051594 0.4528578407425501 0.4333170493404983
0.31932925199998863 0.45188080117244755 0.4479726428920372
0.3195332290006263 0.4509037616023448 0.457743038593063
0.31976007600042067 0.4528578407425501 0.4704445530043966
0.3200133670006835 0.44992672203224227 0.4811919882755251
0.32026456500079803 0.4538348803126526 0.4802149487054226
0.3204909120004231 0.4509037616023448 0.47923790913532005
0.32074242500038963 0.4538348803126526 0.4763067904250122
0.32098419700014347 0.45676599902296044 0.4684904738641915
0.321204711000064 0.4509037616023448 0.4665363947239862
0.3214145770007235 0.4509037616023448 0.45676599902296044
0.3216124240007048 0.4479726428920372 0.4460185637518319
0.32181125300030544 0.44894968246213973 0.4352711284807034
0.32202219300052093 0.44894968246213973 0.42159257449926724
0.32224413299991284 0.44699560332193444 0.40986809965803617
0.32244864700078324 0.44699560332193444 0.3961895456765998
0.3226528640007018 0.44699560332193444 0.38446507083536874
0.32285161900017556 0.4430874450415241 0.38641914997557403
0.32304311500047334 0.4460185637518319 0.38446507083536874
0.32323314800032676 0.4460185637518319 0.38935026868588185
0.32342347700068785 0.44406448461162684 0.39912066438690763
0.32361426900024526 0.4460185637518319 0.3981436248168051
0.3238064500001201 0.4460185637518319 0.4049829018075233
0.323996798000735 0.4460185637518319 0.412799218368344
0.32418755300022895 0.4450415241817294 0.41963849535906195
0.32437790099993435 0.4430874450415241 0.41963849535906195
0.32456791500044346 0.44406448461162684 0.4186614557889594
0.32475805900048726 0.44406448461162684 0.4186614557889594
0.3249480360000234 0.4450415241817294 0.41475329750854906
0.32514040200021554 0.441133365901319 0.4137762579384465
0.32533543499994266 0.4430874450415241 0.41475329750854906
0.3255490050005392 0.4430874450415241 0.4157303370786516
0.3257395560003715 0.44406448461162684 0.4235466536394723
0.3259301440002673 0.441133365901319 0.43722520762090866
0.326120233000438 0.4479726428920372 0.45188080117244755
0.3263100250005664 0.44699560332193444 0.46262823644357587
0.3265008170001238 0.44992672203224227 0.4665363947239862
0.32669086900023103 0.4509037616023448 0.46946751343429405
0.3268804760000421 0.44894968246213973 0.47142159257449934
0.32707356400078424 0.44894968246213973 0.467513434294089
0.32726467100019363 0.4509037616023448 0.46262823644357587
0.327454463000322 0.44992672203224227 0.46262823644357587
0.32764425500045036 0.44992672203224227 0.4587200781631655
0.3278340840006422 0.4479726428920372 0.44699560332193444
0.3280239320001783 0.4479726428920372 0.43624816805080613
0.32821359500030667 0.44699560332193444 0.42452369320957506
0.32840314600070997 0.44699560332193444 0.4176844162188569
0.32859327100049995 0.4479726428920372 0.412799218368344
0.3287836560002688 0.4538348803126526 0.4206155349291647
0.32897396699991077 0.45188080117244755 0.42940889106008795
0.32916455500071606 0.45188080117244755 0.4401563263312165
0.3293770880000011 0.4509037616023448 0.4528578407425501
0.32957004600029904 0.44992672203224227 0.4655593551538837
0.3297595789999832 0.4509037616023448 0.4782608695652173
0.32994937100011157 0.44992672203224227 0.486077186126038
0.33013905200004956 0.45188080117244755 0.49682462139716654
0.330329678000453 0.44992672203224227 0.5017098192476794
0.33052069200039114 0.4509037616023448 0.4978016609672691
0.33071181800005434 0.4509037616023448 0.4978016609672691
0.3309015540007749 0.4528578407425501 0.4948705422569615
0.3310916240006918 0.4509037616023448 0.4909623839765511
0.33128184199995303 0.4538348803126526 0.4929164631167562
0.3314718940000603 0.45481191988275516 0.4880312652662433
0.33166238900048484 0.45481191988275516 0.4880312652662433
0.3318528480003806 0.4538348803126526 0.4802149487054226
0.332042640000509 0.45188080117244755 0.4782608695652173
0.3322325440003624 0.4509037616023448 0.4782608695652173
0.33242278000034275 0.44894968246213973 0.4763067904250122
0.3326131650001116 0.4528578407425501 0.4782608695652173
0.3328056420004941 0.45481191988275516 0.4811919882755251
0.3330064340007084 0.44699560332193444 0.4851001465559355
0.3332253180005864 0.44699560332193444 0.486077186126038
0.33343979500023124 0.4460185637518319 0.47728382999511476
0.33365288300046814 0.44894968246213973 0.47142159257449934
0.33384497099996224 0.44992672203224227 0.4684904738641915
0.33403524500045023 0.4479726428920372 0.4587200781631655
0.33422520400017675 0.44699560332193444 0.44894968246213973
0.3344153660000302 0.4479726428920372 0.4382022471910112
0.3346065100004125 0.44992672203224227 0.4303859306301905
0.33479789500051993 0.44894968246213973 0.4255007327796776
0.33498968700041587 0.44992672203224227 0.42452369320957506
0.3351816829999734 0.4479726428920372 0.42745481191988266
0.3353718080006729 0.44992672203224227 0.4303859306301905
0.335561415000484 0.4479726428920372 0.4352711284807034
0.33575104100054887 0.44699560332193444 0.43624816805080613
0.33594148100019083 0.4460185637518319 0.43429408891060084
0.33613132900063647 0.44406448461162684 0.4303859306301905
0.33632073200078594 0.4509037616023448 0.4284318514899854
0.3365101350000259 0.44992672203224227 0.4352711284807034
0.33669952000036574 0.45188080117244755 0.43917928676111373
0.336901071000284 0.44894968246213973 0.4479726428920372
0.33710528900064674 0.45188080117244755 0.4557889594528579
0.3373144320003121 0.44992672203224227 0.45969711773326827
0.3375274650006759 0.4509037616023448 0.467513434294089
0.3377351640001507 0.4479726428920372 0.47239863214460187
0.3379503810001552 0.44699560332193444 0.48216902784562765
0.33815119200062327 0.44992672203224227 0.48705422569614076
0.33838929800003825 0.4479726428920372 0.4831460674157304
0.338616663000721 0.45188080117244755 0.4811919882755251
0.33882277000066097 0.4509037616023448 0.4782608695652173
0.33903980200011574 0.4538348803126526 0.47923790913532005
0.3392406500006473 0.4538348803126526 0.4733756717147044
0.33943186800024705 0.457743038593063 0.467513434294089
0.3396225120004601 0.4557889594528579 0.4538348803126526
0.339813470000081 0.4587200781631655 0.43917928676111373
0.3400039289999768 0.4587200781631655 0.4235466536394723
0.34019912900021154 0.4587200781631655 0.40986809965803617
0.340389291000065 0.4606741573033708 0.39423546653639474
0.3405812680002782 0.4665363947239862 0.38251099169516367
0.34077207900008943 0.4636052760136786 0.37957987298485585
0.34096177900028124 0.46262823644357587 0.38446507083536874
0.34115236700017704 0.4636052760136786 0.4010747435271129
0.34139571400010027 0.46262823644357587 0.41963849535906195
0.34158707999995386 0.46165119687347334 0.4538348803126526
0.34193538700037607 0.45969711773326827 0.47142159257449934
0.3421702710002137 0.45481191988275516 0.4782608695652173
0.3423606550004479 0.4528578407425501 0.4831460674157304
0.34255098500034364 0.4509037616023448 0.4831460674157304
0.34274164700036636 0.44894968246213973 0.47728382999511476
0.34293184700072743 0.44894968246213973 0.4704445530043966
0.3431234720001157 0.45188080117244755 0.467513434294089
0.34331452300011733 0.44406448461162684 0.45969711773326827
0.3435051120004573 0.44699560332193444 0.45481191988275516
0.3436955710003531 0.44406448461162684 0.44992672203224227
0.34388534400022763 0.4450415241817294 0.4450415241817294
0.34407530299995415 0.4430874450415241 0.4430874450415241
0.3442655580001883 0.4450415241817294 0.43429408891060084
0.34445553500063397 0.4460185637518319 0.431362970200293
0.34464638300050865 0.4460185637518319 0.43722520762090866
0.34484667500055366 0.4460185637518319 0.44211040547142155
0.34505704100047296 0.4460185637518319 0.44699560332193444
0.34525431400015805 0.4450415241817294 0.44992672203224227
0.34547305000069173 0.44699560332193444 0.4479726428920372
0.3456623980000586 0.4450415241817294 0.4509037616023448
0.34585406000041985 0.4430874450415241 0.4509037616023448
0.34604374100035784 0.4450415241817294 0.46262823644357587
0.34623427400038054 0.44406448461162684 0.4753297508549097
0.3464243810003609 0.4460185637518319 0.48216902784562765
0.3466146730006585 0.441133365901319 0.495847581827064
0.34680522500002553 0.44211040547142155 0.5075720566682951
0.3469981280004504 0.44406448461162684 0.5163654127992183
0.34719449400017766 0.4430874450415241 0.5163654127992183
0.34739499000079377 0.44211040547142155 0.5085490962383976
0.34759546700024657 0.4528578407425501 0.495847581827064
0.3478039070005252 0.44406448461162684 0.4802149487054226
0.3480037910003375 0.44699560332193444 0.4636052760136786
0.3482092680005735 0.4460185637518319 0.44894968246213973
0.34841289300038625 0.4450415241817294 0.4382022471910112
0.34862103700015723 0.4479726428920372 0.4108451392281387
0.3488581609999528 0.44894968246213973 0.39716658524670256
0.34908539700063557 0.4509037616023448 0.38739618954567656
0.34936785400077497 0.45188080117244755 0.3678553981436248
0.34968895800011524 0.44992672203224227 0.3531998045920859
0.3499315819999538 0.4538348803126526 0.34733756717147046
0.35017546600010974 0.45188080117244755 0.34636052760136793
0.350419220000731 0.4509037616023448 0.3561309233023937
0.35063760400043975 0.44992672203224227 0.36980947728383007
0.35084543300035875 0.45188080117244755 0.3913043478260869
0.35111279700049636 0.45188080117244755 0.4108451392281387
0.35131397800068953 0.4538348803126526 0.4255007327796776
0.351513585000248 0.45188080117244755 0.4401563263312165
0.35171052500027145 0.44894968246213973 0.44894968246213973
0.3519067430006544 0.45188080117244755 0.4665363947239862
0.3520963870005289 0.4509037616023448 0.46458231558378116
0.3522876050001287 0.4538348803126526 0.4704445530043966
0.3524775450005109 0.4509037616023448 0.4763067904250122
0.35266733700063924 0.4528578407425501 0.4782608695652173
0.3528575919999639 0.45188080117244755 0.47728382999511476
0.35304730999996536 0.4509037616023448 0.4763067904250122
0.3532368800006225 0.44992672203224227 0.47142159257449934
0.3534333580000748 0.4509037616023448 0.46262823644357587
0.35362313099994935 0.44894968246213973 0.46165119687347334
0.353812664000543 0.44699560332193444 0.457743038593063
0.3540039190002062 0.44992672203224227 0.4528578407425501
0.35419376700065186 0.44894968246213973 0.4460185637518319
0.3543834850006533 0.44992672203224227 0.4430874450415241
0.35457411000061256 0.4479726428920372 0.44406448461162684
0.35476425400065636 0.4479726428920372 0.43917928676111373
0.3549586020008064 0.4509037616023448 0.441133365901319
0.35516293100045004 0.44894968246213973 0.44992672203224227
0.35535361200072657 0.44699560332193444 0.4450415241817294
0.3555438850007704 0.44894968246213973 0.4430874450415241
0.3557335660007084 0.44894968246213973 0.44406448461162684
0.35592611800075247 0.4528578407425501 0.43722520762090866
0.3561334470005022 0.4557889594528579 0.43722520762090866
0.3563716270000441 0.4509037616023448 0.4450415241817294
0.35661891700056003 0.457743038593063 0.45969711773326827
0.35685444899991126 0.4538348803126526 0.4733756717147044
0.3570937590002359 0.4528578407425501 0.48900830483634583
0.3573385130002862 0.4509037616023448 0.495847581827064
0.3575749520005047 0.4557889594528579 0.4938935026868587
0.35777961400071945 0.457743038593063 0.4811919882755251
0.3579799429999184 0.4528578407425501 0.467513434294089
0.35818019800080947 0.4528578407425501 0.4509037616023448
0.35838119400068535 0.4587200781631655 0.441133365901319
0.358585208000477 0.45481191988275516 0.43429408891060084
0.358787296000628 0.4606741573033708 0.42940889106008795
0.35899431000052573 0.45676599902296044 0.42745481191988266
0.3592077870007415 0.45676599902296044 0.4333170493404983
0.3594099300007656 0.457743038593063 0.4352711284807034
0.3596018890002597 0.45969711773326827 0.4333170493404983
0.3598176620007507 0.45676599902296044 0.42745481191988266
0.36000826899999083 0.45969711773326827 0.42256961406936977
0.36019874700014043 0.4587200781631655 0.4176844162188569
0.3603924650005865 0.457743038593063 0.4176844162188569
0.36058266400050343 0.457743038593063 0.4176844162188569
0.3607726410000396 0.457743038593063 0.41963849535906195
0.3609632480001892 0.46165119687347334 0.4264777723497801
0.36115344800055027 0.4528578407425501 0.42745481191988266
0.3613709250003012 0.4557889594528579 0.43624816805080613
0.3615619760003028 0.45188080117244755 0.44992672203224227
0.3617515640007696 0.4538348803126526 0.4655593551538837
0.36194132000036916 0.4528578407425501 0.486077186126038
0.36213250099990546 0.4538348803126526 0.5065950170981925
0.36232286700033 0.4528578407425501 0.5183194919394236
0.36251315900062764 0.457743038593063 0.5134342940889105
0.36270311800035415 0.45188080117244755 0.5017098192476794
0.3628931140001441 0.44894968246213973 0.4831460674157304
0.363083627999913 0.4479726428920372 0.46262823644357587
0.3632735130004221 0.4479726428920372 0.441133365901319
0.3634647680000853 0.44992672203224227 0.4255007327796776
0.363663560000532 0.4509037616023448 0.4186614557889594
0.36385592600072414 0.44992672203224227 0.41182217879824123
0.3640470330001335 0.4479726428920372 0.40986809965803617
0.36423795400060044 0.4460185637518319 0.4108451392281387
0.364428597999904 0.4460185637518319 0.4108451392281387
0.3646186129999478 0.44699560332193444 0.4176844162188569
0.3648091459999705 0.44406448461162684 0.42256961406936977
0.36499997500050085 0.4460185637518319 0.42745481191988266
0.36519037800007936 0.4479726428920372 0.4382022471910112
0.3653821890002291 0.4479726428920372 0.44211040547142155
0.3655727590003153 0.4430874450415241 0.4430874450415241
0.36576327300008415 0.4450415241817294 0.44211040547142155
0.3659534540001914 0.4460185637518319 0.4479726428920372
0.36614354199991794 0.44211040547142155 0.44894968246213973
0.36633914899994124 0.4430874450415241 0.4538348803126526
0.36655451500064373 0.44211040547142155 0.4606741573033708
0.3668009350003558 0.4460185637518319 0.467513434294089
0.36706052200042905 0.4460185637518319 0.4684904738641915
0.3672789250003916 0.44406448461162684 0.4655593551538837
0.36747084700073174 0.44406448461162684 0.4655593551538837
0.36766158299997187 0.43917928676111373 0.4636052760136786
0.36785356100062927 0.43917928676111373 0.4528578407425501
0.3680796670005293 0.4401563263312165 0.4401563263312165
0.36827482900025643 0.441133365901319 0.4235466536394723
0.3684673620000467 0.441133365901319 0.4049829018075233
0.3686594690007041 0.44211040547142155 0.38739618954567656
0.3688515570001982 0.44211040547142155 0.37176355642403514
0.3690418860005593 0.44211040547142155 0.3512457254518808
0.3692323640007089 0.44211040547142155 0.33463605276013686
0.36942382200049906 0.44211040547142155 0.3209574987787005
0.36961409600007755 0.44406448461162684 0.31998045920859797
0.36980418500024825 0.4479726428920372 0.3141182217879823
0.36999432900029205 0.4509037616023448 0.3258426966292134
0.37018463900039933 0.45481191988275516 0.3502686858817783
0.3703743760006546 0.45969711773326827 0.37957987298485585
0.37056472299991583 0.46262823644357587 0.41963849535906195
0.37075468200055184 0.46458231558378116 0.46946751343429405
0.37094503000025725 0.46165119687347334 0.5095261358085001
0.3711347480002587 0.4606741573033708 0.5427454811919883
0.3713250959999641 0.4655593551538837 0.5808500244259893
0.3715158690001772 0.46262823644357587 0.605276013678554
0.371708050000052 0.4655593551538837 0.6306790425012212
0.37189795399990544 0.4636052760136786 0.6453346360527601
0.3720883750002031 0.4665363947239862 0.650219833903273
0.3722790010006065 0.46458231558378116 0.6570591108939912
0.372469848000037 0.4655593551538837 0.659990229604299
0.37266045500018663 0.4655593551538837 0.6629213483146068
0.3728509140000824 0.4655593551538837 0.6609672691744015
0.3730411140004435 0.4636052760136786 0.6443575964826576
0.3732316470004662 0.4606741573033708 0.621885686370298
0.3734220500000447 0.46262823644357587 0.5876893014167073
0.3736128230002578 0.4557889594528579 0.5534929164631168
0.3738030600006823 0.44992672203224227 0.5134342940889105
0.3739934630002608 0.45188080117244755 0.4851001465559355
0.3741833849999239 0.4509037616023448 0.45481191988275516
0.37437345500075025 0.44894968246213973 0.431362970200293
0.37456419200043456 0.45188080117244755 0.4137762579384465
0.3747541689999707 0.4479726428920372 0.3981436248168051
0.3749500900003113 0.44699560332193444 0.3903273082559844
0.37514032700073585 0.44992672203224227 0.38251099169516367
0.37533052700018743 0.4587200781631655 0.3805569125549584
0.3755208370002947 0.4528578407425501 0.3805569125549584
0.3757110550004654 0.45188080117244755 0.38641914997557403
0.3759014400002343 0.44894968246213973 0.3913043478260869
0.3761104540008091 0.4528578407425501 0.39912066438690763
0.37630087600064144 0.4538348803126526 0.403028822667318
0.3764926680005374 0.45188080117244755 0.41670737664875435
0.3766830900003697 0.44992672203224227 0.41475329750854906
0.376872956000625 0.4509037616023448 0.4255007327796776
0.37706332200014003 0.4538348803126526 0.4323400097703958
0.3772535030002473 0.45188080117244755 0.44699560332193444
0.37747177600067516 0.45188080117244755 0.45481191988275516
0.3776691610000853 0.45188080117244755 0.46946751343429405
0.37786752700048964 0.45188080117244755 0.4782608695652173
0.37807587400038756 0.45188080117244755 0.4851001465559355
0.378281832000539 0.4509037616023448 0.48998534440644836
0.37847362400043494 0.4479726428920372 0.4880312652662433
0.37866352800028835 0.4460185637518319 0.4909623839765511
0.3788549119999516 0.4479726428920372 0.4929164631167562
0.3790447420005876 0.44894968246213973 0.4948705422569615
0.37923458900058904 0.44699560332193444 0.48998534440644836
0.3794266780005273 0.44406448461162684 0.48705422569614076
0.3796187110001483 0.4479726428920372 0.4782608695652173
0.37980879900078435 0.4479726428920372 0.47142159257449934
0.37999951700021484 0.44992672203224227 0.4636052760136786
0.38020619800045097 0.44992672203224227 0.4587200781631655
0.38039880500036816 0.44699560332193444 0.4538348803126526
0.3805886890004331 0.4450415241817294 0.4479726428920372
0.38077875900034996 0.4460185637518319 0.431362970200293
0.3809692550003092 0.4460185637518319 0.41963849535906195
0.3811599730006492 0.4460185637518319 0.40693698094772834
0.3813735240000824 0.44211040547142155 0.39912066438690763
0.38156377900031657 0.4450415241817294 0.3981436248168051
0.38175351600057184 0.44699560332193444 0.4059599413776258
0.3819434189999811 0.4479726428920372 0.412799218368344
0.38213419300063833 0.4460185637518319 0.42745481191988266
0.38232602200059773 0.4430874450415241 0.44992672203224227
0.38251779500023986 0.44699560332193444 0.47239863214460187
0.38270773600015673 0.44992672203224227 0.49193942354665365
0.38289749100022163 0.4460185637518319 0.5065950170981925
0.3830883939999694 0.45188080117244755 0.5183194919394236
0.38327837100041506 0.4450415241817294 0.5173424523693209
0.38347012600024755 0.4479726428920372 0.5144113336590133
0.38366045500060864 0.44699560332193444 0.5046409379579873
0.3838498029999755 0.4450415241817294 0.48998534440644836
0.3840395950001039 0.44406448461162684 0.47728382999511476
0.38422986900059186 0.44406448461162684 0.46262823644357587
0.38443119800012937 0.43917928676111373 0.4460185637518319
0.38462119399991934 0.44211040547142155 0.4382022471910112
0.3848122270001113 0.43917928676111373 0.4333170493404983
0.38500303700038785 0.4401563263312165 0.4323400097703958
0.3851942000001145 0.44211040547142155 0.42256961406936977
0.38538599200001045 0.4450415241817294 0.4157303370786516
0.3855758390000119 0.44406448461162684 0.4059599413776258
0.3857681870003944 0.4450415241817294 0.39912066438690763
0.3859579610007131 0.44894968246213973 0.3913043478260869
0.38614773400058766 0.44992672203224227 0.3834880312652662
0.38633860100071615 0.44992672203224227 0.3756717147044455
0.3865280410000196 0.4479726428920372 0.3678553981436248
0.38671790700027486 0.44992672203224227 0.3639472398632144
0.38690766200033977 0.4509037616023448 0.36687835857352225
0.38709649100019305 0.4479726428920372 0.37274059599413767
0.3872858390004694 0.4479726428920372 0.3854421104054715
0.38747540900021704 0.4460185637518319 0.40205178309721545
0.38766503400074726 0.44699560332193444 0.41670737664875435
0.38785564099998737 0.4479726428920372 0.43624816805080613
0.3880452299999888 0.4460185637518319 0.4303859306301905
0.3882352999999057 0.44699560332193444 0.43429408891060084
0.38842483300049935 0.4450415241817294 0.4323400097703958
0.38861497700054315 0.4450415241817294 0.4352711284807034
0.3888042320004388 0.4450415241817294 0.4284318514899854
0.3889944500006095 0.4479726428920372 0.42159257449926724
0.3891853720006111 0.44894968246213973 0.412799218368344
0.3893822010004442 0.4479726428920372 0.40205178309721545
0.3895722340002976 0.4538348803126526 0.39423546653639474
0.3897614520001298 0.45188080117244755 0.38251099169516367
0.38995044700004655 0.45481191988275516 0.37274059599413767
0.39014079500066146 0.4538348803126526 0.36687835857352225
0.39033140200081107 0.4509037616023448 0.3610161211529066
0.39052139800060104 0.4509037616023448 0.36003908158280407
0.3907113750001372 0.457743038593063 0.36003908158280407
0.39090175999990606 0.45481191988275516 0.36003908158280407
0.3910917370003517 0.4557889594528579 0.3737176355642404
0.3912821220001206 0.45676599902296044 0.38251099169516367
0.39147239600060857 0.4557889594528579 0.3961895456765998
0.3916626140007793 0.4557889594528579 0.41182217879824123
0.3918523130005269 0.45481191988275516 0.42745481191988266
0.3920420680005918 0.4538348803126526 0.44699560332193444
0.3922323229999165 0.4557889594528579 0.4665363947239862
0.3924302270006592 0.45481191988275516 0.495847581827064
0.39262916700045025 0.4557889594528579 0.512457254518808
0.39282012500007113 0.4528578407425501 0.5192965315095261
0.39301026900011493 0.45188080117244755 0.5202735710796287
0.3932004500002222 0.4528578407425501 0.524181729360039
0.39339129800009687 0.4509037616023448 0.5202735710796287
0.39358181200077524 0.44992672203224227 0.5134342940889105
0.39377158600018447 0.44992672203224227 0.5046409379579873
0.39396121200024936 0.44894968246213973 0.4880312652662433
0.394150910999997 0.44992672203224227 0.47435271128480694
0.39434057400012534 0.44894968246213973 0.4665363947239862
0.39452953199997864 0.4538348803126526 0.45188080117244755
0.3947186949999377 0.45188080117244755 0.4479726428920372
0.3949082830004045 0.4509037616023448 0.4509037616023448
0.3950973350001732 0.44992672203224227 0.4704445530043966
0.3952870160001112 0.4509037616023448 0.47239863214460187
0.3954771040007472 0.4538348803126526 0.4929164631167562
0.39566658200055826 0.4538348803126526 0.5026868588177822
0.3958568550006021 0.4528578407425501 0.5134342940889105
0.39604633300041314 0.4557889594528579 0.522227650219834
0.39623590300016076 0.45676599902296044 0.522227650219834
0.3964252320001833 0.45481191988275516 0.5134342940889105
0.39661500500005786 0.4557889594528579 0.5046409379579873
0.396804575000715 0.45481191988275516 0.49193942354665365
0.39699390400073753 0.45481191988275516 0.47435271128480694
0.39718601100048545 0.4509037616023448 0.46165119687347334
0.3973840440003187 0.4509037616023448 0.4538348803126526
0.39758689100017364 0.4509037616023448 0.4528578407425501
0.39779725700009294 0.44992672203224227 0.4557889594528579
0.39799543800018 0.4557889594528579 0.45676599902296044
0.39820713700009946 0.45188080117244755 0.4636052760136786
0.3984061880000809 0.44894968246213973 0.4636052760136786
0.39865859000019555 0.44992672203224227 0.4753297508549097
0.39889345500068885 0.44699560332193444 0.4782608695652173
0.3991423940005916 0.44992672203224227 0.486077186126038
0.3993977960008124 0.44992672203224227 0.4851001465559355
0.3996468650002498 0.45188080117244755 0.4782608695652173
0.39989987800072413 0.44894968246213973 0.47728382999511476
0.40012987299996894 0.44992672203224227 0.47923790913532005
0.400336757000332 0.44992672203224227 0.47728382999511476
0.400534568000694 0.4479726428920372 0.4763067904250122
0.4007328600000619 0.4479726428920372 0.4811919882755251
0.40093346600042423 0.44992672203224227 0.486077186126038
0.401177091000136 0.44894968246213973 0.4782608695652173
0.40140925200012134 0.4509037616023448 0.4704445530043966
0.40163072900031693 0.45188080117244755 0.4538348803126526
0.4018885010000304 0.4509037616023448 0.441133365901319
0.4021300330005033 0.44992672203224227 0.4333170493404983
0.40237999000055424 0.44894968246213973 0.4333170493404983
0.40259835600045335 0.4479726428920372 0.43429408891060084
0.4028192030000355 0.4509037616023448 0.43624816805080613
0.4030678640001497 0.4479726428920372 0.4460185637518319
0.4033000070003254 0.44699560332193444 0.45481191988275516
0.4035710750004 0.44699560332193444 0.4557889594528579
0.4038021440001103 0.4460185637518319 0.44992672203224227
0.40401458399992407 0.4450415241817294 0.44406448461162684
0.40421785800026555 0.4450415241817294 0.43429408891060084
0.40442159400026867 0.4450415241817294 0.4176844162188569
0.40463012600048387 0.44211040547142155 0.4079140205178309
0.4048325850008041 0.44211040547142155 0.403028822667318
0.4050466910002797 0.441133365901319 0.40205178309721545
0.4052983890005635 0.44211040547142155 0.40693698094772834
0.40552523600035784 0.44211040547142155 0.4059599413776258
0.4057295840002553 0.44211040547142155 0.40986809965803617
0.405976615000327 0.441133365901319 0.41670737664875435
0.4061826290007957 0.44211040547142155 0.4206155349291647
0.4063890140005242 0.43917928676111373 0.4235466536394723
0.406597750000401 0.4401563263312165 0.431362970200293
0.40680139400046755 0.441133365901319 0.431362970200293
0.40701577800064115 0.441133365901319 0.44406448461162684
0.40730804900067596 0.44211040547142155 0.45481191988275516
0.40753172900076606 0.441133365901319 0.467513434294089
0.40772907700011274 0.44406448461162684 0.47923790913532005
0.40792501700070716 0.44406448461162684 0.48412310698583294
0.40812590200039267 0.4460185637518319 0.48705422569614076
0.40832965600020543 0.4460185637518319 0.4880312652662433
0.4085240970007362 0.4450415241817294 0.4802149487054226
0.4087227770005484 0.44406448461162684 0.4763067904250122
0.40893690200027777 0.4460185637518319 0.467513434294089
0.40913906500009034 0.4479726428920372 0.45969711773326827
0.40938915200058545 0.4479726428920372 0.44406448461162684
0.4095974620004199 0.4450415241817294 0.43722520762090866
0.40980103200035956 0.44894968246213973 0.42159257449926724
0.410010064000744 0.4460185637518319 0.4108451392281387
0.41021656000066287 0.4479726428920372 0.39423546653639474
0.410466054000608 0.4538348803126526 0.38739618954567656
0.4106843640001898 0.44699560332193444 0.38446507083536874
0.41088760000002367 0.44699560332193444 0.3903273082559844
0.4110896890006188 0.44992672203224227 0.3981436248168051
0.41129601700049534 0.44894968246213973 0.4108451392281387
0.41149566100011725 0.44699560332193444 0.4235466536394723
0.41170386000067083 0.44699560332193444 0.44406448461162684
0.4119260960005704 0.44699560332193444 0.4606741573033708
0.4121315730008064 0.4460185637518319 0.47435271128480694
