0 0.4509037616023448 0.46165119687347334
0.0016346689999409136 0.4509037616023448 0.46458231558378116
0.0021532499995373655 0.45188080117244755 0.4606741573033708
0.0025737409996509086 0.44699560332193444 0.457743038593063
0.0028569759997481015 0.44699560332193444 0.45969711773326827
0.0030728410001756856 0.4509037616023448 0.4606741573033708
0.003263595999669633 0.4528578407425501 0.46458231558378116
0.003451536999818927 0.45188080117244755 0.4684904738641915
0.0036387919999469887 0.45188080117244755 0.47142159257449934
0.003827157999694464 0.44894968246213973 0.4782608695652173
0.004016431999843917 0.4557889594528579 0.47239863214460187
0.004203669000162336 0.45188080117244755 0.46946751343429405
0.004389904999698047 0.4538348803126526 0.47435271128480694
0.004577660999530053 0.4538348803126526 0.4665363947239862
0.004763953000292531 0.4538348803126526 0.46165119687347334
0.004963077999491361 0.4528578407425501 0.46262823644357587
0.0051498339998943266 0.44992672203224227 0.457743038593063
0.005338384999959089 0.45676599902296044 0.4557889594528579
0.00552434400015045 0.4538348803126526 0.45676599902296044
0.005709543999728339 0.4557889594528579 0.45676599902296044
0.005895188000067719 0.457743038593063 0.45676599902296044
0.006080146999920544 0.457743038593063 0.4528578407425501
0.006265938999604259 0.45481191988275516 0.45676599902296044
0.006450971999583999 0.45481191988275516 0.4557889594528579
0.006635783000092488 0.45969711773326827 0.44992672203224227
0.006821205000051123 0.4557889594528579 0.4509037616023448
0.0070062929999039625 0.4557889594528579 0.4509037616023448
0.007191382000200974 0.4557889594528579 0.44894968246213973
0.007375971000328718 0.4557889594528579 0.44992672203224227
0.007561391999843181 0.45481191988275516 0.44992672203224227
0.007747628999823064 0.45481191988275516 0.4479726428920372
0.007932532999802788 0.4538348803126526 0.4430874450415241
0.008118028999888338 0.45481191988275516 0.441133365901319
0.008307005999995454 0.4538348803126526 0.441133365901319
0.008492205999573343 0.45188080117244755 0.4430874450415241
0.008677497999997286 0.4538348803126526 0.4450415241817294
0.008906029999707243 0.4528578407425501 0.4450415241817294
0.009134525000263238 0.44992672203224227 0.44406448461162684
0.009366168000269681 0.4528578407425501 0.4460185637518319
0.009605051999642455 0.4538348803126526 0.4450415241817294
0.009792085000299267 0.45188080117244755 0.44699560332193444
0.009994617999836919 0.44992672203224227 0.44699560332193444
0.010183262000282411 0.4538348803126526 0.45188080117244755
0.010379776000263519 0.4538348803126526 0.45188080117244755
0.010568216000137909 0.45188080117244755 0.44894968246213973
0.010753935000138881 0.44894968246213973 0.4479726428920372
0.01094020799973805 0.45188080117244755 0.44894968246213973
0.01112679699963337 0.4509037616023448 0.4450415241817294
0.011320884999804548 0.44992672203224227 0.44406448461162684
0.01150649200008047 0.44894968246213973 0.4430874450415241
0.011692340000081458 0.44894968246213973 0.4401563263312165
0.011877576999722805 0.4460185637518319 0.43917928676111373
0.012067146999470424 0.4450415241817294 0.43429408891060084
0.012255810000169731 0.44699560332193444 0.43917928676111373
0.012442434999684338 0.44894968246213973 0.43722520762090866
0.012629893999474007 0.44992672203224227 0.43429408891060084
0.012816612000278838 0.45188080117244755 0.43624816805080613
0.01301694099947781 0.45188080117244755 0.43624816805080613
0.013202788999478798 0.44894968246213973 0.4352711284807034
0.013388100000156555 0.44894968246213973 0.43624816805080613
0.013573485000051733 0.44894968246213973 0.43624816805080613
0.013758998999946925 0.44894968246213973 0.4333170493404983
0.013944403000095917 0.44699560332193444 0.43624816805080613
0.01412899099977949 0.44894968246213973 0.4323400097703958
0.014318634999654023 0.4509037616023448 0.4352711284807034
0.014509650000036345 0.44992672203224227 0.431362970200293
0.014695200999994995 0.44992672203224227 0.43429408891060084
0.014881160000186355 0.45481191988275516 0.43429408891060084
0.015066156000102637 0.44992672203224227 0.43429408891060084
0.015251226000145834 0.45188080117244755 0.43917928676111373
0.015436147999935201 0.44699560332193444 0.43722520762090866
0.01562112600004184 0.4528578407425501 0.4382022471910112
0.01580575099978887 0.4557889594528579 0.44211040547142155
0.015991839999514923 0.44699560332193444 0.4401563263312165
0.016177577000235033 0.44699560332193444 0.4401563263312165
0.0163624990000244 0.44894968246213973 0.44406448461162684
0.016547494999940682 0.44894968246213973 0.4430874450415241
0.016735860999688157 0.4479726428920372 0.44406448461162684
0.016947819000051823 0.44992672203224227 0.4460185637518319
0.01713496299998951 0.44992672203224227 0.44406448461162684
0.01731973699952505 0.44406448461162684 0.4430874450415241
0.017504899999948975 0.4450415241817294 0.43722520762090866
0.017690339999717253 0.4479726428920372 0.4382022471910112
0.017882539999845903 0.44894968246213973 0.4352711284807034
0.01808296099989093 0.4479726428920372 0.4323400097703958
0.018286716000147862 0.4479726428920372 0.4323400097703958
0.01849406400015141 0.4460185637518319 0.4303859306301905
0.01874392900026578 0.4479726428920372 0.431362970200293
0.018979720000061207 0.4479726428920372 0.4303859306301905
0.01919941899996047 0.4460185637518319 0.4352711284807034
0.01939865500025917 0.4450415241817294 0.43722520762090866
0.019603724999797123 0.44992672203224227 0.43917928676111373
0.019801553999968746 0.4479726428920372 0.441133365901319
0.019999975999780872 0.4430874450415241 0.44992672203224227
0.020191581999824848 0.4479726428920372 0.4450415241817294
0.020404373999554082 0.44211040547142155 0.4430874450415241
0.020609461999811174 0.44699560332193444 0.44699560332193444
0.020805440000003728 0.44211040547142155 0.44992672203224227
0.021011656999689876 0.4450415241817294 0.44894968246213973
0.021203078999860736 0.44699560332193444 0.44699560332193444
0.021392759999798727 0.4450415241817294 0.44894968246213973
0.02158475600026577 0.45188080117244755 0.4479726428920372
0.021778788999654353 0.4479726428920372 0.45481191988275516
0.021972988000015903 0.4509037616023448 0.4557889594528579
0.022166280999954324 0.4528578407425501 0.45676599902296044
0.02236844300023222 0.4509037616023448 0.45969711773326827
0.02261703000021953 0.44992672203224227 0.46946751343429405
0.02281908100030705 0.45188080117244755 0.4684904738641915
0.02302509499986627 0.45188080117244755 0.4763067904250122
0.023225369000101637 0.4509037616023448 0.4802149487054226
0.02342130899978656 0.44699560332193444 0.47728382999511476
0.023624730999472376 0.45188080117244755 0.48216902784562765
0.02381641200008744 0.4528578407425501 0.4802149487054226
0.024006167000152345 0.44894968246213973 0.4753297508549097
0.024205032999816467 0.44894968246213973 0.47435271128480694
0.024400473000241618 0.45188080117244755 0.46946751343429405
0.024593320999883872 0.44992672203224227 0.46165119687347334
0.024805130999993708 0.44992672203224227 0.46262823644357587
0.025145178999991913 0.4528578407425501 0.45969711773326827
0.025350730000354815 0.4528578407425501 0.46165119687347334
0.025555041000188794 0.4528578407425501 0.4655593551538837
0.025744221999957517 0.4557889594528579 0.46458231558378116
0.025939105999896128 0.45481191988275516 0.4684904738641915
0.026136434999898484 0.45481191988275516 0.4733756717147044
0.02632572800030175 0.4509037616023448 0.47923790913532005
0.02651814899945748 0.4528578407425501 0.47728382999511476
0.02671275600005174 0.45481191988275516 0.4811919882755251
0.026903437000328267 0.4528578407425501 0.47728382999511476
0.027105840000331227 0.4557889594528579 0.4733756717147044
0.027303150999614445 0.4528578407425501 0.4684904738641915
0.02750397999989218 0.4509037616023448 0.4733756717147044
0.027706179000233533 0.45481191988275516 0.4665363947239862
0.027923507999730646 0.45188080117244755 0.4704445530043966
0.02816381799948431 0.45188080117244755 0.46458231558378116
0.028361720999782847 0.4528578407425501 0.46262823644357587
0.02856621599948994 0.45188080117244755 0.4587200781631655
0.028781193000213534 0.4509037616023448 0.4557889594528579
0.029086241999721096 0.4509037616023448 0.45188080117244755
0.029312921999917307 0.44992672203224227 0.4450415241817294
0.02952962099971046 0.44894968246213973 0.4479726428920372
0.029967204999593378 0.44894968246213973 0.44406448461162684
0.03037980699991749 0.4479726428920372 0.45188080117244755
0.03061276500011445 0.4509037616023448 0.45188080117244755
0.03085351899972011 0.4479726428920372 0.4528578407425501
0.031103790999623016 0.44406448461162684 0.4557889594528579
0.031333453000115696 0.45188080117244755 0.4606741573033708
0.03153341100005491 0.4479726428920372 0.46165119687347334
0.03185110799950053 0.44699560332193444 0.45969711773326827
0.032087196000247786 0.4509037616023448 0.457743038593063
0.03229087699946831 0.4528578407425501 0.4557889594528579
0.032483816999956616 0.44992672203224227 0.44894968246213973
0.03267666499959887 0.4479726428920372 0.43917928676111373
0.032875568000235944 0.44894968246213973 0.4333170493404983
0.03307387800032302 0.44699560332193444 0.42745481191988266
0.03326766999998654 0.4450415241817294 0.4206155349291647
0.03346349899948109 0.44992672203224227 0.41182217879824123
0.0336840130003111 0.44406448461162684 0.40009770395701016
0.03388847199948941 0.44406448461162684 0.38935026868588185
0.03408831900014775 0.44699560332193444 0.38153395212506114
0.03428357400025561 0.45188080117244755 0.3688324377137273
0.034482699999898614 0.4450415241817294 0.37469467513434296
0.034686768999563355 0.44406448461162684 0.37469467513434296
0.034904578999885416 0.4460185637518319 0.37469467513434296
0.0351226120001229 0.44699560332193444 0.37957987298485585
0.03532329199970263 0.4460185637518319 0.38739618954567656
0.03553310299957957 0.44992672203224227 0.3903273082559844
0.03574346899949887 0.44894968246213973 0.40205178309721545
0.035937945999648946 0.45188080117244755 0.41475329750854906
0.036131312000179605 0.4450415241817294 0.4235466536394723
0.036318474999461614 0.4460185637518319 0.441133365901319
0.03653397000016412 0.44894968246213973 0.4557889594528579
0.03672063300018635 0.4528578407425501 0.4655593551538837
0.03691336900010356 0.44894968246213973 0.4733756717147044
0.0371073839996825 0.44699560332193444 0.48412310698583294
0.03729787900010706 0.45188080117244755 0.48412310698583294
0.037494856999728654 0.44992672203224227 0.48900830483634583
0.03768487100023776 0.44992672203224227 0.4909623839765511
0.037874570999520074 0.45188080117244755 0.486077186126038
0.03806447399983881 0.4509037616023448 0.48216902784562765
0.038254265999967174 0.4538348803126526 0.4811919882755251
0.03844390999984171 0.44992672203224227 0.4763067904250122
0.038672904999657476 0.44894968246213973 0.4802149487054226
0.03886484600025142 0.44894968246213973 0.4782608695652173
0.03905485999985103 0.44992672203224227 0.48412310698583294
0.03924522600027558 0.44992672203224227 0.4851001465559355
0.039435054999557906 0.44992672203224227 0.4851001465559355
0.039624774000003526 0.44699560332193444 0.4831460674157304
0.039813862000301015 0.44992672203224227 0.47728382999511476
0.04000296899994282 0.44699560332193444 0.4811919882755251
0.040192595000007714 0.44894968246213973 0.47728382999511476
0.040382109000347555 0.44894968246213973 0.4782608695652173
0.04057129000011628 0.44992672203224227 0.47435271128480694
0.040760859999863897 0.4509037616023448 0.4763067904250122
0.04095720799978153 0.4538348803126526 0.486077186126038
0.041146221999952104 0.44894968246213973 0.4782608695652173
0.041335533000165015 0.4538348803126526 0.4753297508549097
0.04152417699970101 0.4538348803126526 0.4753297508549097
0.04171343199959665 0.4538348803126526 0.4684904738641915
0.04192944599981274 0.4509037616023448 0.47142159257449934
0.04211795999981405 0.45188080117244755 0.4684904738641915
0.04230399300013232 0.44992672203224227 0.4665363947239862
0.042490693000218016 0.4528578407425501 0.46946751343429405
0.04268394799964881 0.4538348803126526 0.47142159257449934
0.042883074000201304 0.44894968246213973 0.467513434294089
0.043076050999843574 0.45481191988275516 0.4587200781631655
0.04328858299959393 0.45188080117244755 0.457743038593063
0.043490652999935264 0.45481191988275516 0.45188080117244755
0.04369712999960029 0.45481191988275516 0.44406448461162684
0.043892681000215816 0.4557889594528579 0.4382022471910112
0.04408073299964599 0.45188080117244755 0.43624816805080613
0.04426804400009132 0.4509037616023448 0.4303859306301905
0.04445429899988085 0.45481191988275516 0.42940889106008795
0.04464260999975522 0.4509037616023448 0.42745481191988266
0.044828271999904246 0.45188080117244755 0.42745481191988266
0.04505734099984693 0.44894968246213973 0.4255007327796776
0.04524761500033492 0.44894968246213973 0.41963849535906195
0.04547997999998188 0.45188080117244755 0.4186614557889594
0.045822731999578536 0.4528578407425501 0.412799218368344
0.04606072699971264 0.45481191988275516 0.40889106008793363
0.046277204000034544 0.4538348803126526 0.4010747435271129
0.04650025499995536 0.45969711773326827 0.40205178309721545
0.04682965499978309 0.46458231558378116 0.403028822667318
0.04705251999985194 0.45969711773326827 0.4108451392281387
0.04726820099949691 0.4606741573033708 0.42745481191988266
0.047518454999590176 0.4636052760136786 0.441133365901319
0.04777180099972611 0.457743038593063 0.4509037616023448
0.04808373899959406 0.4528578407425501 0.4665363947239862
0.048323011999855225 0.4509037616023448 0.467513434294089
0.04856326600020111 0.4509037616023448 0.4753297508549097
0.048825648999809346 0.45676599902296044 0.4802149487054226
0.049177400000189664 0.45676599902296044 0.47728382999511476
0.04940926600011153 0.4587200781631655 0.4733756717147044
0.049625724000179616 0.4557889594528579 0.467513434294089
0.049829720000161615 0.4557889594528579 0.46458231558378116
0.050100677000045835 0.44992672203224227 0.4587200781631655
0.050296190999688406 0.4509037616023448 0.4606741573033708
0.05050335299983999 0.44699560332193444 0.46165119687347334
0.0507481069998903 0.4460185637518319 0.46458231558378116
0.050945547000083025 0.4528578407425501 0.45969711773326827
0.05114102500010631 0.4509037616023448 0.4538348803126526
0.05133670600025653 0.44894968246213973 0.4430874450415241
0.05153527499987831 0.4450415241817294 0.4333170493404983
0.0517336040002192 0.4430874450415241 0.4284318514899854
0.05193456300003163 0.4430874450415241 0.4235466536394723
0.05212735500026611 0.4430874450415241 0.4235466536394723
0.05231983300018328 0.4401563263312165 0.4235466536394723
0.05251103199952922 0.4430874450415241 0.42452369320957506
0.052707934999489225 0.44406448461162684 0.42745481191988266
0.05291139400014799 0.4430874450415241 0.4303859306301905
0.05312866700023733 0.4401563263312165 0.42745481191988266
0.05332818100032455 0.4450415241817294 0.4235466536394723
0.05355224999948405 0.441133365901319 0.41670737664875435
0.05377322699951037 0.4450415241817294 0.40693698094772834
0.05397205600002053 0.441133365901319 0.403028822667318
0.05416631099978986 0.44699560332193444 0.39912066438690763
0.05436039999949571 0.4460185637518319 0.39912066438690763
0.05454991399983555 0.4479726428920372 0.4040058622374205
0.054736799000238534 0.44992672203224227 0.4108451392281387
0.05492538699945726 0.4528578407425501 0.4235466536394723
0.05511156899956404 0.45188080117244755 0.4401563263312165
0.05529750899950159 0.4509037616023448 0.4606741573033708
0.05551072700018267 0.4528578407425501 0.47435271128480694
0.0556976299994858 0.4528578407425501 0.48705422569614076
0.05588455199995224 0.44992672203224227 0.49877870053737183
0.05607047400008014 0.45188080117244755 0.5095261358085001
0.05625541399967915 0.45481191988275516 0.5202735710796287
0.05644187300003978 0.4528578407425501 0.5319980459208598
0.05662770199978695 0.4557889594528579 0.533952125061065
0.056813995000084105 0.45481191988275516 0.5378602833414754
0.05702504599958047 0.4538348803126526 0.5329750854909623
0.05721119000008912 0.4538348803126526 0.5300439667806547
0.05739670399998431 0.45676599902296044 0.522227650219834
0.05758205199981603 0.4557889594528579 0.5095261358085001
0.05776767800034577 0.45188080117244755 0.49877870053737183
0.05795341399971221 0.45188080117244755 0.48900830483634583
0.05813879899960739 0.45481191988275516 0.47435271128480694
0.0583245360003275 0.45969711773326827 0.4665363947239862
0.058518013000139035 0.44992672203224227 0.4587200781631655
0.058704860999569064 0.4528578407425501 0.44406448461162684
0.05889019099959114 0.4509037616023448 0.4430874450415241
0.059075594000205456 0.44992672203224227 0.43722520762090866
0.0592894969995541 0.44699560332193444 0.4323400097703958
0.05952126899956056 0.44992672203224227 0.42940889106008795
0.05971395100004884 0.4460185637518319 0.42940889106008795
0.05990203900000779 0.4460185637518319 0.42940889106008795
0.0600888680000935 0.4430874450415241 0.4303859306301905
0.06027632699988317 0.4450415241817294 0.4284318514899854
0.06046215700007451 0.44894968246213973 0.4284318514899854
0.06064792999950441 0.44699560332193444 0.42940889106008795
0.06091988699972717 0.45188080117244755 0.4303859306301905
0.06111784600034298 0.4450415241817294 0.4352711284807034
0.061310656999921775 0.4479726428920372 0.441133365901319
0.06150320799952169 0.4460185637518319 0.4450415241817294
0.06169937100003153 0.44894968246213973 0.4528578407425501
0.06189914399965346 0.44992672203224227 0.4665363947239862
0.06210408399965672 0.45188080117244755 0.47923790913532005
0.06230404300004011 0.44992672203224227 0.4978016609672691
0.06250696400002198 0.4509037616023448 0.5105031753786029
0.06275551399994583 0.4528578407425501 0.5173424523693209
0.06295793600020261 0.45481191988275516 0.5251587689301416
0.0631511909996334 0.45481191988275516 0.5290669272105519
0.06340199999976903 0.457743038593063 0.5271128480703469
0.06359645900010946 0.4528578407425501 0.5192965315095261
0.06385241699990729 0.44992672203224227 0.5114802149487054
0.06407320800008165 0.4538348803126526 0.49975574010747437
0.0642782779996196 0.4538348803126526 0.4811919882755251
0.06448521800029994 0.4528578407425501 0.4665363947239862
0.06469778700011375 0.45188080117244755 0.45188080117244755
0.06491324600028747 0.4557889594528579 0.43917928676111373
0.06511766699986765 0.45676599902296044 0.4186614557889594
0.06591450199994142 0.4587200781631655 0.42159257449926724
0.0661289419995228 0.4606741573033708 0.4235466536394723
0.06632836300013878 0.4606741573033708 0.42452369320957506
0.06652548799957003 0.4587200781631655 0.4255007327796776
0.06671811399974104 0.46165119687347334 0.4284318514899854
0.06691405400033545 0.4587200781631655 0.42745481191988266
0.06710910600031639 0.45481191988275516 0.4323400097703958
0.06731358300021384 0.457743038593063 0.43429408891060084
0.06751078199977201 0.45969711773326827 0.43917928676111373
0.06771444399964821 0.4557889594528579 0.44211040547142155
0.06791503299973556 0.45481191988275516 0.44699560332193444
0.06810343599954649 0.44992672203224227 0.44699560332193444
0.0682893579996744 0.45188080117244755 0.4460185637518319
0.06847564999952738 0.4528578407425501 0.4538348803126526
0.06866512699980376 0.4538348803126526 0.4587200781631655
0.0688804009996602 0.44894968246213973 0.45676599902296044
0.06907426699945063 0.44992672203224227 0.4606741573033708
0.06931661299950065 0.44699560332193444 0.46262823644357587
0.06951566499992623 0.44992672203224227 0.4684904738641915
0.06970430899946223 0.44699560332193444 0.4733756717147044
0.06988997099961125 0.44894968246213973 0.47923790913532005
0.07007639299990842 0.44992672203224227 0.4802149487054226
0.07026220399984595 0.44894968246213973 0.4782608695652173
0.07044768099967769 0.4460185637518319 0.4733756717147044
0.07063377000031323 0.44894968246213973 0.4733756717147044
0.07082056200033549 0.4479726428920372 0.46946751343429405
0.0710079840000617 0.4479726428920372 0.467513434294089
0.0711934620003376 0.44406448461162684 0.46262823644357587
0.07138279099945066 0.4460185637518319 0.4636052760136786
0.07156824999947276 0.4479726428920372 0.4606741573033708
0.07175585699951625 0.4460185637518319 0.45481191988275516
0.07194311199964432 0.4460185637518319 0.4509037616023448
0.07212945999981457 0.44699560332193444 0.4479726428920372
0.07231482599945593 0.44699560332193444 0.4401563263312165
0.0725018960001762 0.44699560332193444 0.43722520762090866
0.0727415210003528 0.4538348803126526 0.42452369320957506
0.07296349700027349 0.4538348803126526 0.4137762579384465
0.07315101199947094 0.45188080117244755 0.40986809965803617
0.07333872999970481 0.4528578407425501 0.40205178309721545
0.07352550399991742 0.45188080117244755 0.39716658524670256
0.0737117959997704 0.45676599902296044 0.3913043478260869
0.07389784800034249 0.45188080117244755 0.3805569125549584
0.07408499200028018 0.45676599902296044 0.37176355642403514
0.0742781359995206 0.45969711773326827 0.36980947728383007
0.07446653900024103 0.45969711773326827 0.3678553981436248
0.07465436799975578 0.45969711773326827 0.37274059599413767
0.07483956800024316 0.4606741573033708 0.38251099169516367
0.07502485999975761 0.457743038593063 0.3883732291157791
0.07521126400024514 0.4557889594528579 0.3952125061064973
0.07539637100035179 0.45969711773326827 0.403028822667318
0.07558179300031043 0.45676599902296044 0.4137762579384465
0.07578060299965728 0.45969711773326827 0.4206155349291647
0.07598824700016849 0.4538348803126526 0.42159257449926724
0.07617648399991594 0.4557889594528579 0.4206155349291647
0.07636305399955745 0.4557889594528579 0.4206155349291647
0.07654914199974883 0.45481191988275516 0.4176844162188569
0.07673673099998268 0.4528578407425501 0.4206155349291647
0.07694394899954204 0.4509037616023448 0.42256961406936977
0.07713044399952196 0.44992672203224227 0.41963849535906195
0.07731992200024251 0.4538348803126526 0.42256961406936977
0.0775053810002646 0.4528578407425501 0.42452369320957506
0.0776914879998003 0.4509037616023448 0.42452369320957506
0.07787739099967439 0.45188080117244755 0.4255007327796776
0.07808151700010058 0.4509037616023448 0.42940889106008795
0.0782951969995338 0.4528578407425501 0.43429408891060084
0.07849341499968432 0.4509037616023448 0.4352711284807034
0.07869029999983468 0.44992672203224227 0.43722520762090866
0.07888488800017512 0.44992672203224227 0.43722520762090866
0.07910697599982086 0.4538348803126526 0.43917928676111373
0.07932480399995256 0.4460185637518319 0.43624816805080613
0.0795697809999183 0.44699560332193444 0.44211040547142155
0.0798284419997799 0.45188080117244755 0.4479726428920372
0.08006560299963894 0.44894968246213973 0.4538348803126526
0.08027458000015031 0.44992672203224227 0.457743038593063
0.0804669829994964 0.4479726428920372 0.47239863214460187
0.08066853499985882 0.4509037616023448 0.47923790913532005
0.080903510999633 0.44992672203224227 0.49682462139716654
0.08112300599987066 0.44992672203224227 0.5065950170981925
0.08135735299947555 0.4509037616023448 0.5212506106497312
0.08155601499947807 0.45481191988275516 0.524181729360039
0.08174888200028363 0.4538348803126526 0.5319980459208598
0.08194252599969332 0.4538348803126526 0.5300439667806547
0.08213804000024538 0.45481191988275516 0.5280898876404494
0.08233427599952847 0.4557889594528579 0.5251587689301416
0.08253310500003863 0.45188080117244755 0.5232046897899365
0.08272250899972278 0.4538348803126526 0.5163654127992183
0.0829178559997672 0.45188080117244755 0.5114802149487054
0.08312024099996052 0.45188080117244755 0.5026868588177822
0.08332882899958349 0.4538348803126526 0.5026868588177822
0.0835181949996695 0.4538348803126526 0.4978016609672691
0.08370343200022035 0.45481191988275516 0.4929164631167562
0.08389202099988324 0.45676599902296044 0.4851001465559355
0.08411842300029093 0.4557889594528579 0.4811919882755251
0.08430469700033427 0.45676599902296044 0.4753297508549097
0.0844907479995527 0.4528578407425501 0.4763067904250122
0.0846762809997017 0.4557889594528579 0.46458231558378116
0.08489518399983353 0.4538348803126526 0.4655593551538837
0.08508423599960224 0.4538348803126526 0.4636052760136786
0.08527352799956134 0.45481191988275516 0.46165119687347334
0.08545926399983728 0.45481191988275516 0.4606741573033708
0.08564420499988046 0.45188080117244755 0.46262823644357587
0.0858294419995218 0.45188080117244755 0.45969711773326827
0.08601506699960737 0.44992672203224227 0.45969711773326827
0.08620039699962945 0.44699560332193444 0.4587200781631655
0.0863870040002439 0.44992672203224227 0.4528578407425501
0.08657255500020256 0.44992672203224227 0.45481191988275516
0.0867577919998439 0.4460185637518319 0.44894968246213973
0.0869437139999718 0.4479726428920372 0.4450415241817294
0.08712974700029008 0.4479726428920372 0.44699560332193444
0.0873159470002065 0.44992672203224227 0.44894968246213973
0.08750138699997478 0.45188080117244755 0.44699560332193444
0.08768656800020835 0.44992672203224227 0.44699560332193444
0.08787247199961712 0.44992672203224227 0.4450415241817294
0.08805757899972377 0.4538348803126526 0.4479726428920372
0.08824437099974602 0.4528578407425501 0.44894968246213973
0.08848353200028214 0.44992672203224227 0.44699560332193444
0.08867130599992379 0.44894968246213973 0.44406448461162684
0.08886813499975688 0.4538348803126526 0.44211040547142155
0.08905476099971565 0.44992672203224227 0.43624816805080613
0.08924071999990701 0.44894968246213973 0.44211040547142155
0.08942690099956963 0.44894968246213973 0.4382022471910112
0.08962648899978376 0.44992672203224227 0.4382022471910112
0.08981811499961623 0.4479726428920372 0.4382022471910112
0.09002055499968264 0.4528578407425501 0.43624816805080613
0.09020910599974741 0.4538348803126526 0.4352711284807034
0.09039571299945237 0.44894968246213973 0.43429408891060084
0.0905821169999399 0.44992672203224227 0.43917928676111373
0.0907676500000889 0.4479726428920372 0.43722520762090866
0.09095294199960335 0.45481191988275516 0.4401563263312165
0.09113928999977361 0.4509037616023448 0.43429408891060084
0.09132432299975335 0.44992672203224227 0.4352711284807034
0.09151005999956396 0.44992672203224227 0.4333170493404983
0.09169651899992459 0.45188080117244755 0.4333170493404983
0.09188162600003125 0.4509037616023448 0.4323400097703958
0.09206921399982093 0.4460185637518319 0.4333170493404983
0.09225976600009744 0.44699560332193444 0.441133365901319
0.09244644699992932 0.44992672203224227 0.43917928676111373
0.09263594299955002 0.4479726428920372 0.43624816805080613
0.09287980799945217 0.44699560332193444 0.43917928676111373
0.09307408099994063 0.45188080117244755 0.43722520762090866
0.0932837059999656 0.44992672203224227 0.4352711284807034
0.09347997999975632 0.4479726428920372 0.43624816805080613
0.09367303099952551 0.4479726428920372 0.43722520762090866
0.09386960099982389 0.4479726428920372 0.44406448461162684
0.09406137499991019 0.44699560332193444 0.4479726428920372
0.09429485100008606 0.441133365901319 0.4557889594528579
0.09455834599975788 0.44699560332193444 0.46458231558378116
0.0947977109999556 0.4430874450415241 0.46458231558378116
0.09504033499979414 0.4430874450415241 0.4704445530043966
0.09527386700028728 0.4450415241817294 0.4733756717147044
0.09549291799976345 0.4430874450415241 0.4753297508549097
0.09571100599987403 0.44699560332193444 0.47142159257449934
0.0959284270002172 0.44894968246213973 0.4684904738641915
0.09615105200009566 0.44699560332193444 0.46262823644357587
0.09635302900005627 0.44992672203224227 0.4636052760136786
0.09654756199961412 0.4460185637518319 0.45969711773326827
0.09678322299987485 0.4460185637518319 0.4528578407425501
0.09702868099975603 0.4450415241817294 0.44406448461162684
0.0972376580002674 0.441133365901319 0.43429408891060084
0.0974435979996997 0.4430874450415241 0.42159257449926724
0.09776994299954822 0.44406448461162684 0.41182217879824123
0.09797686399997474 0.4430874450415241 0.40889106008793363
0.09817598999961774 0.4401563263312165 0.3952125061064973
0.09843418800028303 0.44406448461162684 0.38935026868588185
0.09862836899992544 0.4450415241817294 0.38641914997557403
0.09882156799994846 0.44699560332193444 0.38446507083536874
0.09901450899997144 0.4479726428920372 0.38251099169516367
0.09920589299963467 0.44992672203224227 0.38739618954567656
0.09940624099999695 0.45188080117244755 0.3913043478260869
0.0996008290003374 0.45188080117244755 0.39912066438690763
0.0997953440000856 0.4538348803126526 0.4040058622374205
0.09998878399983369 0.4538348803126526 0.40693698094772834
0.10018389099968772 0.45188080117244755 0.40986809965803617
0.10037646099954145 0.4528578407425501 0.4137762579384465
0.1005694189998394 0.45188080117244755 0.4264777723497801
0.10076191499956622 0.4509037616023448 0.441133365901319
0.10099737299970002 0.4557889594528579 0.45188080117244755
0.10118649899959564 0.45676599902296044 0.4636052760136786
0.10137423499963916 0.45481191988275516 0.47142159257449934
0.10159406399998261 0.45676599902296044 0.4782608695652173
0.10177939299956051 0.4557889594528579 0.4851001465559355
0.1019649820000268 0.4538348803126526 0.4929164631167562
0.1021545329995206 0.45481191988275516 0.49877870053737183
0.10234047399990231 0.4587200781631655 0.5046409379579873
0.10252595099973405 0.45676599902296044 0.5085490962383976
0.10274733499954891 0.45676599902296044 0.5085490962383976
0.10293449799974042 0.4587200781631655 0.5056179775280898
0.10312067900031252 0.45676599902296044 0.5036638983878847
0.10330660099953093 0.4528578407425501 0.4948705422569615
0.10349176399995486 0.4538348803126526 0.48998534440644836
0.10367688899987115 0.45481191988275516 0.48216902784562765
0.10387681100019108 0.45188080117244755 0.4802149487054226
0.10406815900023503 0.45676599902296044 0.4763067904250122
0.10426989499956107 0.45188080117244755 0.4733756717147044
0.10445918699952017 0.45188080117244755 0.4753297508549097
0.10464521999983845 0.45676599902296044 0.47435271128480694
0.10486227099954704 0.4557889594528579 0.4851001465559355
0.10505674799969711 0.45188080117244755 0.47728382999511476
0.10524424399955024 0.45188080117244755 0.47923790913532005
0.1054300180003338 0.45188080117244755 0.47728382999511476
0.10561603299993294 0.45188080117244755 0.47728382999511476
0.10580989899972337 0.45188080117244755 0.4782608695652173
0.10599587599972438 0.4479726428920372 0.4763067904250122
0.10618166800031759 0.44992672203224227 0.4704445530043966
0.1063696829996843 0.44992672203224227 0.46946751343429405
0.10657530800017412 0.4509037616023448 0.47142159257449934
0.10676076700019621 0.4509037616023448 0.467513434294089
0.10694715199952043 0.44894968246213973 0.46946751343429405
0.107132332999754 0.44894968246213973 0.4665363947239862
0.10731797700009338 0.44992672203224227 0.4655593551538837
0.10750408399962907 0.44992672203224227 0.4606741573033708
0.10769480199996906 0.4460185637518319 0.4587200781631655
0.10788115000013931 0.4450415241817294 0.45676599902296044
0.10806610899999214 0.4450415241817294 0.45969711773326827
0.10828084500008117 0.4479726428920372 0.4606741573033708
0.10847535999982938 0.44699560332193444 0.46946751343429405
0.10866087399972457 0.4479726428920372 0.47435271128480694
0.10885946199960017 0.4450415241817294 0.4753297508549097
0.10904668100010895 0.44211040547142155 0.47435271128480694
0.10924915800023882 0.4450415241817294 0.4753297508549097
0.10943880200011336 0.4450415241817294 0.47728382999511476
0.10962629799996648 0.441133365901319 0.47728382999511476
0.1098146269996505 0.44406448461162684 0.4802149487054226
0.11000514100032888 0.4430874450415241 0.4811919882755251
0.11019197099994926 0.4430874450415241 0.48216902784562765
0.11037763300009829 0.44211040547142155 0.4684904738641915
0.11056316600024729 0.4460185637518319 0.4636052760136786
0.1107490329995926 0.44894968246213973 0.4557889594528579
0.11093467699993198 0.4479726428920372 0.43917928676111373
0.11112050599967915 0.4450415241817294 0.4255007327796776
0.11131220599963854 0.44894968246213973 0.403028822667318
0.11152760799996031 0.4479726428920372 0.3659013190034197
0.11189202700006717 0.44699560332193444 0.3434294088910601
0.11211739200007287 0.44699560332193444 0.3287738153395212
0.11233610999988741 0.4450415241817294 0.31900341963849543
0.11256065999987186 0.44699560332193444 0.3131411822178798
0.11280376600007003 0.4460185637518319 0.3150952613580851
0.11303727999984403 0.44894968246213973 0.31998045920859797
0.1132448119997207 0.44992672203224227 0.3238886174890083
0.11344845599978726 0.4509037616023448 0.3385442110405472
0.11365222899985383 0.45188080117244755 0.3453834880312652
0.11385626199989929 0.44992672203224227 0.35906204201270153
0.11410034900018218 0.4479726428920372 0.37469467513434296
0.1143906209999841 0.45188080117244755 0.3961895456765998
0.11461615299958794 0.44699560332193444 0.41182217879824123
0.1148474809997424 0.45188080117244755 0.4284318514899854
0.11506725399976858 0.4450415241817294 0.43917928676111373
0.11528704600004858 0.4460185637518319 0.4538348803126526
0.11556418799955281 0.44406448461162684 0.4704445530043966
0.11578112799998053 0.44992672203224227 0.4802149487054226
0.11598625300030108 0.44992672203224227 0.4851001465559355
0.11620010000024195 0.4509037616023448 0.49193942354665365
0.11642222499995114 0.4538348803126526 0.49877870053737183
0.11662898000031419 0.4538348803126526 0.48900830483634583
0.11688969599981647 0.4538348803126526 0.48705422569614076
0.1170998210000107 0.4538348803126526 0.4704445530043966
0.11739953699998296 0.4538348803126526 0.4655593551538837
0.11760053299985884 0.4557889594528579 0.45676599902296044
0.11779013999966992 0.45481191988275516 0.45188080117244755
0.11797589500019967 0.45188080117244755 0.44894968246213973
0.11816192799960845 0.4528578407425501 0.44211040547142155
0.118347423999694 0.45676599902296044 0.44406448461162684
0.11853390099986427 0.45188080117244755 0.4450415241817294
0.11871928599975945 0.44992672203224227 0.4430874450415241
0.11892639300003793 0.44992672203224227 0.44894968246213973
0.11911164799948892 0.45188080117244755 0.44992672203224227
0.11929969999982859 0.4509037616023448 0.44894968246213973
0.1194845849995545 0.4528578407425501 0.44992672203224227
0.11966948799999955 0.45188080117244755 0.44992672203224227
0.1198554470001909 0.4538348803126526 0.4528578407425501
0.12004136900031881 0.4538348803126526 0.45481191988275516
0.12022630899991782 0.4538348803126526 0.45969711773326827
0.12041115699958027 0.44894968246213973 0.4655593551538837
0.12059624599987728 0.45188080117244755 0.4802149487054226
0.12078213099994173 0.45188080117244755 0.4909623839765511
0.12099073700028384 0.4479726428920372 0.49975574010747437
0.12117684399981954 0.44992672203224227 0.5036638983878847
0.12136263699994743 0.44992672203224227 0.5075720566682951
0.12154822499996953 0.44894968246213973 0.5065950170981925
0.12173397999958979 0.4509037616023448 0.5046409379579873
0.12191947599967534 0.45188080117244755 0.5085490962383976
0.12210476899963396 0.4460185637518319 0.5026868588177822
0.12229104200014262 0.4509037616023448 0.5036638983878847
0.12248170499970001 0.44699560332193444 0.5056179775280898
0.12266762699982792 0.4460185637518319 0.5144113336590133
0.12285308599985001 0.4460185637518319 0.5261358085002443
0.12303935999989335 0.44699560332193444 0.533952125061065
0.12322552200021164 0.45188080117244755 0.5398143624816805
0.12341437000031874 0.4509037616023448 0.5359062042012701
0.1236029960000451 0.4509037616023448 0.5319980459208598
0.12378867699953844 0.4528578407425501 0.5192965315095261
0.12401439399945957 0.4509037616023448 0.5026868588177822
0.1242015010002433 0.44699560332193444 0.4851001465559355
0.12438708999980008 0.4479726428920372 0.47239863214460187
0.12457254899982217 0.4460185637518319 0.45481191988275516
0.124757951999527 0.45188080117244755 0.43917928676111373
0.12504453899964574 0.4479726428920372 0.44211040547142155
0.1252311460002602 0.45188080117244755 0.42745481191988266
0.12541630800023995 0.4528578407425501 0.43429408891060084
0.1256018040003255 0.44894968246213973 0.4206155349291647
0.12578628200026287 0.45188080117244755 0.4235466536394723
0.1259889259999909 0.44992672203224227 0.4157303370786516
0.12620951299959415 0.4538348803126526 0.41475329750854906
0.12640011999974377 0.4460185637518319 0.4157303370786516
0.12659011599953374 0.4557889594528579 0.41670737664875435
0.12678188999962003 0.4509037616023448 0.4186614557889594
0.1270305139996708 0.45188080117244755 0.41963849535906195
0.1272246400003496 0.4538348803126526 0.4186614557889594
0.12744126500001585 0.45188080117244755 0.431362970200293
0.12765200099966023 0.4528578407425501 0.43429408891060084
0.12788147700030095 0.45188080117244755 0.44699560332193444
0.12809549099983997 0.45481191988275516 0.44406448461162684
0.12830876399948465 0.45188080117244755 0.44992672203224227
0.1285344449997865 0.4509037616023448 0.45188080117244755
0.12876953199975105 0.45188080117244755 0.46946751343429405
0.13085344999944937 0.44992672203224227 0.4636052760136786
0.13116275799984578 0.4538348803126526 0.4684904738641915
0.1314627700003257 0.4538348803126526 0.47923790913532005
0.13174741199964046 0.44894968246213973 0.495847581827064
0.13205286900029023 0.44211040547142155 0.5153883732291158
0.13232069599962415 0.44211040547142155 0.5310210063507572
0.1325481169997147 0.4450415241817294 0.5319980459208598
0.1327722599999106 0.44406448461162684 0.5349291646311676
0.13299238499985222 0.44211040547142155 0.5319980459208598
0.1331843440002558 0.4460185637518319 0.5280898876404494
0.13337417299953813 0.44211040547142155 0.5163654127992183
0.13356374300019525 0.4382022471910112 0.5075720566682951
0.13375294300021778 0.4382022471910112 0.4929164631167562
0.1339416060000076 0.4382022471910112 0.4802149487054226
0.13413067599958595 0.4401563263312165 0.467513434294089
0.13431874599973526 0.4382022471910112 0.4587200781631655
0.13450670400015952 0.43624816805080613 0.45188080117244755
0.1346973479994631 0.43722520762090866 0.4401563263312165
0.13491227000031358 0.43917928676111373 0.4333170493404983
0.13510115499957465 0.4450415241817294 0.4235466536394723
0.1352899100002105 0.44211040547142155 0.40986809965803617
0.13547801699951378 0.441133365901319 0.39423546653639474
0.13566625299972657 0.441133365901319 0.3707865168539326
0.13585489700017206 0.4450415241817294 0.34440644846116264
0.13604387499981385 0.4460185637518319 0.31704934049829014
0.13623161200030154 0.44699560332193444 0.2955544699560333
0.13641916300002777 0.4479726428920372 0.2740595994137762
0.1366076399999656 0.45481191988275516 0.25940400586223733
0.13679508099994564 0.45481191988275516 0.255495847581827
0.1369848180002009 0.457743038593063 0.25940400586223733
0.1371796280000126 0.4557889594528579 0.2730825598436737
0.13737917900016328 0.4528578407425501 0.2877381533952126
0.13757754499965813 0.457743038593063 0.3287738153395212
0.1379045749999932 0.4557889594528579 0.3610161211529066
0.13811127499957365 0.457743038593063 0.3903273082559844
0.1383159919996615 0.4538348803126526 0.42452369320957506
0.13851335900017148 0.45188080117244755 0.44406448461162684
0.138708188000237 0.45481191988275516 0.46262823644357587
0.13890125800026 0.457743038593063 0.4655593551538837
0.13928128599945921 0.45188080117244755 0.4587200781631655
0.13956872499966266 0.4528578407425501 0.4479726428920372
0.13977048000015202 0.4538348803126526 0.44406448461162684
0.13997082700007013 0.45969711773326827 0.43429408891060084
0.14016891499977646 0.45481191988275516 0.42745481191988266
0.14037542899950495 0.4557889594528579 0.4235466536394723
0.14062025699968217 0.4557889594528579 0.4206155349291647
0.14090965899958974 0.45481191988275516 0.42452369320957506
0.1411135429998467 0.4509037616023448 0.42940889106008795
0.14131750199976523 0.45676599902296044 0.43429408891060084
0.14153371900010825 0.4528578407425501 0.44406448461162684
0.14173110399951838 0.4528578407425501 0.45481191988275516
0.14192648799962626 0.45188080117244755 0.46165119687347334
0.1421158920002199 0.4557889594528579 0.4733756717147044
0.14230698000028497 0.457743038593063 0.4929164631167562
0.14249604999986332 0.457743038593063 0.5095261358085001
0.14270306399976107 0.4528578407425501 0.522227650219834
0.1428922639997836 0.4557889594528579 0.5359062042012701
0.1430821300000389 0.45481191988275516 0.5476306790425012
0.14327031099946907 0.4557889594528579 0.5583781143136297
0.14345880699966074 0.4538348803126526 0.5642403517342451
0.14365620999979 0.45481191988275516 0.5691255495847583
0.14384487299957982 0.4538348803126526 0.5681485100146555
0.14403347999996186 0.45481191988275516 0.5613092330239375
0.14422388299954036 0.45481191988275516 0.5446995603321934
0.14441274999990128 0.4538348803126526 0.5271128480703469
0.14460122699983913 0.4528578407425501 0.5095261358085001
0.14479372299956594 0.4538348803126526 0.48900830483634583
0.14500999600022624 0.4509037616023448 0.4763067904250122
0.14521645399963745 0.4538348803126526 0.4636052760136786
0.1454268569996202 0.4509037616023448 0.45481191988275516
0.1456243530001302 0.4538348803126526 0.44894968246213973
0.1458198860000266 0.4528578407425501 0.4460185637518319
0.14602932599973428 0.4528578407425501 0.44894968246213973
0.14623563599980116 0.45676599902296044 0.44406448461162684
0.14644926100027078 0.45969711773326827 0.44699560332193444
0.14667723799993837 0.4538348803126526 0.4460185637518319
0.14689349200034485 0.4587200781631655 0.44992672203224227
0.14710893200026476 0.45676599902296044 0.44699560332193444
0.147306056999696 0.45188080117244755 0.4460185637518319
0.14749436799957039 0.45969711773326827 0.4479726428920372
0.14768280899988895 0.457743038593063 0.45481191988275516
0.14787104500010173 0.4557889594528579 0.457743038593063
0.14805857800001831 0.45676599902296044 0.46458231558378116
0.14824627799953305 0.457743038593063 0.4655593551538837
0.14843393999944965 0.4606741573033708 0.4763067904250122
0.14862149199962005 0.4528578407425501 0.4704445530043966
0.14881007999974827 0.45481191988275516 0.4665363947239862
0.14900735399987752 0.4538348803126526 0.4557889594528579
0.14919516499958263 0.4557889594528579 0.4460185637518319
0.14938936399994418 0.4528578407425501 0.43429408891060084
0.14957858199977636 0.4538348803126526 0.41963849535906195
0.1497679120002431 0.4538348803126526 0.412799218368344
0.14995594500032894 0.45188080117244755 0.4137762579384465
0.15014634799990745 0.4509037616023448 0.41670737664875435
0.15033660300014162 0.45188080117244755 0.4206155349291647
0.15052439499959291 0.45188080117244755 0.4284318514899854
0.15071229899967875 0.45188080117244755 0.43429408891060084
0.15089983199959534 0.45188080117244755 0.4382022471910112
0.15108717899965995 0.4528578407425501 0.4401563263312165
0.15127478599970345 0.45676599902296044 0.441133365901319
0.15146224499949312 0.4538348803126526 0.44406448461162684
0.15164979699966352 0.45676599902296044 0.44211040547142155
0.15183944099953806 0.4479726428920372 0.44406448461162684
0.1520712880001156 0.4460185637518319 0.45188080117244755
0.15226085799986322 0.44894968246213973 0.45188080117244755
0.15245035399948392 0.45188080117244755 0.457743038593063
0.1526380719997178 0.44992672203224227 0.457743038593063
0.15282560499963438 0.4509037616023448 0.4587200781631655
0.15306106299976818 0.44992672203224227 0.4587200781631655
0.1532487989998117 0.45188080117244755 0.4587200781631655
0.15343651799958025 0.4509037616023448 0.457743038593063
0.15362508799989882 0.44992672203224227 0.4557889594528579
0.15381282399994234 0.44992672203224227 0.4557889594528579
0.1540015239997956 0.45676599902296044 0.45676599902296044
0.15418935300021985 0.44894968246213973 0.45676599902296044
0.15437736799958657 0.4509037616023448 0.4665363947239862
0.15456645599988406 0.45188080117244755 0.4802149487054226
0.15475380399948335 0.44992672203224227 0.4948705422569615
0.154941429000246 0.4528578407425501 0.5144113336590133
0.1551408140003332 0.44992672203224227 0.5319980459208598
0.15532877300029213 0.4528578407425501 0.5446995603321934
0.15551624999989144 0.4528578407425501 0.5525158768930141
0.1557103389995973 0.4538348803126526 0.5593551538837322
0.15590226099993743 0.4509037616023448 0.5554469956033219
0.15609020099964255 0.44992672203224227 0.5544699560332194
0.15627773399955913 0.44406448461162684 0.5446995603321934
0.15646606300015264 0.4460185637518319 0.5359062042012701
0.15665339199949813 0.44406448461162684 0.5232046897899365
0.1568572400001358 0.4460185637518319 0.5085490962383976
0.15704760599965084 0.441133365901319 0.4929164631167562
0.15723554699980014 0.4460185637518319 0.48216902784562765
0.15742335699997057 0.441133365901319 0.4684904738641915
0.15761164899959113 0.4460185637518319 0.4606741573033708
0.15780031200029043 0.4450415241817294 0.44992672203224227
0.15798745600022812 0.4479726428920372 0.44406448461162684
0.1581760259996372 0.4479726428920372 0.43722520762090866
0.1583663740002521 0.44992672203224227 0.43429408891060084
0.15855422200002067 0.4479726428920372 0.4264777723497801
0.15874230999997962 0.44699560332193444 0.4206155349291647
0.15893026899993856 0.44699560332193444 0.40986809965803617
0.15911787599998206 0.4450415241817294 0.39912066438690763
0.15930703899994114 0.44699560332193444 0.348314606741573
0.16014703899963934 0.44894968246213973 0.3277967757694187
0.16041703300015797 0.44992672203224227 0.3277967757694187
0.16064452799946594 0.4538348803126526 0.3336590131900341
0.16089639300025738 0.44992672203224227 0.35710796287249624
0.16116142499959096 0.45188080117244755 0.38446507083536874
0.1613684940002713 0.45481191988275516 0.4802149487054226
0.16259933800029103 0.4528578407425501 0.48216902784562765
0.16293720100020437 0.44894968246213973 0.4733756717147044
0.163185806999536 0.44992672203224227 0.4538348803126526
0.16340920899983757 0.44992672203224227 0.42940889106008795
0.1636201119999896 0.4460185637518319 0.40693698094772834
0.16382334900026763 0.45188080117244755 0.38739618954567656
0.16403228800027136 0.44894968246213973 0.37274059599413767
0.16422550700008287 0.44406448461162684 0.36687835857352225
0.16441639099957683 0.44699560332193444 0.36492427943331696
0.1646044979997896 0.4460185637518319 0.3688324377137273
0.16479284599972743 0.4479726428920372 0.3707865168539326
0.16500843399990117 0.44992672203224227 0.38153395212506114
0.16519765199973335 0.4528578407425501 0.40009770395701016
0.16538872199998877 0.44992672203224227 0.41670737664875435
0.1655776440002228 0.44894968246213973 0.43722520762090866
0.16576582499965298 0.4538348803126526 0.45969711773326827
0.16595446900009847 0.4538348803126526 0.4763067904250122
0.1661437239999941 0.44699560332193444 0.4948705422569615
0.16633105399978376 0.45188080117244755 0.5046409379579873
0.16651845700016565 0.4528578407425501 0.5173424523693209
0.16670617499949003 0.45188080117244755 0.5261358085002443
0.16689407899957587 0.4509037616023448 0.5300439667806547
0.167091000000255 0.44699560332193444 0.5271128480703469
0.16729794000002585 0.4528578407425501 0.4978016609672691
0.16782865099958144 0.4460185637518319 0.47239863214460187
0.168109051999636 0.4538348803126526 0.45676599902296044
0.16835002900006657 0.4430874450415241 0.44699560332193444
0.16857426400019904 0.4401563263312165 0.44699560332193444
0.168820500000038 0.441133365901319 0.45969711773326827
0.16937978399982967 0.4430874450415241 0.48216902784562765
0.16961855699992157 0.4430874450415241 0.48998534440644836
0.169808589999775 0.4460185637518319 0.49682462139716654
0.16999649300032615 0.44699560332193444 0.5046409379579873
0.1701856179997776 0.44894968246213973 0.5075720566682951
0.17037418800009618 0.44894968246213973 0.5144113336590133
0.17059025799972005 0.44894968246213973 0.5046409379579873
0.1707810130001235 0.4509037616023448 0.5056179775280898
0.17096943500018824 0.44894968246213973 0.5017098192476794
0.1711576719999357 0.44992672203224227 0.49682462139716654
0.17134661199997936 0.44894968246213973 0.495847581827064
0.1715409409998756 0.4460185637518319 0.4909623839765511
0.17173058499975014 0.45188080117244755 0.4909623839765511
0.17191821100004745 0.44699560332193444 0.49193942354665365
0.17210572499971022 0.4460185637518319 0.49193942354665365
0.17229353600032482 0.44992672203224227 0.4938935026868587
0.1724815130000934 0.44699560332193444 0.5026868588177822
0.17267067600005248 0.44992672203224227 0.5046409379579873
0.172882615999697 0.4479726428920372 0.5026868588177822
0.17307285199967737 0.44992672203224227 0.49877870053737183
0.17326097800014395 0.44699560332193444 0.48998534440644836
0.17344847399999708 0.4479726428920372 0.4811919882755251
0.1736351370000193 0.4479726428920372 0.4733756717147044
0.17382211399944936 0.44699560332193444 0.4606741573033708
0.17400872100006382 0.44992672203224227 0.4460185637518319
0.17419545800021297 0.44894968246213973 0.4323400097703958
0.17438363899964315 0.4479726428920372 0.4206155349291647
0.17457104200002505 0.44699560332193444 0.4108451392281387
0.17476231599994207 0.44992672203224227 0.4108451392281387
0.17495040399990103 0.4557889594528579 0.41475329750854906
0.17514345600011438 0.4460185637518319 0.4186614557889594
0.17533530299988342 0.44211040547142155 0.4235466536394723
0.1755284290002237 0.4401563263312165 0.4264777723497801
0.17571696199956932 0.441133365901319 0.43429408891060084
0.17590499499965517 0.43917928676111373 0.4450415241817294
0.1760973609998473 0.43917928676111373 0.4528578407425501
0.1762853760001235 0.43917928676111373 0.4587200781631655
0.17647246399974392 0.4382022471910112 0.4606741573033708
0.1766590709994489 0.43624816805080613 0.457743038593063
0.1768696409999393 0.4401563263312165 0.4538348803126526
0.17706289600027958 0.4382022471910112 0.44699560332193444
0.17725015099949815 0.43917928676111373 0.4382022471910112
0.1774386280003455 0.43917928676111373 0.4323400097703958
0.17762606900032551 0.43917928676111373 0.41670737664875435
0.1778148980001788 0.441133365901319 0.40205178309721545
0.17800344999977824 0.4430874450415241 0.3854421104054715
0.17819261200020264 0.44211040547142155 0.3659013190034197
0.17838144100005593 0.4479726428920372 0.35417684416218864
0.17857075200026884 0.44992672203224227 0.3404982901807523
0.17894146599974192 0.4528578407425501 0.32681973619931615
0.1791896459999407 0.45481191988275516 0.3287738153395212
0.17938747500011232 0.45676599902296044 0.3356130923302394
0.17957913800000824 0.45481191988275516 0.3502686858817783
0.1797940220003511 0.45676599902296044 0.3629702002931119
0.17998503600028926 0.4557889594528579 0.37274059599413767
0.18017419900024834 0.45676599902296044 0.37957987298485585
0.18036284299978433 0.4538348803126526 0.37957987298485585
0.18055033899963746 0.45481191988275516 0.3805569125549584
0.18073768700014625 0.4538348803126526 0.37274059599413767
0.1809556079997492 0.4528578407425501 0.3659013190034197
0.18114499300008902 0.4528578407425501 0.36492427943331696
0.18133371099975193 0.45188080117244755 0.3678553981436248
0.18152150300011272 0.44992672203224227 0.3737176355642404
0.18170979499973328 0.44992672203224227 0.3834880312652662
0.18189782799981913 0.44992672203224227 0.3961895456765998
0.1820850280000741 0.44894968246213973 0.40889106008793363
0.18227220900007524 0.44406448461162684 0.41670737664875435
0.18246000099952653 0.44406448461162684 0.4206155349291647
0.18264747899957 0.44406448461162684 0.4255007327796776
0.1828465859998687 0.43917928676111373 0.431362970200293
0.1830356929995105 0.44406448461162684 0.43624816805080613
0.18322341099974437 0.441133365901319 0.4333170493404983
0.18341079600031662 0.4450415241817294 0.42452369320957506
0.18359768000027543 0.44211040547142155 0.4040058622374205
0.1837857319997056 0.4460185637518319 0.38153395212506114
0.1839728949998971 0.44699560332193444 0.35222276502198335
0.1841596309996021 0.44992672203224227 0.3336590131900341
0.18434694200004742 0.4509037616023448 0.3238886174890083
0.18453412300004857 0.45188080117244755 0.3209574987787005
0.18472113799998624 0.45481191988275516 0.32681973619931615
0.18492280000009487 0.45481191988275516 0.3404982901807523
0.1851119809998636 0.457743038593063 0.3610161211529066
0.1852998659996956 0.45481191988275516 0.38935026868588185
0.1854872690000775 0.45676599902296044 0.42452369320957506
0.18567554299988842 0.45676599902296044 0.4704445530043966
0.18586359399978392 0.45481191988275516 0.5202735710796287
0.18605422000018734 0.45969711773326827 0.5691255495847583
0.18624179000016738 0.4606741573033708 0.6209086468001954
0.186429008000232 0.4636052760136786 0.67171470444553
0.1866159119999793 0.46262823644357587 0.7186126038104543
0.1868036480000228 0.4636052760136786 0.7616023448949683
0.18699066299996048 0.46262823644357587 0.7957987298485589
0.187177955000152 0.46458231558378116 0.8163165608207132
0.18736548800006858 0.46458231558378116 0.8202247191011236
0.18755255799987935 0.46165119687347334 0.8045920859794822
0.187742535000325 0.45676599902296044 0.7752808988764044
0.18794538299971464 0.45481191988275516 0.7440156326331215
0.18813298999975814 0.4509037616023448 0.7059110893991207
0.18832018899956893 0.4509037616023448 0.6678065461651197
0.1885074080000777 0.4509037616023448 0.633610161211529
0.1886949409999943 0.44894968246213973 0.6033219345383487
0.18888532500022848 0.4509037616023448 0.5847581827063997
0.18907852499978617 0.44406448461162684 0.576941866145579
0.18926605799970275 0.44406448461162684 0.567171470444553
0.18945368400000007 0.44211040547142155 0.5554469956033219
0.18964114200025506 0.44211040547142155 0.540791402051783
0.1898277499994947 0.43917928676111373 0.524181729360039
0.1900189859998136 0.43917928676111373 0.4978016609672691
0.19021972300015477 0.43917928676111373 0.467513434294089
0.190421588999925 0.44211040547142155 0.4430874450415241
0.19062404699980107 0.4450415241817294 0.42159257449926724
0.19081815400022606 0.4479726428920372 0.4059599413776258
0.19100570599948696 0.44992672203224227 0.38739618954567656
0.19119434999993246 0.44992672203224227 0.3756717147044455
0.19138186399959523 0.4509037616023448 0.36492427943331696
0.19156930400004057 0.45188080117244755 0.3639472398632144
0.19175598600031662 0.44699560332193444 0.36199316072300936
0.19194333299947175 0.44894968246213973 0.3659013190034197
0.19213070000023436 0.4479726428920372 0.3678553981436248
0.19231739899987588 0.44699560332193444 0.3639472398632144
0.19250745099998312 0.4479726428920372 0.3639472398632144
0.19269479899958242 0.44406448461162684 0.358085002442599
0.1928832389994568 0.4430874450415241 0.36199316072300936
0.19307204999950045 0.44894968246213973 0.3561309233023937
0.19326024899964978 0.4450415241817294 0.3639472398632144
0.193447226999524 0.44406448461162684 0.34733756717147046
0.1936361299995042 0.4479726428920372 0.3424523693209576
0.19382279299952643 0.44894968246213973 0.33952125061064975
0.19401010399997176 0.44699560332193444 0.3404982901807523
0.19419771100001526 0.4528578407425501 0.35222276502198335
0.19438537299993186 0.45481191988275516 0.3561309233023937
0.19457396199959476 0.4538348803126526 0.3737176355642404
0.19476358700012497 0.4509037616023448 0.3883732291157791
0.19497361999947316 0.4528578407425501 0.4059599413776258
0.19516120800017234 0.45188080117244755 0.4157303370786516
0.19534916700013127 0.4528578407425501 0.42256961406936977
0.19553586700021697 0.4509037616023448 0.42745481191988266
0.19572314099968935 0.4430874450415241 0.4235466536394723
0.19591124799990212 0.44211040547142155 0.41182217879824123
0.19612246499946195 0.4430874450415241 0.4059599413776258
0.19631047999973816 0.4382022471910112 0.39912066438690763
0.19649829100035276 0.4430874450415241 0.3961895456765998
0.19668521199946554 0.44211040547142155 0.39716658524670256
0.1968747450000592 0.44406448461162684 0.3952125061064973
0.1970650379998915 0.44406448461162684 0.4049829018075233
0.19725301499966008 0.441133365901319 0.4137762579384465
0.19744132599953446 0.441133365901319 0.42940889106008795
0.19762887700017018 0.441133365901319 0.441133365901319
0.19781578099991748 0.4430874450415241 0.4557889594528579
0.19800329499958025 0.44699560332193444 0.46458231558378116
0.19819201300015266 0.4460185637518319 0.4733756717147044
0.1983791940001538 0.44699560332193444 0.4802149487054226
0.19856813499973214 0.4460185637518319 0.48705422569614076
0.19875509400026203 0.4479726428920372 0.4909623839765511
0.19894305300022097 0.4460185637518319 0.49193942354665365
0.19913010399977793 0.4460185637518319 0.5007327796775769
0.1993181560001176 0.4460185637518319 0.5046409379579873
0.19950513299954764 0.4450415241817294 0.5046409379579873
0.1996929810002257 0.4450415241817294 0.5017098192476794
0.19987975399999414 0.44406448461162684 0.49877870053737183
0.20006628699957218 0.4479726428920372 0.4909623839765511
0.20025341299970023 0.44894968246213973 0.48705422569614076
0.20044044599944755 0.4509037616023448 0.4782608695652173
0.20062825700006215 0.4509037616023448 0.4763067904250122
0.2008159010001691 0.44992672203224227 0.4606741573033708
0.20102217400017253 0.44894968246213973 0.4538348803126526
0.20121313300023758 0.45188080117244755 0.4460185637518319
0.20140385099966807 0.4509037616023448 0.441133365901319
0.201595198999712 0.44992672203224227 0.4323400097703958
0.20178525000028458 0.45481191988275516 0.4284318514899854
0.2019752280002649 0.44992672203224227 0.41963849535906195
0.2021692050002457 0.4538348803126526 0.41475329750854906
0.20235957099976076 0.4538348803126526 0.4157303370786516
0.20254975199986802 0.4509037616023448 0.412799218368344
0.20274108200010232 0.44699560332193444 0.4108451392281387
0.20293104000029416 0.44992672203224227 0.40986809965803617
0.20312087000002066 0.44894968246213973 0.4079140205178309
0.20331105100012792 0.44992672203224227 0.40889106008793363
0.20350062099987554 0.4528578407425501 0.4040058622374205
0.2036902829995597 0.45188080117244755 0.40009770395701016
0.20388196400017478 0.45481191988275516 0.40205178309721545
0.20408301499992376 0.4528578407425501 0.4049829018075233
0.2042743080000946 0.45481191988275516 0.412799218368344
0.20446504400024423 0.4587200781631655 0.42452369320957506
0.20465591099946323 0.4587200781631655 0.4460185637518319
0.20486711000012292 0.457743038593063 0.45188080117244755
0.20505916099955357 0.4557889594528579 0.4733756717147044
0.20525036100025318 0.4557889594528579 0.486077186126038
0.20544056000017008 0.45188080117244755 0.4948705422569615
0.20563055599996005 0.4606741573033708 0.49975574010747437
0.20582070000000385 0.4528578407425501 0.5056179775280898
0.2060109369995189 0.457743038593063 0.5144113336590133
0.20620083999983763 0.4528578407425501 0.5065950170981925
0.2063915580001776 0.4538348803126526 0.5075720566682951
0.20658272099990427 0.45481191988275516 0.4948705422569615
0.20677341999999044 0.4557889594528579 0.4909623839765511
0.20696415699967474 0.45481191988275516 0.48900830483634583
0.20716055999946548 0.4509037616023448 0.4851001465559355
0.2073518890001651 0.4538348803126526 0.49193942354665365
0.20754240399946866 0.45188080117244755 0.4909623839765511
0.20773241799997777 0.45188080117244755 0.4929164631167562
0.20792332099972555 0.44894968246213973 0.4880312652662433
0.20811309500004427 0.4450415241817294 0.4763067904250122
0.20830392399966513 0.44699560332193444 0.47142159257449934
0.20849484599966672 0.4450415241817294 0.44894968246213973
0.2087761729999329 0.44992672203224227 0.4303859306301905
0.20896731700031523 0.45188080117244755 0.40693698094772834
0.2091579059997457 0.4557889594528579 0.38739618954567656
0.20934967900029733 0.45481191988275516 0.36492427943331696
0.2095489710000038 0.45188080117244755 0.3551538837322912
0.20974687499983702 0.45481191988275516 0.348314606741573
0.20995435199984058 0.4528578407425501 0.35417684416218864
0.2101612540000133 0.4528578407425501 0.36199316072300936
0.21035974999995233 0.45481191988275516 0.38153395212506114
0.21055828299995483 0.44992672203224227 0.4079140205178309
0.21075053799995658 0.45481191988275516 0.4235466536394723
0.21094273800008523 0.45188080117244755 0.44894968246213973
0.21113451099972735 0.44894968246213973 0.47142159257449934
0.2113435989995196 0.4479726428920372 0.4929164631167562
0.21160003800014238 0.4450415241817294 0.5085490962383976
0.21185745899947506 0.44992672203224227 0.5300439667806547
0.21214691499972105 0.4509037616023448 0.533952125061065
0.2124234829998386 0.44992672203224227 0.533952125061065
0.21282406699992862 0.44894968246213973 0.5202735710796287
0.2131152279998787 0.4460185637518319 0.5114802149487054
0.21332666800026345 0.44699560332193444 0.49877870053737183
0.21352681099961046 0.4460185637518319 0.48216902784562765
0.21377299100004166 0.44699560332193444 0.46458231558378116
0.2139742090002983 0.44406448461162684 0.45188080117244755
0.21418157500011148 0.4430874450415241 0.43917928676111373
0.21440016299948184 0.44211040547142155 0.4303859306301905
0.2146426210001664 0.44211040547142155 0.42452369320957506
0.2148855409996031 0.44211040547142155 0.4235466536394723
0.21516464599972096 0.44211040547142155 0.41963849535906195
0.2154447140001139 0.4401563263312165 0.42256961406936977
0.21573735600031796 0.44211040547142155 0.42256961406936977
0.2160279609997815 0.4450415241817294 0.42452369320957506
0.21627865899972676 0.4401563263312165 0.431362970200293
0.21649920999971073 0.44211040547142155 0.4284318514899854
0.21673215000009804 0.44406448461162684 0.4255007327796776
0.21711553000022832 0.44406448461162684 0.41963849535906195
0.2173374510002759 0.44406448461162684 0.4206155349291647
0.21752779899998131 0.44992672203224227 0.4186614557889594
0.21771568399981334 0.44699560332193444 0.4176844162188569
0.21790393900027993 0.44699560332193444 0.4176844162188569
0.21809150900025998 0.4450415241817294 0.41670737664875435
0.2182791349996478 0.4479726428920372 0.4176844162188569
0.2184679080000933 0.44992672203224227 0.41963849535906195
0.21865534900007333 0.44699560332193444 0.4284318514899854
0.21884341900022264 0.44894968246213973 0.4401563263312165
0.2190338589998646 0.44992672203224227 0.44992672203224227
0.21922070700020413 0.44992672203224227 0.4636052760136786
0.21941399899969838 0.44894968246213973 0.46946751343429405
0.21960156899967842 0.44992672203224227 0.4733756717147044
0.21978893499999685 0.4479726428920372 0.47728382999511476
0.21997620899946924 0.44894968246213973 0.4802149487054226
0.22016355699997803 0.44992672203224227 0.4802149487054226
0.220350163999683 0.44894968246213973 0.48412310698583294
0.22053762299947266 0.44699560332193444 0.486077186126038
0.2207246739999391 0.44894968246213973 0.4851001465559355
0.22093876199960505 0.4460185637518319 0.48412310698583294
0.2211620349999066 0.44406448461162684 0.4831460674157304
0.22135253099986585 0.44992672203224227 0.47728382999511476
0.22154008300003625 0.44211040547142155 0.4811919882755251
0.22172841199972027 0.44699560332193444 0.486077186126038
0.22191614900020795 0.44406448461162684 0.4802149487054226
0.22211140400031582 0.44699560332193444 0.4851001465559355
0.22229888099991513 0.4430874450415241 0.4811919882755251
0.2224867839995568 0.4450415241817294 0.47435271128480694
0.22267640999962168 0.44406448461162684 0.4665363947239862
0.2228639610002574 0.4460185637518319 0.4655593551538837
0.22305101300025854 0.4479726428920372 0.457743038593063
0.223239379000006 0.4450415241817294 0.4538348803126526
0.22342754199962656 0.44894968246213973 0.44699560332193444
0.22361409299992374 0.4538348803126526 0.44699560332193444
0.22380073699969216 0.45188080117244755 0.4509037616023448
0.22398801100007404 0.4509037616023448 0.4430874450415241
0.22417517400026554 0.4460185637518319 0.441133365901319
0.2243640589995266 0.4479726428920372 0.43722520762090866
0.2245525179996548 0.4460185637518319 0.43429408891060084
0.2247414759995081 0.44699560332193444 0.4284318514899854
0.22494828700018843 0.4509037616023448 0.4264777723497801
0.2251360049995128 0.4479726428920372 0.4235466536394723
0.2253236119995563 0.44894968246213973 0.42159257449926724
0.22551162600029784 0.4509037616023448 0.42256961406936977
0.22570002999964345 0.45188080117244755 0.4323400097703958
0.22588711800017336 0.45676599902296044 0.4303859306301905
0.2261043910002627 0.457743038593063 0.43624816805080613
0.22629094300009456 0.4557889594528579 0.44406448461162684
0.2264781240000957 0.45481191988275516 0.45188080117244755
0.22666530500009685 0.45969711773326827 0.4528578407425501
0.22685278300014033 0.4587200781631655 0.45481191988275516
0.22704057499959163 0.45676599902296044 0.44406448461162684
0.2272291449999102 0.457743038593063 0.43624816805080613
0.2274168069998268 0.457743038593063 0.4264777723497801
0.22760385899982793 0.4587200781631655 0.42745481191988266
0.227791113999956 0.45676599902296044 0.42159257449926724
0.22797816599995713 0.45676599902296044 0.42452369320957506
0.22816512499957753 0.4557889594528579 0.4284318514899854
0.22835995399964304 0.4538348803126526 0.4352711284807034
0.22856941200006986 0.4557889594528579 0.44211040547142155
0.22877535199950216 0.4538348803126526 0.45969711773326827
0.22906567900008667 0.4538348803126526 0.4665363947239862
0.22926067499975034 0.45481191988275516 0.4733756717147044
0.22945042999981524 0.45676599902296044 0.4782608695652173
0.22963864800021838 0.4538348803126526 0.47923790913532005
0.2298289410000507 0.45188080117244755 0.47435271128480694
0.2300171959996078 0.4538348803126526 0.46946751343429405
0.230206821000138 0.44894968246213973 0.4636052760136786
0.23042081699986738 0.44992672203224227 0.4538348803126526
0.23060910899948794 0.4479726428920372 0.44406448461162684
0.23079686399978527 0.4479726428920372 0.4333170493404983
0.2309866929999771 0.45188080117244755 0.4284318514899854
0.23121470699970814 0.4450415241817294 0.42745481191988266
0.23140498100019613 0.44699560332193444 0.431362970200293
0.23159303200009163 0.4479726428920372 0.43624816805080613
0.231781342999966 0.4460185637518319 0.43722520762090866
0.2319693939998615 0.4509037616023448 0.4401563263312165
0.23215679799977806 0.44992672203224227 0.44211040547142155
0.23234466400026577 0.4450415241817294 0.44406448461162684
0.23253243799990742 0.4450415241817294 0.4450415241817294
0.2327194520003104 0.4479726428920372 0.44992672203224227
0.2329079669998464 0.4450415241817294 0.45188080117244755
0.23309770299965749 0.4509037616023448 0.45676599902296044
0.23329371699946932 0.44699560332193444 0.46262823644357587
0.2334845099994709 0.44699560332193444 0.46262823644357587
0.2336717830003181 0.44699560332193444 0.46165119687347334
0.23385966800015012 0.44406448461162684 0.45969711773326827
0.23404722000032052 0.4479726428920372 0.45969711773326827
0.23423469699991983 0.44699560332193444 0.45969711773326827
0.23442237800009025 0.44406448461162684 0.45676599902296044
0.23461000399947807 0.4479726428920372 0.4606741573033708
0.23479666599996563 0.4450415241817294 0.44894968246213973
0.23498360699977638 0.44894968246213973 0.4460185637518319
0.23517169499973534 0.44699560332193444 0.43624816805080613
0.23535913599971536 0.4509037616023448 0.43624816805080613
0.2355478720000974 0.44894968246213973 0.4352711284807034
0.23573520199988707 0.4509037616023448 0.4352711284807034
0.23592271599954984 0.4528578407425501 0.4401563263312165
0.23610995299986826 0.44992672203224227 0.441133365901319
0.2362973930003136 0.4538348803126526 0.4450415241817294
0.23648490799951105 0.44894968246213973 0.4557889594528579
0.23667136699987168 0.44992672203224227 0.4606741573033708
0.2368599549999999 0.45188080117244755 0.4763067904250122
0.23704754400023376 0.44992672203224227 0.48900830483634583
0.23723561399947357 0.45188080117244755 0.49975574010747437
0.23742305399991892 0.44894968246213973 0.5017098192476794
0.23761034600011044 0.4509037616023448 0.5056179775280898
0.2377976759999001 0.44894968246213973 0.5017098192476794
0.2379857269997956 0.45188080117244755 0.4948705422569615
0.23817329699977563 0.45188080117244755 0.4831460674157304
0.2383700519994818 0.4538348803126526 0.4665363947239862
0.23855751100018097 0.45481191988275516 0.44699560332193444
0.2387450070000341 0.4557889594528579 0.42452369320957506
0.23893191000024672 0.4557889594528579 0.412799218368344
0.23912009200012108 0.45481191988275516 0.40009770395701016
0.23930875399946672 0.4528578407425501 0.39716658524670256
0.2394964719997006 0.457743038593063 0.40009770395701016
0.23968356099976518 0.4538348803126526 0.403028822667318
0.23987094600033743 0.4509037616023448 0.4049829018075233
0.24006799699964176 0.4528578407425501 0.4108451392281387
0.24025910399996064 0.4538348803126526 0.41670737664875435
0.240448452000237 0.44992672203224227 0.42452369320957506
0.24063670699979411 0.4538348803126526 0.4264777723497801
0.24082451799949922 0.4538348803126526 0.4333170493404983
0.2410316059995239 0.45188080117244755 0.43624816805080613
0.24121897199984232 0.4509037616023448 0.441133365901319
0.2414066350002031 0.4528578407425501 0.4430874450415241
0.24159361199963314 0.4509037616023448 0.4479726428920372
0.24178070099969773 0.4538348803126526 0.44894968246213973
0.24196791899976233 0.4509037616023448 0.4538348803126526
0.242155377999552 0.44992672203224227 0.457743038593063
0.242342391999955 0.44699560332193444 0.4636052760136786
0.24252996199993504 0.4509037616023448 0.46946751343429405
0.24271860599947104 0.4509037616023448 0.4782608695652173
0.24294719399949827 0.4460185637518319 0.48705422569614076
0.2431500969996705 0.44894968246213973 0.49682462139716654
0.24336168500030908 0.45481191988275516 0.5017098192476794
0.24356099600026937 0.45969711773326827 0.5036638983878847
0.24376319499970123 0.44992672203224227 0.5007327796775769
0.24396239399993647 0.44992672203224227 0.4948705422569615
0.2442073709999022 0.4538348803126526 0.48998534440644836
0.2444239770002241 0.4528578407425501 0.48705422569614076
0.24468030499974702 0.4538348803126526 0.4938935026868587
0.24513979499988636 0.4557889594528579 0.49682462139716654
0.2453939189999801 0.45188080117244755 0.48900830483634583
0.2455949889999829 0.4528578407425501 0.4880312652662433
0.2457955399995626 0.4509037616023448 0.4763067904250122
0.24607558899970172 0.45481191988275516 0.47142159257449934
0.24627773300016997 0.45481191988275516 0.4655593551538837
0.24648006200004602 0.4557889594528579 0.45969711773326827
0.24668796500009194 0.4538348803126526 0.46165119687347334
0.2469224779997603 0.4528578407425501 0.45969711773326827
0.24727980399984517 0.4557889594528579 0.46165119687347334
0.2475830200000928 0.4557889594528579 0.4665363947239862
0.2479021239996655 0.45188080117244755 0.4655593551538837
0.24818456199955108 0.45188080117244755 0.4684904738641915
0.24844527899949753 0.45188080117244755 0.46458231558378116
0.2486759590001384 0.4538348803126526 0.4665363947239862
0.24897243400027946 0.45188080117244755 0.4684904738641915
0.24922733600033098 0.4528578407425501 0.46262823644357587
0.24944844199944782 0.4538348803126526 0.4528578407425501
0.24996430200008035 0.4528578407425501 0.45188080117244755
0.25017524200029584 0.4538348803126526 0.4460185637518319
0.25036973700025555 0.44992672203224227 0.44211040547142155
0.2505575670002145 0.4509037616023448 0.43624816805080613
0.25074800699985644 0.45188080117244755 0.4323400097703958
0.25094607699975313 0.4538348803126526 0.4323400097703958
0.2511328319997119 0.44894968246213973 0.4323400097703958
0.25132012399990344 0.44992672203224227 0.4303859306301905
0.2515068049997353 0.45188080117244755 0.4255007327796776
0.25169398599973647 0.45188080117244755 0.42256961406936977
0.2518817419995685 0.44894968246213973 0.41475329750854906
0.25206888599950616 0.4460185637518319 0.40693698094772834
0.25225628899988806 0.44992672203224227 0.403028822667318
0.252443803999995 0.44699560332193444 0.3952125061064973
0.25263122500018653 0.44894968246213973 0.3903273082559844
0.2528188139995109 0.4460185637518319 0.3903273082559844
0.25303266099945176 0.44894968246213973 0.3883732291157791
0.2532207499998549 0.44894968246213973 0.3903273082559844
0.2534084119997715 0.44894968246213973 0.3932584269662922
0.2535979080003017 0.45188080117244755 0.3981436248168051
0.2537848860001759 0.44699560332193444 0.40693698094772834
0.25397232599971176 0.44406448461162684 0.40693698094772834
0.25415900699954364 0.44699560332193444 0.41475329750854906
0.25434735499948147 0.4479726428920372 0.4186614557889594
0.2545346659999268 0.44992672203224227 0.4206155349291647
0.25472192100005486 0.4479726428920372 0.4303859306301905
0.25490867600001366 0.44894968246213973 0.4255007327796776
0.25509602399961295 0.44699560332193444 0.42940889106008795
0.2552836679997199 0.44699560332193444 0.4382022471910112
0.2554731640002501 0.4538348803126526 0.441133365901319
0.25566104900008213 0.44992672203224227 0.4460185637518319
0.2558479150002313 0.4538348803126526 0.4479726428920372
0.25603457800025353 0.4557889594528579 0.44894968246213973
0.2562227589996837 0.4528578407425501 0.4509037616023448
0.25644634699983726 0.45481191988275516 0.45481191988275516
0.25663336100024026 0.4557889594528579 0.457743038593063
0.2568203390001145 0.45481191988275516 0.4655593551538837
0.25701813100022264 0.45481191988275516 0.4704445530043966
0.2572060149996105 0.45481191988275516 0.4782608695652173
0.25739373400028853 0.45481191988275516 0.4802149487054226
0.25758123000014166 0.45969711773326827 0.47923790913532005
0.2577722440000798 0.45676599902296044 0.47239863214460187
0.25795935099995404 0.45676599902296044 0.47239863214460187
0.25814632899982826 0.45676599902296044 0.47142159257449934
0.2583341389999987 0.4557889594528579 0.46946751343429405
0.2585213570000633 0.45188080117244755 0.4636052760136786
0.2587094829996204 0.45188080117244755 0.46458231558378116
0.2588959969998541 0.4509037616023448 0.45969711773326827
0.2590827160001936 0.4538348803126526 0.4587200781631655
0.25927767400025914 0.4509037616023448 0.4538348803126526
0.2594819659998393 0.44992672203224227 0.45481191988275516
0.2596692400002212 0.45188080117244755 0.45481191988275516
0.25985669900001085 0.4509037616023448 0.45481191988275516
0.2600435100002869 0.44894968246213973 0.4538348803126526
0.2602313019997382 0.4528578407425501 0.45676599902296044
0.2604181130000143 0.44894968246213973 0.45676599902296044
0.26060518299982505 0.45188080117244755 0.4587200781631655
0.26079206800022803 0.44992672203224227 0.45969711773326827
0.2609853779995319 0.4509037616023448 0.45676599902296044
0.2611753929995757 0.44894968246213973 0.4587200781631655
0.261369091999768 0.44894968246213973 0.4636052760136786
0.2615798469996662 0.44992672203224227 0.46458231558378116
0.26178063899988047 0.4538348803126526 0.4704445530043966
0.26198611600011645 0.4538348803126526 0.47239863214460187
0.26218061199961085 0.45481191988275516 0.47728382999511476
0.2623693479999929 0.4509037616023448 0.4733756717147044
0.26255582599969784 0.45481191988275516 0.4763067904250122
0.26274322900007974 0.4509037616023448 0.47239863214460187
0.2629294660000596 0.4557889594528579 0.46946751343429405
0.26311755400001857 0.4528578407425501 0.4665363947239862
0.2633049949999986 0.4528578407425501 0.46458231558378116
0.26349315700008447 0.45481191988275516 0.46262823644357587
0.26368200500019157 0.45676599902296044 0.45676599902296044
0.26386861199989653 0.45188080117244755 0.4538348803126526
0.2640552929997284 0.45188080117244755 0.4538348803126526
0.26424278899958153 0.44894968246213973 0.4528578407425501
0.26442995199977304 0.44699560332193444 0.4557889594528579
0.26464148400009435 0.44894968246213973 0.45676599902296044
0.26482970300003217 0.45188080117244755 0.45481191988275516
0.265049493999868 0.4528578407425501 0.4557889594528579
0.265243601000293 0.4538348803126526 0.46262823644357587
0.2654358379995756 0.4528578407425501 0.4606741573033708
0.26562796300004266 0.4538348803126526 0.4606741573033708
0.26581810700008646 0.4509037616023448 0.4587200781631655
0.2660086030000457 0.4528578407425501 0.457743038593063
0.2661986169996453 0.4509037616023448 0.457743038593063
0.2663889099994776 0.45188080117244755 0.45188080117244755
0.26657971999975416 0.44894968246213973 0.4528578407425501
0.26676973499979795 0.44894968246213973 0.457743038593063
0.26695947099960904 0.4450415241817294 0.457743038593063
0.26714935600011813 0.441133365901319 0.4606741573033708
0.26734120400033135 0.4450415241817294 0.4655593551538837
0.26753132900012133 0.4430874450415241 0.4655593551538837
0.2677215849998902 0.44699560332193444 0.46946751343429405
0.267911543000082 0.44894968246213973 0.4733756717147044
0.26810152100006235 0.4479726428920372 0.4733756717147044
0.2682913680000638 0.4430874450415241 0.46946751343429405
0.2684813830001076 0.4430874450415241 0.4684904738641915
0.2686718969998765 0.4450415241817294 0.4704445530043966
0.2688678380000056 0.44406448461162684 0.4763067904250122
0.26907140699950105 0.4460185637518319 0.4802149487054226
0.26927734699984285 0.4450415241817294 0.4851001465559355
0.2694704539999293 0.4450415241817294 0.4831460674157304
0.26966024600005767 0.4430874450415241 0.4811919882755251
0.2698667419999765 0.4460185637518319 0.4831460674157304
0.27007055200010655 0.4450415241817294 0.4665363947239862
0.2702719740000248 0.44406448461162684 0.45188080117244755
0.27047054400009074 0.44211040547142155 0.4323400097703958
0.2706656509999448 0.44211040547142155 0.4186614557889594
0.27085734999946 0.4430874450415241 0.40693698094772834
0.271046865000244 0.4401563263312165 0.3932584269662922
0.2712386749999496 0.43917928676111373 0.38446507083536874
0.27142807800009905 0.44211040547142155 0.3737176355642404
0.271618073999889 0.44894968246213973 0.3561309233023937
0.27184712500002206 0.441133365901319 0.3424523693209576
0.2720432129999608 0.4450415241817294 0.32681973619931615
0.2722333940000681 0.4430874450415241 0.31998045920859797
0.27242470500004856 0.44992672203224227 0.3111871030776747
0.27261633099988103 0.44699560332193444 0.3111871030776747
0.2728670839996994 0.4460185637518319 0.3082559843673669
0.2730763019999358 0.441133365901319 0.31216414264777725
0.2732848349996857 0.4450415241817294 0.3150952613580851
0.2734846080002171 0.44211040547142155 0.3141182217879823
0.27367808500002866 0.441133365901319 0.3180263800683927
0.27386998899964965 0.441133365901319 0.31900341963849543
0.27406078100011655 0.4430874450415241 0.3238886174890083
0.2742506839995258 0.4401563263312165 0.33170493404982904
0.2744461610000144 0.44406448461162684 0.3356130923302394
0.27463854599955084 0.4450415241817294 0.3414753297508548
0.2748288570001023 0.4479726428920372 0.35222276502198335
0.2750197229997866 0.45188080117244755 0.3678553981436248
0.27521014499961893 0.4528578407425501 0.38446507083536874
0.2753997330000857 0.45481191988275516 0.40986809965803617
0.275591951000024 0.46165119687347334 0.4352711284807034
0.2757832810002583 0.46262823644357587 0.46458231558378116
0.2759751840003446 0.4636052760136786 0.4938935026868587
0.2761937899995246 0.4606741573033708 0.5036638983878847
0.27639015600016137 0.4587200781631655 0.5163654127992183
0.276600948000123 0.45969711773326827 0.5232046897899365
0.27680188799968164 0.4557889594528579 0.5271128480703469
0.27701251300004515 0.45969711773326827 0.5359062042012701
0.2772137310003018 0.4606741573033708 0.5437225207620908
0.27743700399969384 0.4665363947239862 0.567171470444553
0.27764953699988837 0.46458231558378116 0.5906204201270151
0.2778755130002537 0.46458231558378116 0.6111382510991694
0.2781310629998188 0.4665363947239862 0.6248168050806058
0.27843738999945344 0.46165119687347334 0.6257938446507083
0.2786606439995012 0.45676599902296044 0.6130923302393747
0.2788574919995881 0.4557889594528579 0.5964826575476307
0.27906880199952866 0.4509037616023448 0.5749877870053737
0.27928507500018895 0.4509037616023448 0.5427454811919883
0.27950890400006756 0.45188080117244755 0.5212506106497312
0.27971230699949956 0.4479726428920372 0.5036638983878847
0.27992919099961 0.44406448461162684 0.49193942354665365
0.2801471490001859 0.44992672203224227 0.4802149487054226
0.28039121799974964 0.4479726428920372 0.47435271128480694
0.28067778599961457 0.44699560332193444 0.4636052760136786
0.28102722299991 0.44894968246213973 0.46165119687347334
0.2813280680002208 0.44992672203224227 0.45969711773326827
0.2816269140002987 0.45188080117244755 0.457743038593063
0.2820187010001973 0.44699560332193444 0.4528578407425501
0.28224175200011814 0.45188080117244755 0.45188080117244755
0.2824311550002676 0.45188080117244755 0.44992672203224227
0.28261957700033236 0.4479726428920372 0.45481191988275516
0.28280762899976253 0.44992672203224227 0.44992672203224227
0.28299494000020786 0.44894968246213973 0.4538348803126526
0.2831822319994899 0.44699560332193444 0.4509037616023448
0.2833701909994488 0.44699560332193444 0.45188080117244755
0.28355833499972505 0.4460185637518319 0.44699560332193444
0.2837505899997268 0.44699560332193444 0.44894968246213973
0.2839421409998977 0.44699560332193444 0.44992672203224227
0.284130211000047 0.44992672203224227 0.44992672203224227
0.28431787399949826 0.44894968246213973 0.4509037616023448
0.2845060179997745 0.44894968246213973 0.45188080117244755
0.2846930699997756 0.44894968246213973 0.44894968246213973
0.2849116569996113 0.44699560332193444 0.45676599902296044
0.285102189999634 0.44894968246213973 0.4606741573033708
0.2853035380003348 0.4460185637518319 0.457743038593063
0.2854909409998072 0.4430874450415241 0.45676599902296044
0.2856782329999987 0.44699560332193444 0.45969711773326827
0.2858656179996615 0.4460185637518319 0.45481191988275516
0.2860530400002972 0.4450415241817294 0.4557889594528579
0.28624029499951575 0.44406448461162684 0.4509037616023448
0.286427236000236 0.4460185637518319 0.4528578407425501
0.28661537999960274 0.4430874450415241 0.4528578407425501
0.28680352399987896 0.4450415241817294 0.4528578407425501
0.28699248300017643 0.44406448461162684 0.4557889594528579
0.28717918300026213 0.44211040547142155 0.44992672203224227
0.28736629000013636 0.44211040547142155 0.4509037616023448
0.2875538409998626 0.4401563263312165 0.45481191988275516
0.287741078000181 0.4430874450415241 0.45676599902296044
0.28792805499961105 0.44406448461162684 0.45676599902296044
0.28811542199946416 0.4460185637518319 0.45676599902296044
0.28830269500031136 0.4479726428920372 0.4557889594528579
0.28848976500012213 0.44894968246213973 0.44894968246213973
0.2886765209996156 0.44894968246213973 0.45188080117244755
0.2888654979997227 0.4528578407425501 0.4509037616023448
0.2890537900002528 0.4509037616023448 0.4538348803126526
0.28924119299972517 0.4538348803126526 0.4509037616023448
0.2894281150001916 0.4528578407425501 0.4557889594528579
0.2896155739999813 0.4528578407425501 0.45676599902296044
0.28980575500008854 0.4509037616023448 0.4528578407425501
0.2899928440001531 0.4587200781631655 0.4538348803126526
0.2901795990001119 0.44699560332193444 0.4460185637518319
0.2903758359998392 0.44699560332193444 0.4430874450415241
0.2905633869995654 0.44894968246213973 0.43722520762090866
0.29075043899956654 0.4460185637518319 0.43429408891060084
0.29093830500005424 0.44211040547142155 0.43429408891060084
0.29112565299965354 0.44406448461162684 0.43429408891060084
0.29131279699959123 0.44406448461162684 0.4303859306301905
0.29150068200033274 0.44699560332193444 0.4323400097703958
0.2916886040002282 0.43917928676111373 0.42940889106008795
0.29187732199989114 0.441133365901319 0.4303859306301905
0.2920640399997865 0.44211040547142155 0.4284318514899854
0.29225040599976637 0.441133365901319 0.4323400097703958
0.29243729100016935 0.44211040547142155 0.4303859306301905
0.2926252500001283 0.44211040547142155 0.4333170493404983
0.2928126719998545 0.43917928676111373 0.4382022471910112
0.2930022230002578 0.43917928676111373 0.44211040547142155
0.29318999699989945 0.43917928676111373 0.4430874450415241
0.293376845000239 0.441133365901319 0.44406448461162684
0.293563377999817 0.4430874450415241 0.4460185637518319
0.2937497439997969 0.4430874450415241 0.44211040547142155
0.2939375360001577 0.441133365901319 0.44211040547142155
0.2941256619997148 0.44406448461162684 0.4430874450415241
0.29431680600009713 0.44406448461162684 0.4450415241817294
0.2945257089995721 0.4460185637518319 0.441133365901319
0.2947305560001041 0.441133365901319 0.4430874450415241
0.29494212600002356 0.45188080117244755 0.44211040547142155
0.29513575100008893 0.4460185637518319 0.43917928676111373
0.29532317299981514 0.44406448461162684 0.4382022471910112
0.2955106319996048 0.4460185637518319 0.4401563263312165
0.29569734999950015 0.4460185637518319 0.43917928676111373
0.29588619799960725 0.4460185637518319 0.43917928676111373
0.29607387899977766 0.4450415241817294 0.4460185637518319
0.29626109699984227 0.4430874450415241 0.4460185637518319
0.2964477599998645 0.44406448461162684 0.4528578407425501
0.2966341999999713 0.44406448461162684 0.45188080117244755
0.296820900000057 0.4460185637518319 0.4509037616023448
0.29705469100008486 0.44992672203224227 0.44992672203224227
0.2972420759997476 0.44992672203224227 0.4401563263312165
0.2974638679997952 0.44992672203224227 0.4284318514899854
0.29765306700028304 0.4479726428920372 0.4176844162188569
0.29784067400032654 0.44992672203224227 0.41475329750854906
0.29802804100017966 0.44894968246213973 0.41475329750854906
0.29821572200035007 0.4430874450415241 0.41670737664875435
0.2984029399995052 0.4430874450415241 0.4186614557889594
0.2986109719995511 0.44699560332193444 0.4264777723497801
0.2987987090000388 0.44211040547142155 0.431362970200293
0.2989854830002514 0.44211040547142155 0.43722520762090866
0.29917429400029505 0.4430874450415241 0.441133365901319
0.29936203000033856 0.44699560332193444 0.4479726428920372
0.29955073000019183 0.44406448461162684 0.45188080117244755
0.29973724399951607 0.4460185637518319 0.44992672203224227
0.2999248699998134 0.4460185637518319 0.4528578407425501
0.3001116249997722 0.4430874450415241 0.4509037616023448
0.300298491999456 0.44894968246213973 0.45188080117244755
0.3004848949994994 0.44992672203224227 0.4479726428920372
0.3006717429998389 0.44699560332193444 0.4430874450415241
0.3008654049999677 0.44406448461162684 0.441133365901319
0.30105362299946137 0.441133365901319 0.43917928676111373
0.3012433969997801 0.4430874450415241 0.4323400097703958
0.30143292999946425 0.44211040547142155 0.4255007327796776
0.30162046300029033 0.44211040547142155 0.41670737664875435
0.3018075330001011 0.4430874450415241 0.4108451392281387
0.30199476999951 0.44406448461162684 0.40986809965803617
0.3021815619995323 0.441133365901319 0.41670737664875435
0.3023685210000622 0.4450415241817294 0.4284318514899854
0.3025557579994711 0.4460185637518319 0.43722520762090866
0.3027426609996837 0.44992672203224227 0.4538348803126526
0.30293002700000216 0.44894968246213973 0.4665363947239862
0.3031175420001091 0.44894968246213973 0.47923790913532005
0.30330705599953944 0.4509037616023448 0.4880312652662433
0.30349403400032315 0.44894968246213973 0.495847581827064
0.3036811960000705 0.4509037616023448 0.5017098192476794
0.30386821100000816 0.44894968246213973 0.5065950170981925
0.30405504000009387 0.44992672203224227 0.512457254518808
0.30424218400003156 0.44992672203224227 0.512457254518808
0.3044291799997154 0.44992672203224227 0.5134342940889105
0.3046153610002875 0.4528578407425501 0.5105031753786029
0.30480174599961174 0.4479726428920372 0.5105031753786029
0.30499555699952907 0.44894968246213973 0.5026868588177822
0.30518627499986906 0.4528578407425501 0.5046409379579873
0.3053766410002936 0.4528578407425501 0.5065950170981925
0.30556630399951246 0.4538348803126526 0.5056179775280898
0.3057591139995566 0.45188080117244755 0.5056179775280898
0.3059488139997484 0.4538348803126526 0.49975574010747437
0.3061385880000671 0.4528578407425501 0.4851001465559355
0.30633076899994194 0.4557889594528579 0.4704445530043966
0.3065573009998843 0.4538348803126526 0.45188080117244755
0.306756852000035 0.4509037616023448 0.441133365901319
0.30695249600012176 0.4557889594528579 0.4264777723497801
0.30714302900014445 0.4557889594528579 0.4206155349291647
0.30733317300018825 0.45969711773326827 0.41670737664875435
0.3075233350000417 0.4606741573033708 0.4108451392281387
0.3077134980003393 0.4538348803126526 0.40205178309721545
0.3079083089996857 0.45481191988275516 0.3932584269662922
0.3080983970003217 0.45676599902296044 0.38153395212506114
0.30828889300028095 0.45676599902296044 0.37176355642403514
0.30847903700032475 0.46165119687347334 0.3659013190034197
0.3086693479999667 0.45481191988275516 0.3610161211529066
0.30886841699975776 0.45969711773326827 0.35710796287249624
0.3090594320001401 0.4587200781631655 0.36003908158280407
0.3092567980002059 0.457743038593063 0.3639472398632144
0.30944834899946727 0.4538348803126526 0.37274059599413767
0.309681085000193 0.45481191988275516 0.38153395212506114
0.3098818959997516 0.4528578407425501 0.39716658524670256
0.3100800949996483 0.45481191988275516 0.41475329750854906
0.31034236699997564 0.45188080117244755 0.4528578407425501
0.3105750469994746 0.45188080117244755 0.486077186126038
0.3108068009996714 0.45481191988275516 0.5114802149487054
0.3110131299999921 0.4557889594528579 0.533952125061065
0.3112520510003378 0.45481191988275516 0.5486077186126037
0.31148532399947726 0.45676599902296044 0.5515388373229115
0.31168487499962794 0.45188080117244755 0.5427454811919883
0.31194625799980713 0.4509037616023448 0.522227650219834
0.3121842900000047 0.45188080117244755 0.5017098192476794
0.31242348900013894 0.4460185637518319 0.48412310698583294
0.31262603999948624 0.4479726428920372 0.4636052760136786
0.31282527599978494 0.44699560332193444 0.4479726428920372
0.3130676040000253 0.4479726428920372 0.43917928676111373
0.3133084700002655 0.44211040547142155 0.4323400097703958
0.31351240999993024 0.441133365901319 0.43722520762090866
0.3137388679997457 0.441133365901319 0.42940889106008795
0.31394943699979194 0.43917928676111373 0.4323400097703958
0.314195598999504 0.43722520762090866 0.4264777723497801
0.3144272600002296 0.43624816805080613 0.42159257449926724
0.3146485699999175 0.4382022471910112 0.4235466536394723
0.31488636099948053 0.4352711284807034 0.42159257449926724
0.31510141200033104 0.43917928676111373 0.4255007327796776
0.3153059630003554 0.4382022471910112 0.4323400097703958
0.3155299769996418 0.441133365901319 0.43429408891060084
0.31572836200029997 0.441133365901319 0.44211040547142155
0.3159242459996676 0.4460185637518319 0.44992672203224227
0.316115186999923 0.4450415241817294 0.457743038593063
0.3163203670001167 0.4460185637518319 0.4636052760136786
0.31658078799955547 0.4450415241817294 0.4684904738641915
0.31687974400028907 0.4479726428920372 0.4753297508549097
0.31707885099967825 0.4479726428920372 0.47728382999511476
0.3172666800001025 0.44894968246213973 0.4831460674157304
0.3174543059994903 0.4460185637518319 0.4880312652662433
0.3176415059997453 0.44211040547142155 0.4909623839765511
0.3178294649997042 0.4460185637518319 0.4880312652662433
0.31801651600017067 0.4430874450415241 0.4811919882755251
0.31820423399949505 0.4479726428920372 0.4753297508549097
0.31839147099981346 0.44699560332193444 0.4684904738641915
0.3185788559994762 0.4460185637518319 0.4606741573033708
0.31876694400034467 0.44699560332193444 0.4606741573033708
0.31895447700026125 0.4479726428920372 0.4557889594528579
0.3191422319996491 0.4450415241817294 0.4528578407425501
0.319330061999608 0.44699560332193444 0.44894968246213973
0.31951722400026483 0.44699560332193444 0.4450415241817294
0.319709108999632 0.4479726428920372 0.4479726428920372
0.319896437999887 0.4460185637518319 0.4479726428920372
0.32008428599965555 0.4450415241817294 0.44992672203224227
0.3202719860000798 0.4460185637518319 0.4509037616023448
0.3204591479998271 0.4450415241817294 0.4538348803126526
0.3206471630001033 0.4450415241817294 0.4538348803126526
0.3208436220002113 0.44406448461162684 0.4587200781631655
0.32103189499957807 0.44211040547142155 0.4557889594528579
0.32121935400027724 0.44406448461162684 0.457743038593063
0.3214066649998131 0.4450415241817294 0.4606741573033708
0.3215938829998777 0.4450415241817294 0.46165119687347334
0.32178115700025955 0.4460185637518319 0.46262823644357587
0.3219681339996896 0.4479726428920372 0.46262823644357587
0.3221555749996696 0.44992672203224227 0.4655593551538837
0.3223434969995651 0.45188080117244755 0.467513434294089
0.32253101100013737 0.4538348803126526 0.4665363947239862
0.3227179329996943 0.4538348803126526 0.4733756717147044
0.32294659499984846 0.44992672203224227 0.47239863214460187
0.3231376280000404 0.4509037616023448 0.47142159257449934
0.3233259749995341 0.44992672203224227 0.4684904738641915
0.3235128420001274 0.4479726428920372 0.4665363947239862
0.32370104100027675 0.4460185637518319 0.4606741573033708
0.3238948700000037 0.44699560332193444 0.45969711773326827
0.32408173699968756 0.44406448461162684 0.4557889594528579
0.3242693069996676 0.4450415241817294 0.4538348803126526
0.32445708100021875 0.44894968246213973 0.4509037616023448
0.3246440579996488 0.45188080117244755 0.4509037616023448
0.3248383689997354 0.4479726428920372 0.4509037616023448
0.32502964200011775 0.44699560332193444 0.45188080117244755
0.3252213229998233 0.45188080117244755 0.4509037616023448
0.32540930100003607 0.44699560332193444 0.45481191988275516
0.32559624100031215 0.44699560332193444 0.45481191988275516
0.3257838849995096 0.4460185637518319 0.457743038593063
0.3259711029995742 0.4450415241817294 0.4557889594528579
0.3261803579998741 0.44992672203224227 0.4528578407425501
0.32636774299953686 0.44992672203224227 0.44992672203224227
0.3265545539998129 0.4528578407425501 0.4538348803126526
0.3267414199999621 0.44992672203224227 0.457743038593063
0.32692874900021707 0.45188080117244755 0.4557889594528579
0.3271159300002182 0.4538348803126526 0.4528578407425501
0.32730350000019826 0.45188080117244755 0.4509037616023448
0.32749210800011497 0.4538348803126526 0.44894968246213973
0.3276799180002854 0.4528578407425501 0.4479726428920372
0.3278673400000116 0.44992672203224227 0.4460185637518319
0.3280621510002675 0.45188080117244755 0.44406448461162684
0.3282659429996784 0.44699560332193444 0.441133365901319
0.328468327000337 0.4479726428920372 0.4430874450415241
0.32866922999983217 0.4538348803126526 0.4430874450415241
0.32888731799994275 0.4509037616023448 0.44211040547142155
0.3290795180000714 0.4528578407425501 0.44211040547142155
0.3292664769996918 0.44992672203224227 0.44406448461162684
0.32945371299956605 0.44992672203224227 0.44406448461162684
0.32964061700022285 0.44992672203224227 0.44211040547142155
0.32982724199973745 0.44894968246213973 0.4430874450415241
0.33001433099980204 0.44894968246213973 0.4450415241817294
0.3302016420002474 0.44992672203224227 0.44992672203224227
0.3303908230000161 0.44894968246213973 0.4606741573033708
0.3305782449997423 0.4479726428920372 0.45969711773326827
0.33076514799995493 0.44894968246213973 0.46262823644357587
0.33095868100008374 0.44894968246213973 0.46458231558378116
0.3311453619999156 0.4460185637518319 0.46262823644357587
0.3313321169998744 0.44699560332193444 0.4665363947239862
0.33151820599960047 0.4430874450415241 0.4606741573033708
0.33170551599960163 0.44992672203224227 0.4557889594528579
0.33189314199989894 0.4460185637518319 0.4538348803126526
0.33212182199986273 0.44699560332193444 0.4538348803126526
0.33231061399965256 0.4479726428920372 0.45188080117244755
0.33249744400018244 0.4460185637518319 0.45188080117244755
0.33268381000016234 0.4479726428920372 0.4557889594528579
0.33288015800008 0.4460185637518319 0.4509037616023448
0.33307243099989137 0.4460185637518319 0.44894968246213973
0.3332589639994694 0.44699560332193444 0.4450415241817294
0.33344596000006277 0.4430874450415241 0.4352711284807034
0.33363341899985244 0.44211040547142155 0.4284318514899854
0.3338206190001074 0.43917928676111373 0.40693698094772834
0.33400739300032 0.44211040547142155 0.3952125061064973
0.3341941480002788 0.4401563263312165 0.38153395212506114
0.33438249600021663 0.4401563263312165 0.3678553981436248
0.3345709730001545 0.44406448461162684 0.36199316072300936
0.3347581540001556 0.441133365901319 0.35710796287249624
0.3349601130003066 0.44211040547142155 0.358085002442599
0.3351473120001174 0.44211040547142155 0.3561309233023937
0.3353340120002031 0.44211040547142155 0.3659013190034197
0.3355221009996967 0.4450415241817294 0.3629702002931119
0.33570946700001514 0.4450415241817294 0.3610161211529066
0.33589722200031247 0.44699560332193444 0.34929164631167553
0.33608534799986955 0.44406448461162684 0.34440644846116264
0.336272270000336 0.4460185637518319 0.33756717147044446
0.33645978399999876 0.4430874450415241 0.3277967757694187
0.33664648400008446 0.4430874450415241 0.3209574987787005
0.33684714599985455 0.44406448461162684 0.3160723009281876
0.3370403640001314 0.44992672203224227 0.3141182217879823
0.33723478599949885 0.45188080117244755 0.31998045920859797
0.3374261890003254 0.45676599902296044 0.32975085490962375
0.3376168699996924 0.4587200781631655 0.3531998045920859
0.33780729199952475 0.4587200781631655 0.376648754274548
0.33799743599956855 0.4587200781631655 0.41670737664875435
0.33818730199982383 0.45969711773326827 0.44406448461162684
0.3383780759995716 0.4606741573033708 0.47728382999511476
0.3385686639994674 0.46458231558378116 0.5163654127992183
0.33875853100016684 0.47435271128480694 0.5476306790425012
0.3389501379997455 0.46262823644357587 0.5661944308744504
0.3391421520000222 0.467513434294089 0.58866634098681
0.3393349070001932 0.4684904738641915 0.6101612115290669
0.339525921999666 0.46262823644357587 0.6257938446507083
0.33971582499998476 0.46262823644357587 0.643380556912555
0.3399085430000923 0.46165119687347334 0.6482657547630679
0.3401090759998624 0.457743038593063 0.6365412799218368
0.3403127189994848 0.45969711773326827 0.6160234489496825
0.34051245599948743 0.45676599902296044 0.595505617977528
0.3407036369999332 0.45676599902296044 0.5730337078651686
0.34089602199946967 0.4528578407425501 0.5544699560332194
0.34108886899957724 0.44894968246213973 0.5310210063507572
0.34127921700019215 0.44992672203224227 0.5153883732291158
0.34146975000021484 0.44992672203224227 0.4978016609672691
0.3416603010000472 0.4479726428920372 0.48216902784562765
0.34185575999981666 0.44894968246213973 0.4655593551538837
0.3420471079998606 0.4528578407425501 0.4557889594528579
0.34223682599986205 0.44894968246213973 0.44699560332193444
0.34242637700026535 0.44992672203224227 0.4401563263312165
0.34261644700018223 0.45188080117244755 0.4352711284807034
0.342818590999741 0.44992672203224227 0.43722520762090866
0.3430204389997016 0.4557889594528579 0.4401563263312165
0.3432175269999789 0.4538348803126526 0.44699560332193444
0.34341539300021395 0.4538348803126526 0.44894968246213973
0.3436180549997516 0.4509037616023448 0.45188080117244755
0.34389267899950937 0.4538348803126526 0.4479726428920372
0.3440897299997232 0.4538348803126526 0.44211040547142155
0.34429876299964235 0.45188080117244755 0.4352711284807034
0.3444954249998773 0.4538348803126526 0.4323400097703958
0.34469401400019706 0.45481191988275516 0.4255007327796776
0.3449190270002873 0.4538348803126526 0.41963849535906195
0.3451370599996153 0.4528578407425501 0.42256961406936977
0.3453489069997886 0.45481191988275516 0.4264777723497801
0.3455632909999622 0.4557889594528579 0.43429408891060084
0.34583232200020575 0.45969711773326827 0.4430874450415241
0.3461018719999629 0.457743038593063 0.4557889594528579
0.34635725499992986 0.45481191988275516 0.4665363947239862
0.3466580269996484 0.4528578407425501 0.47239863214460187
0.34690863200012245 0.4557889594528579 0.47435271128480694
0.34718784899996535 0.4606741573033708 0.48412310698583294
0.3474413430003551 0.45969711773326827 0.486077186126038
0.34763872799976525 0.45481191988275516 0.486077186126038
0.3478429269998742 0.4557889594528579 0.48705422569614076
0.3480519220001952 0.4538348803126526 0.4782608695652173
0.34823938099998486 0.4509037616023448 0.47435271128480694
0.3484273590001976 0.45188080117244755 0.47239863214460187
0.34861466999973345 0.44992672203224227 0.46946751343429405
0.3489814579997983 0.45188080117244755 0.47142159257449934
0.34925502599980973 0.44699560332193444 0.4763067904250122
0.3495022979996065 0.4460185637518319 0.47435271128480694
0.3497237749998021 0.4460185637518319 0.46946751343429405
0.3499580480001896 0.44992672203224227 0.467513434294089
0.35019107999960397 0.4587200781631655 0.46165119687347334
0.3504199270000754 0.4557889594528579 0.4509037616023448
0.3506279960001848 0.457743038593063 0.4401563263312165
0.3508231030000388 0.45969711773326827 0.4255007327796776
0.3510172659998716 0.45676599902296044 0.4137762579384465
0.3512144280002758 0.45969711773326827 0.4049829018075233
0.3515091809995283 0.4606741573033708 0.3903273082559844
0.35173926900006336 0.4636052760136786 0.38446507083536874
0.3519390419996853 0.46165119687347334 0.376648754274548
0.35213274200032174 0.46165119687347334 0.37274059599413767
0.35232058899964613 0.46262823644357587 0.3688324377137273
0.35250989999985904 0.4587200781631655 0.36492427943331696
0.35269830299967 0.4606741573033708 0.35906204201270153
0.3528915400002006 0.4587200781631655 0.34929164631167553
0.35308072099996934 0.45481191988275516 0.35222276502198335
0.3532701989997804 0.457743038593063 0.35222276502198335
0.3534579719998874 0.45676599902296044 0.35417684416218864
0.35364628299976175 0.457743038593063 0.3678553981436248
0.3538335379998898 0.45969711773326827 0.3756717147044455
0.3540207930000179 0.45969711773326827 0.39423546653639474
0.35420812299980753 0.45676599902296044 0.412799218368344
0.3543961189998299 0.457743038593063 0.43624816805080613
0.3545835590002753 0.4538348803126526 0.4557889594528579
0.3547717589999593 0.45481191988275516 0.4811919882755251
0.3549589770000239 0.45969711773326827 0.49877870053737183
0.3551451769999403 0.4587200781631655 0.5095261358085001
0.3553321720000895 0.45676599902296044 0.5183194919394236
0.3555195389999426 0.4606741573033708 0.522227650219834
0.3557080529999439 0.45969711773326827 0.5261358085002443
0.35589538299973356 0.4606741573033708 0.5261358085002443
0.3560823790003269 0.4606741573033708 0.5300439667806547
0.35626870800024335 0.45969711773326827 0.5212506106497312
0.35645735199977935 0.4587200781631655 0.5085490962383976
0.35664431100030924 0.4557889594528579 0.49682462139716654
0.35684739899988926 0.457743038593063 0.48705422569614076
0.35703648799972143 0.4528578407425501 0.48412310698583294
0.35722357600025134 0.4557889594528579 0.47239863214460187
0.35741138699995645 0.4538348803126526 0.46946751343429405
0.3576023460000215 0.4538348803126526 0.4684904738641915
0.3578270629996041 0.4557889594528579 0.46946751343429405
0.35801763299969025 0.45481191988275516 0.46262823644357587
0.3582059990003472 0.4538348803126526 0.46165119687347334
0.3583971250000104 0.44992672203224227 0.45481191988275516
0.35859067599994887 0.44992672203224227 0.4479726428920372
0.35877815399999236 0.44699560332193444 0.44699560332193444
0.3589657049997186 0.44699560332193444 0.4333170493404983
0.3591528679999101 0.44699560332193444 0.431362970200293
0.3593482710002718 0.44992672203224227 0.4284318514899854
0.35953508199963835 0.44992672203224227 0.42745481191988266
0.35972287399999914 0.44992672203224227 0.42940889106008795
0.3599098140002752 0.44992672203224227 0.4323400097703958
0.36009645800004364 0.44992672203224227 0.4303859306301905
0.36028289899968513 0.4509037616023448 0.43429408891060084
0.3604699130000881 0.44992672203224227 0.43429408891060084
0.3606566130001738 0.4528578407425501 0.4333170493404983
0.3608748300002844 0.4538348803126526 0.43624816805080613
0.36107358499975817 0.4509037616023448 0.43917928676111373
0.3612813959998675 0.4509037616023448 0.441133365901319
0.361485114000061 0.4538348803126526 0.441133365901319
0.3616852759996618 0.45188080117244755 0.4382022471910112
0.3618863270003203 0.45188080117244755 0.43429408891060084
0.3620870449994982 0.44894968246213973 0.43429408891060084
0.36227939299988066 0.45676599902296044 0.4401563263312165
0.36246933300026285 0.4528578407425501 0.44406448461162684
0.3626597550000952 0.44992672203224227 0.44894968246213973
0.3628499540000121 0.45188080117244755 0.4587200781631655
0.3630402099997809 0.45188080117244755 0.467513434294089
0.3632314280002902 0.44894968246213973 0.46946751343429405
0.3634215350002705 0.4538348803126526 0.4753297508549097
0.36361293800018757 0.45188080117244755 0.4704445530043966
0.3638035080002737 0.4509037616023448 0.47142159257449934
0.3639960219998102 0.4528578407425501 0.47142159257449934
0.36418614800004434 0.4509037616023448 0.4753297508549097
0.36437921800006734 0.4528578407425501 0.4811919882755251
0.3645694540000477 0.4528578407425501 0.4811919882755251
0.36475950600015494 0.4538348803126526 0.48705422569614076
0.36496733500007394 0.45481191988275516 0.486077186126038
0.3651578310000332 0.4538348803126526 0.48412310698583294
0.36534884499997133 0.4538348803126526 0.4831460674157304
0.3655388959996344 0.44894968246213973 0.4811919882755251
0.3657362439998906 0.4538348803126526 0.4763067904250122
0.3659278879995327 0.45481191988275516 0.4704445530043966
0.36615621599958104 0.45969711773326827 0.4636052760136786
0.366347563999625 0.45481191988275516 0.4636052760136786
0.3665377079996688 0.45676599902296044 0.4606741573033708
0.36672866699973383 0.4587200781631655 0.4636052760136786
0.36691940400032763 0.4587200781631655 0.47142159257449934
0.36710993599990616 0.4587200781631655 0.4763067904250122
0.36730054300005577 0.4665363947239862 0.4909623839765511
0.3674915390001843 0.4587200781631655 0.49877870053737183
0.3676833130002706 0.45969711773326827 0.5036638983878847
0.36788280899963866 0.4557889594528579 0.5046409379579873
0.3680848599997262 0.457743038593063 0.5046409379579873
0.3682866330000252 0.45676599902296044 0.49877870053737183
0.3684767220001959 0.45481191988275516 0.4938935026868587
0.36866749499949947 0.4557889594528579 0.48998534440644836
0.36887051000030624 0.4538348803126526 0.48216902784562765
0.3690601540001808 0.45481191988275516 0.4811919882755251
0.3692505010003515 0.4509037616023448 0.47728382999511476
0.3694427190002898 0.4538348803126526 0.4733756717147044
0.3696334559999741 0.44894968246213973 0.46262823644357587
0.3698255999997855 0.44992672203224227 0.457743038593063
0.37001565099944855 0.4509037616023448 0.4528578407425501
0.37020594400019036 0.44992672203224227 0.44894968246213973
0.3703963839998323 0.44699560332193444 0.441133365901319
0.37058595399957994 0.44699560332193444 0.441133365901319
0.3707759500002794 0.44699560332193444 0.4450415241817294
0.37096605700025975 0.44992672203224227 0.44406448461162684
0.37115553399962664 0.44992672203224227 0.4460185637518319
0.3713459000000512 0.45188080117244755 0.44992672203224227
0.3715361929998835 0.45188080117244755 0.44406448461162684
0.3717257440002868 0.45676599902296044 0.4382022471910112
0.37191649899978074 0.45188080117244755 0.431362970200293
0.37210677300026873 0.45188080117244755 0.42452369320957506
0.372301657999742 0.4509037616023448 0.41670737664875435
0.372492505000082 0.44992672203224227 0.40986809965803617
0.37268255700018926 0.46165119687347334 0.4049829018075233
0.3728731270002754 0.45188080117244755 0.40009770395701016
0.37306347399953665 0.4528578407425501 0.39912066438690763
0.37327039599949785 0.4509037616023448 0.3961895456765998
0.37346287299988035 0.4557889594528579 0.39912066438690763
0.3736529799998607 0.45188080117244755 0.403028822667318
0.37384308699984103 0.45481191988275516 0.40889106008793363
0.37403963900032977 0.4528578407425501 0.412799218368344
0.37423946800026897 0.45481191988275516 0.4137762579384465
0.3744304080000802 0.45481191988275516 0.4108451392281387
0.3746212739997645 0.45481191988275516 0.40693698094772834
0.37481371400008356 0.4538348803126526 0.40693698094772834
0.37500437699964095 0.45481191988275516 0.4049829018075233
0.3751941689997693 0.4538348803126526 0.4049829018075233
0.3753843690001304 0.4509037616023448 0.40889106008793363
0.37557455000023765 0.44894968246213973 0.40986809965803617
0.37576456399983726 0.44894968246213973 0.412799218368344
0.3759557269995639 0.44699560332193444 0.41670737664875435
0.37615348199960863 0.44894968246213973 0.4186614557889594
0.37635214399961114 0.45188080117244755 0.4176844162188569
0.3765475840000363 0.44699560332193444 0.4206155349291647
0.3767749870003172 0.44699560332193444 0.41963849535906195
0.37704088899954513 0.45188080117244755 0.41963849535906195
0.37724203200014017 0.45188080117244755 0.41475329750854906
0.377442787000291 0.45188080117244755 0.412799218368344
0.37764076399980695 0.44992672203224227 0.4157303370786516
0.37788655500025925 0.4509037616023448 0.4284318514899854
0.378150124000058 0.4538348803126526 0.4528578407425501
0.3784184139994977 0.45188080117244755 0.4753297508549097
0.3786919450003552 0.4538348803126526 0.4880312652662433
0.37892997699964326 0.45188080117244755 0.5017098192476794
0.37920047199986584 0.44992672203224227 0.5095261358085001
0.37943015200016816 0.44992672203224227 0.5173424523693209
0.37967207200017583 0.4509037616023448 0.5114802149487054
0.3799126969997815 0.4528578407425501 0.4978016609672691
0.38011335899955156 0.44894968246213973 0.4782608695652173
0.38030213299953175 0.44992672203224227 0.4557889594528579
0.38049124000008305 0.44992672203224227 0.4323400097703958
0.38067838400002074 0.4479726428920372 0.40986809965803617
0.38090187899979355 0.44894968246213973 0.39228138739618945
0.3810892829997101 0.44699560332193444 0.3776257938446508
0.38127768599952105 0.44992672203224227 0.37176355642403514
0.381466052000178 0.4460185637518319 0.3639472398632144
0.3816534369998408 0.44699560332193444 0.3639472398632144
0.38184078500034957 0.44699560332193444 0.3688324377137273
0.3820287990001816 0.4460185637518319 0.37469467513434296
0.382216795000204 0.44992672203224227 0.37957987298485585
0.38240392100033205 0.44699560332193444 0.38153395212506114
0.38259124999967753 0.44894968246213973 0.3883732291157791
0.3827790979994461 0.4460185637518319 0.3903273082559844
0.3829990750000434 0.45188080117244755 0.3961895456765998
0.3831881999994948 0.44992672203224227 0.39912066438690763
0.3833752889995594 0.4528578407425501 0.412799218368344
0.3835633589997087 0.4509037616023448 0.41963849535906195
0.38375013299992133 0.4606741573033708 0.43917928676111373
0.38393814699975337 0.457743038593063 0.4636052760136786
0.3841262349997123 0.45969711773326827 0.4909623839765511
0.3843134540002211 0.4587200781631655 0.524181729360039
0.3845003939995877 0.46262823644357587 0.5437225207620908
0.3846875379995254 0.45969711773326827 0.5652173913043479
0.38487721899946337 0.457743038593063 0.5759648265754762
0.38507054799993057 0.457743038593063 0.58866634098681
0.38528174800012494 0.4587200781631655 0.5867122618466047
0.3855152240003008 0.457743038593063 0.5818270639960919
0.3857509409999693 0.45481191988275516 0.5759648265754762
0.3859651399998256 0.457743038593063 0.5642403517342451
0.38623850499971013 0.457743038593063 0.5574010747435272
0.38647194399982254 0.457743038593063 0.5466536394723986
0.3866787730003125 0.457743038593063 0.5378602833414754
0.38688206499955413 0.45676599902296044 0.524181729360039
0.3870777829997678 0.4557889594528579 0.5114802149487054
0.38727679699968576 0.4528578407425501 0.4978016609672691
0.3874699600000895 0.45481191988275516 0.4851001465559355
0.3876638629999434 0.45481191988275516 0.47728382999511476
0.38786380300007295 0.457743038593063 0.4733756717147044
0.3880620950003504 0.45481191988275516 0.4665363947239862
0.38827646099980484 0.45676599902296044 0.467513434294089
0.3884817709995332 0.4528578407425501 0.467513434294089
0.38871048799956043 0.4538348803126526 0.4557889594528579
0.3889806489996772 0.4538348803126526 0.45188080117244755
0.3891860519997863 0.45188080117244755 0.45188080117244755
0.38938423299987335 0.4538348803126526 0.45481191988275516
0.3895800809996217 0.4528578407425501 0.4538348803126526
0.3897888720002811 0.45188080117244755 0.4509037616023448
0.3900151640000331 0.44894968246213973 0.45188080117244755
0.39022169599957124 0.4528578407425501 0.44992672203224227
0.3904136549999748 0.4538348803126526 0.4450415241817294
0.3906016880000607 0.4509037616023448 0.44406448461162684
0.3907886099996176 0.44992672203224227 0.4401563263312165
0.39097636499991495 0.4509037616023448 0.4323400097703958
0.3911633059997257 0.4538348803126526 0.4235466536394723
0.3913516719994732 0.44894968246213973 0.42159257449926724
0.39154109399987647 0.44894968246213973 0.40986809965803617
0.39175429300030373 0.44894968246213973 0.40693698094772834
0.39194190000034723 0.44894968246213973 0.403028822667318
0.39213183999981993 0.4450415241817294 0.403028822667318
0.3923188549997576 0.4430874450415241 0.4010747435271129
0.39250686899958964 0.4460185637518319 0.4049829018075233
0.3926986799997394 0.4430874450415241 0.4108451392281387
0.3928935280000587 0.4430874450415241 0.4186614557889594
0.3930848009995316 0.44406448461162684 0.4255007327796776
0.39327487099944847 0.4460185637518319 0.4382022471910112
0.39346327499970357 0.44894968246213973 0.44699560332193444
0.39365158500004327 0.4509037616023448 0.46262823644357587
0.3938399520002349 0.4509037616023448 0.4704445530043966
0.39402872499977093 0.45188080117244755 0.47923790913532005
0.3942175359998146 0.45969711773326827 0.49193942354665365
0.39440688400009094 0.45676599902296044 0.5007327796775769
0.3945950460001768 0.4528578407425501 0.5046409379579873
0.394783226999607 0.45481191988275516 0.5114802149487054
0.3949703159996716 0.44992672203224227 0.5114802149487054
0.3951588489999267 0.4479726428920372 0.5065950170981925
0.39534701199954725 0.44699560332193444 0.4909623839765511
0.39553648899982363 0.4450415241817294 0.47728382999511476
0.39573781800027064 0.4460185637518319 0.46458231558378116
0.39593283199974394 0.4430874450415241 0.4509037616023448
0.39612942100029613 0.4430874450415241 0.44406448461162684
0.3963267310000447 0.44406448461162684 0.431362970200293
0.3965157829998134 0.4430874450415241 0.42452369320957506
0.39670714899966697 0.4401563263312165 0.40693698094772834
0.39689618200009136 0.43917928676111373 0.3903273082559844
0.39708351100034633 0.43722520762090866 0.38251099169516367
0.397270655000284 0.441133365901319 0.37176355642403514
0.3974596699999893 0.4509037616023448 0.36980947728383007
0.39764766600001167 0.4450415241817294 0.3737176355642404
0.3978344389997801 0.4460185637518319 0.38251099169516367
0.39802169500035234 0.4460185637518319 0.39423546653639474
0.39820833900012076 0.4479726428920372 0.403028822667318
0.3983953719998681 0.44992672203224227 0.4137762579384465
0.3985819600002287 0.4479726428920372 0.42159257449926724
0.39879117799955566 0.44992672203224227 0.4303859306301905
0.39897756299978937 0.44699560332193444 0.4382022471910112
0.39916450300006545 0.44699560332193444 0.44699560332193444
0.39935138799955894 0.4509037616023448 0.4557889594528579
0.3995387730001312 0.44699560332193444 0.4636052760136786
0.39972630600004777 0.44699560332193444 0.46946751343429405
0.39992520899977535 0.4509037616023448 0.47435271128480694
0.4001140009995652 0.44992672203224227 0.47923790913532005
0.40030153399948176 0.44992672203224227 0.4831460674157304
0.40048849300001166 0.44992672203224227 0.48900830483634583
0.4006779330002246 0.45188080117244755 0.4880312652662433
0.40087442899948655 0.4479726428920372 0.4880312652662433
0.40106320299946674 0.45188080117244755 0.4880312652662433
0.4012501799998063 0.44992672203224227 0.48705422569614076
0.4014377869998498 0.44992672203224227 0.4851001465559355
0.4016248389998509 0.4460185637518319 0.4811919882755251
0.40181220500016934 0.44992672203224227 0.48216902784562765
0.40199877499981085 0.4460185637518319 0.4811919882755251
0.4021856419994947 0.44406448461162684 0.4802149487054226
0.4023732489995382 0.44406448461162684 0.47923790913532005
0.40256089299964515 0.44406448461162684 0.47728382999511476
0.40274849999968865 0.4430874450415241 0.4782608695652173
0.40293551400009164 0.4509037616023448 0.4733756717147044
0.4031226209999659 0.4430874450415241 0.4665363947239862
0.4033100429996921 0.4450415241817294 0.467513434294089
0.40349737299948174 0.4430874450415241 0.46262823644357587
0.40368418300022313 0.4450415241817294 0.45969711773326827
0.40387141999963205 0.44406448461162684 0.46262823644357587
0.404059063999739 0.4430874450415241 0.46262823644357587
0.40424600499954977 0.44211040547142155 0.467513434294089
0.4044329629996355 0.4479726428920372 0.4733756717147044
0.40462003299944627 0.44406448461162684 0.4753297508549097
0.4048068069996589 0.44406448461162684 0.47435271128480694
0.4050019329997667 0.4460185637518319 0.4665363947239862
0.4051933729997472 0.4479726428920372 0.4655593551538837
0.40538442399974883 0.4460185637518319 0.46262823644357587
0.4055741049996868 0.4460185637518319 0.45969711773326827
0.4057643240003017 0.44894968246213973 0.46165119687347334
0.40595365300032427 0.4538348803126526 0.45969711773326827
0.4061436120000508 0.4509037616023448 0.4606741573033708
0.40633423700001003 0.4528578407425501 0.46165119687347334
0.4065241589996731 0.45969711773326827 0.46262823644357587
0.40671408100024564 0.45481191988275516 0.467513434294089
0.4069090029997824 0.4557889594528579 0.46458231558378116
0.40730023499963863 0.4557889594528579 0.45676599902296044
0.40754930399998557 0.45481191988275516 0.4528578407425501
0.40774691000024177 0.4538348803126526 0.45188080117244755
0.40793809099977807 0.4538348803126526 0.44699560332193444
0.40816493799957243 0.457743038593063 0.4460185637518319
0.4083572859999549 0.45676599902296044 0.44211040547142155
0.40854874500018923 0.457743038593063 0.4264777723497801
0.40874151899970457 0.45969711773326827 0.4176844162188569
0.40895927299970936 0.4606741573033708 0.4059599413776258
0.40915071299968986 0.45969711773326827 0.3961895456765998
0.4093433759999243 0.4587200781631655 0.38935026868588185
0.40953377899950283 0.45969711773326827 0.38446507083536874
0.40972401599992736 0.4587200781631655 0.38153395212506114
0.4099137339999288 0.457743038593063 0.3786028334147533
0.41010410000035336 0.45969711773326827 0.38641914997557403
0.4102949289999742 0.457743038593063 0.38251099169516367
0.4104920919999131 0.4557889594528579 0.3854421104054715
0.4106828839994705 0.4538348803126526 0.39228138739618945
0.41087637999953586 0.4528578407425501 0.39912066438690763
0.41106802400008746 0.4528578407425501 0.40009770395701016
0.41126775999964593 0.44894968246213973 0.4059599413776258
0.4114589780001552 0.45188080117244755 0.4079140205178309
0.41164915900026244 0.4509037616023448 0.4108451392281387
0.4118397290003486 0.44894968246213973 0.41670737664875435
0.4120299469996098 0.4528578407425501 0.4206155349291647
0.4122200359997805 0.45188080117244755 0.42159257449926724
0.4124104390002685 0.4538348803126526 0.4284318514899854
0.4126021390002279 0.4528578407425501 0.4382022471910112
0.4127920049995737 0.4538348803126526 0.44894968246213973
0.41298409399951197 0.45188080117244755 0.4538348803126526
0.4131738489995769 0.4509037616023448 0.4587200781631655
0.41336391899949376 0.4528578407425501 0.46458231558378116
0.41355332199964323 0.45188080117244755 0.4684904738641915
0.4137435220000043 0.4528578407425501 0.4763067904250122
0.41393257300023834 0.4509037616023448 0.4704445530043966
0.4141216429998167 0.4528578407425501 0.4704445530043966
0.4143106199999238 0.44992672203224227 0.47142159257449934
0.4145020790001581 0.44699560332193444 0.4704445530043966
0.41469148299984226 0.44992672203224227 0.46458231558378116
0.4148807379997379 0.44894968246213973 0.457743038593063
0.4150722889999088 0.44894968246213973 0.4538348803126526
0.41526143299961404 0.4479726428920372 0.44992672203224227
0.4154510219996155 0.4479726428920372 0.4753297508549097
0.4163662800001475 0.4450415241817294 0.48216902784562765
0.4165649790002135 0.44211040547142155 0.49193942354665365
0.41675971600034245 0.44406448461162684 0.49975574010747437
0.41698450700005196 0.44406448461162684 0.5017098192476794
0.417188188000182 0.4430874450415241 0.5017098192476794
0.4173800910002683 0.45188080117244755 0.4948705422569615
0.4175719940003546 0.4479726428920372 0.48900830483634583
0.41776326800027164 0.4460185637518319 0.4851001465559355
