0 0.457743038593063 0.46165119687347334
0.00032908499997574836 0.45969711773326827 0.4587200781631655
0.0005382100007409463 0.457743038593063 0.45969711773326827
0.0007396870005322853 0.457743038593063 0.4587200781631655
0.0009578480003256118 0.457743038593063 0.457743038593063
0.0011698060006892774 0.4557889594528579 0.45676599902296044
0.0013710610000998713 0.4538348803126526 0.45481191988275516
0.001563149000503472 0.4538348803126526 0.4557889594528579
0.0017550890006532427 0.4528578407425501 0.45188080117244755
0.0019461960000626277 0.4538348803126526 0.44894968246213973
0.0021374690004449803 0.4528578407425501 0.44699560332193444
0.002326464999896416 0.45481191988275516 0.4450415241817294
0.0025147200003630132 0.4538348803126526 0.4460185637518319
0.0027022710000892403 0.4557889594528579 0.4460185637518319
0.0028985260005356395 0.45676599902296044 0.4430874450415241
0.003092558999924222 0.4538348803126526 0.4430874450415241
0.003282962000412226 0.457743038593063 0.4401563263312165
0.003474309000011999 0.45676599902296044 0.44406448461162684
0.0036620830005631433 0.4557889594528579 0.44211040547142155
0.0038502080005855532 0.45481191988275516 0.44211040547142155
0.0040438519999952405 0.4587200781631655 0.4401563263312165
0.0042514390006545 0.45481191988275516 0.43624816805080613
0.0044551750006576185 0.45676599902296044 0.43429408891060084
0.00469987399992533 0.4528578407425501 0.4323400097703958
0.004909535000479082 0.4528578407425501 0.4323400097703958
0.005105642000671651 0.44894968246213973 0.4303859306301905
0.0053021190005893 0.4479726428920372 0.4323400097703958
0.005501874000401585 0.44699560332193444 0.4284318514899854
0.005697831999896152 0.44894968246213973 0.42256961406936977
0.005892846000278951 0.44992672203224227 0.4206155349291647
0.006092192999858526 0.44992672203224227 0.4186614557889594
0.0062915960006648675 0.44894968246213973 0.41670737664875435
0.00648803600051906 0.44992672203224227 0.41670737664875435
0.006716438000694325 0.44992672203224227 0.41182217879824123
0.006938581000213162 0.44992672203224227 0.412799218368344
0.007149669000682479 0.44992672203224227 0.4137762579384465
0.007339794000472466 0.44992672203224227 0.4157303370786516
0.007528901000114274 0.4528578407425501 0.4176844162188569
0.0077178970004752045 0.4528578407425501 0.4255007327796776
0.007906337000349595 0.44894968246213973 0.4303859306301905
0.008099758000753354 0.44699560332193444 0.43722520762090866
0.008318216000589018 0.45188080117244755 0.4382022471910112
0.008534119000614737 0.4509037616023448 0.45188080117244755
0.008734299000025203 0.44894968246213973 0.4538348803126526
0.008940998000070977 0.44894968246213973 0.457743038593063
0.009146215999862761 0.44992672203224227 0.45969711773326827
0.009368562999952701 0.4509037616023448 0.46262823644357587
0.00956761399993411 0.44894968246213973 0.4636052760136786
0.009806181999920227 0.4450415241817294 0.45969711773326827
0.009999993000747054 0.4460185637518319 0.46165119687347334
0.01019291400007205 0.4450415241817294 0.457743038593063
0.010394261000328697 0.4450415241817294 0.4587200781631655
0.010607460000755964 0.4450415241817294 0.46458231558378116
0.010834714000338863 0.44699560332193444 0.4655593551538837
0.011036617000172555 0.44992672203224227 0.4636052760136786
0.01123316800021712 0.44894968246213973 0.4606741573033708
0.01142831200013461 0.44894968246213973 0.4587200781631655
0.011639436000223213 0.4509037616023448 0.45481191988275516
0.0118645420006942 0.44894968246213973 0.45481191988275516
0.0120776300000216 0.4509037616023448 0.4479726428920372
0.012306847000218113 0.4509037616023448 0.44406448461162684
0.012602081000295584 0.44894968246213973 0.4401563263312165
0.012862408000728465 0.4479726428920372 0.43722520762090866
0.013086902999930317 0.45188080117244755 0.43722520762090866
0.013355564000448794 0.44699560332193444 0.4323400097703958
0.013598483999885502 0.44894968246213973 0.4333170493404983
0.013838775000294845 0.44894968246213973 0.43429408891060084
0.014062324999940756 0.44992672203224227 0.43429408891060084
0.014261801999964518 0.44894968246213973 0.43917928676111373
0.014463298000009672 0.45188080117244755 0.4450415241817294
0.014660200000434997 0.4509037616023448 0.4509037616023448
0.014855918000648671 0.4528578407425501 0.45969711773326827
0.015055543000016769 0.4528578407425501 0.4636052760136786
0.015258890000040992 0.4538348803126526 0.4684904738641915
0.015463923000424984 0.4557889594528579 0.4704445530043966
0.015672510000513284 0.4557889594528579 0.4704445530043966
0.01587143200049468 0.45481191988275516 0.47435271128480694
0.0160800379999273 0.4509037616023448 0.4704445530043966
0.016280737000670342 0.4538348803126526 0.46946751343429405
0.01650788000006287 0.45188080117244755 0.46946751343429405
0.016708913000002212 0.44894968246213973 0.46946751343429405
0.01690944500023761 0.44992672203224227 0.47142159257449934
0.01712725500055967 0.44894968246213973 0.4704445530043966
0.01735769400056597 0.4538348803126526 0.47239863214460187
0.01758154100025422 0.44894968246213973 0.47239863214460187
0.017813721000493388 0.4538348803126526 0.4733756717147044
0.018040511999970477 0.45188080117244755 0.47142159257449934
0.018264451000504778 0.4528578407425501 0.4684904738641915
0.01847270500002196 0.45188080117244755 0.46946751343429405
0.018669497000701085 0.4509037616023448 0.47239863214460187
0.01886956700036535 0.45481191988275516 0.47142159257449934
0.01906222900015564 0.4538348803126526 0.4753297508549097
0.019251575999987836 0.4557889594528579 0.4733756717147044
0.01944105400070839 0.45188080117244755 0.47239863214460187
0.019631011999990733 0.4509037616023448 0.4704445530043966
0.019818841000414977 0.45481191988275516 0.46946751343429405
0.020006818000183557 0.4538348803126526 0.46946751343429405
0.020194833000459766 0.4528578407425501 0.4665363947239862
0.02038297600029182 0.45481191988275516 0.457743038593063
0.020597990000169375 0.44992672203224227 0.45676599902296044
0.020786949000466848 0.44894968246213973 0.45676599902296044
0.0209750920002989 0.44699560332193444 0.46165119687347334
0.02116332900004636 0.44699560332193444 0.46262823644357587
0.02135045400063973 0.44894968246213973 0.467513434294089
0.02153778299998521 0.44992672203224227 0.4684904738641915
0.02172548300040944 0.44992672203224227 0.47142159257449934
0.021912441000495164 0.45188080117244755 0.46946751343429405
0.022099993000665563 0.45188080117244755 0.46458231558378116
0.022287802999926498 0.4538348803126526 0.467513434294089
0.02247650200024509 0.4509037616023448 0.45969711773326827
0.02266498000062711 0.4528578407425501 0.45676599902296044
0.0228907340006117 0.45481191988275516 0.4528578407425501
0.0230783960005283 0.45481191988275516 0.44894968246213973
0.023265632000402547 0.4528578407425501 0.44699560332193444
0.023453331999917282 0.4528578407425501 0.44406448461162684
0.023641753000447352 0.45188080117244755 0.44406448461162684
0.02382950800074468 0.45188080117244755 0.4401563263312165
0.024017300000195974 0.4509037616023448 0.4352711284807034
0.024205222000091453 0.4509037616023448 0.4401563263312165
0.024392940000325325 0.44894968246213973 0.4352711284807034
0.024591843000052904 0.44992672203224227 0.43429408891060084
0.024779467999906046 0.4528578407425501 0.4303859306301905
0.024967223000203376 0.45188080117244755 0.4303859306301905
0.02515623700037395 0.4528578407425501 0.4284318514899854
0.02534452899999451 0.45188080117244755 0.4284318514899854
0.025531543000397505 0.45188080117244755 0.4255007327796776
0.02571861300020828 0.4509037616023448 0.4235466536394723
0.025905924000653613 0.4460185637518319 0.4264777723497801
0.02610104900031729 0.44894968246213973 0.4255007327796776
0.026288785000360804 0.44699560332193444 0.42452369320957506
0.026476633000129368 0.44699560332193444 0.42256961406936977
0.026663906000067072 0.4509037616023448 0.4264777723497801
0.026851939000152925 0.4460185637518319 0.42745481191988266
0.02705010099998617 0.44894968246213973 0.4284318514899854
0.027237986000727687 0.44894968246213973 0.4303859306301905
0.027435463000074378 0.44992672203224227 0.4303859306301905
0.027633661999971082 0.4479726428920372 0.43624816805080613
0.02785330500046257 0.44992672203224227 0.43429408891060084
0.02806370700000116 0.4538348803126526 0.43917928676111373
0.028273036000427965 0.44992672203224227 0.43917928676111373
0.028514882000308717 0.44894968246213973 0.44699560332193444
0.028713618000438146 0.4509037616023448 0.44211040547142155
0.028908836000482552 0.4509037616023448 0.4460185637518319
0.02910314700056915 0.4538348803126526 0.4479726428920372
0.0292996240004868 0.4557889594528579 0.45188080117244755
0.029491730000700045 0.4538348803126526 0.45188080117244755
0.029683578000003763 0.45188080117244755 0.4528578407425501
0.02987940700040781 0.44894968246213973 0.457743038593063
0.030093216000750544 0.44699560332193444 0.45969711773326827
0.030323044000397203 0.44894968246213973 0.4655593551538837
0.030536058000507182 0.4509037616023448 0.47142159257449934
0.030739941999854636 0.4557889594528579 0.4704445530043966
0.030935105000025942 0.44992672203224227 0.4704445530043966
0.031138655000177096 0.45188080117244755 0.47435271128480694
0.03133735500068724 0.457743038593063 0.47239863214460187
0.031530869000562234 0.45481191988275516 0.47239863214460187
0.03173132700067072 0.4538348803126526 0.47239863214460187
0.031929396000123234 0.457743038593063 0.4733756717147044
0.03213633599989407 0.4528578407425501 0.46946751343429405
0.03235040500021569 0.45481191988275516 0.4684904738641915
0.032590011000138475 0.4538348803126526 0.467513434294089
0.03279971000029036 0.44992672203224227 0.4655593551538837
0.033001630999933695 0.45188080117244755 0.4636052760136786
0.03321007100021234 0.44699560332193444 0.4606741573033708
0.03343014000074618 0.44992672203224227 0.457743038593063
0.03366276399992785 0.4509037616023448 0.45676599902296044
0.03385948200048006 0.44992672203224227 0.4557889594528579
0.03406362500027171 0.45188080117244755 0.4557889594528579
0.034273083000698534 0.4528578407425501 0.4509037616023448
0.034469875000468164 0.4509037616023448 0.4450415241817294
0.034677889000704454 0.4509037616023448 0.44699560332193444
0.03487636600038968 0.44894968246213973 0.4401563263312165
0.03507558399996924 0.45188080117244755 0.43624816805080613
0.035283578999951715 0.44894968246213973 0.43624816805080613
0.03548594400035654 0.44894968246213973 0.43624816805080613
0.03576716000043234 0.4538348803126526 0.43917928676111373
0.03596648900020227 0.4528578407425501 0.43917928676111373
0.036163225000564125 0.4509037616023448 0.4401563263312165
0.03637509100008174 0.44992672203224227 0.4430874450415241
0.03668793500037282 0.4509037616023448 0.4450415241817294
0.03691104100016673 0.44894968246213973 0.4430874450415241
0.03712918500059459 0.44992672203224227 0.44406448461162684
0.037362512000072456 0.44699560332193444 0.4460185637518319
0.0375679710004988 0.44992672203224227 0.44699560332193444
0.037763373999951 0.45676599902296044 0.44992672203224227
0.03795455399995262 0.44699560332193444 0.4538348803126526
0.03815079100058938 0.44992672203224227 0.45676599902296044
0.03834215700044297 0.45188080117244755 0.4606741573033708
0.03853500400055054 0.44992672203224227 0.4655593551538837
0.03872690700063686 0.45188080117244755 0.4655593551538837
0.03891834700061736 0.4509037616023448 0.4704445530043966
0.03910936100055551 0.45188080117244755 0.47435271128480694
0.039301079000324535 0.4528578407425501 0.47435271128480694
0.03949285199996666 0.44992672203224227 0.4763067904250122
0.039684254999883706 0.44894968246213973 0.47239863214460187
0.03987465899990639 0.4479726428920372 0.47239863214460187
0.04006548699999257 0.44992672203224227 0.46946751343429405
0.04025631600052293 0.44894968246213973 0.4665363947239862
0.04045012700044026 0.44992672203224227 0.4606741573033708
0.040644456000336504 0.44894968246213973 0.45969711773326827
0.04083534000073996 0.44992672203224227 0.457743038593063
0.04102900199995929 0.44992672203224227 0.4538348803126526
0.04122097900017252 0.44699560332193444 0.4509037616023448
0.041411549000258674 0.4509037616023448 0.45188080117244755
0.04160228599994298 0.4479726428920372 0.44992672203224227
0.04179292900062137 0.4479726428920372 0.4460185637518319
0.04198307300066517 0.4509037616023448 0.44406448461162684
0.042173995000666764 0.4479726428920372 0.44406448461162684
0.042364657000689476 0.44894968246213973 0.44211040547142155
0.042555986000479606 0.4479726428920372 0.4401563263312165
0.042747204000079364 0.4479726428920372 0.43917928676111373
0.04293807000067318 0.4509037616023448 0.441133365901319
0.043129158000738244 0.45188080117244755 0.441133365901319
0.04331995000029565 0.457743038593063 0.4382022471910112
0.043511612000656896 0.44992672203224227 0.4382022471910112
0.04370764500072255 0.45188080117244755 0.4352711284807034
0.04391604700049356 0.4509037616023448 0.4352711284807034
0.04415224500007753 0.4509037616023448 0.43722520762090866
0.044432572000005166 0.4509037616023448 0.4382022471910112
0.044641364000199246 0.44894968246213973 0.43917928676111373
0.044861525000669644 0.44699560332193444 0.44211040547142155
0.04507870599991293 0.4460185637518319 0.4450415241817294
0.04527199800031667 0.44894968246213973 0.4479726428920372
0.045463234000635566 0.44992672203224227 0.44699560332193444
0.0456541740004468 0.4479726428920372 0.44699560332193444
0.04584565100049076 0.44992672203224227 0.4479726428920372
0.0460390730004292 0.4509037616023448 0.44699560332193444
0.046230957000261697 0.4557889594528579 0.45188080117244755
0.04642358199998853 0.45676599902296044 0.4528578407425501
0.04661500400015939 0.4606741573033708 0.46165119687347334
0.046806833000118786 0.46165119687347334 0.4557889594528579
0.04699862500001473 0.46262823644357587 0.45969711773326827
0.04718960199988942 0.45969711773326827 0.46165119687347334
0.04738241199993354 0.4557889594528579 0.46262823644357587
0.04757385199991404 0.45188080117244755 0.46165119687347334
0.04776505100016948 0.4528578407425501 0.46262823644357587
0.047956862000319234 0.44699560332193444 0.4557889594528579
0.04814733900002466 0.44699560332193444 0.45481191988275516
0.04833837200021662 0.44406448461162684 0.44992672203224227
0.048550589000114996 0.44406448461162684 0.4450415241817294
0.04874343600022257 0.44406448461162684 0.43917928676111373
0.04893539500062616 0.44406448461162684 0.43429408891060084
0.04912740899999335 0.44406448461162684 0.4382022471910112
0.04931821900026989 0.44406448461162684 0.4323400097703958
0.049509234000652214 0.44211040547142155 0.4323400097703958
0.04970022900033655 0.4430874450415241 0.43624816805080613
0.04989098400073999 0.44406448461162684 0.43624816805080613
0.050081942999895546 0.4460185637518319 0.43917928676111373
0.05027253100070084 0.4450415241817294 0.4430874450415241
0.05046347100051207 0.4430874450415241 0.441133365901319
0.050654448000386765 0.4450415241817294 0.44406448461162684
0.050845628999923065 0.44699560332193444 0.44211040547142155
0.05103666100058035 0.4460185637518319 0.44211040547142155
0.05122786100037047 0.44699560332193444 0.44211040547142155
0.051418764000118244 0.44699560332193444 0.4401563263312165
0.051616833000480256 0.4479726428920372 0.4401563263312165
0.051808829000037804 0.4450415241817294 0.4401563263312165
0.051999954000166326 0.44699560332193444 0.441133365901319
0.05219217200010462 0.4479726428920372 0.44211040547142155
0.0523833340002966 0.44699560332193444 0.4430874450415241
0.05259321799985628 0.4460185637518319 0.4479726428920372
0.05281889800062345 0.4460185637518319 0.4509037616023448
0.05302017200028786 0.45188080117244755 0.44992672203224227
0.05324751800071681 0.44992672203224227 0.4479726428920372
0.05346890200053167 0.44894968246213973 0.44699560332193444
0.05367265699987911 0.4587200781631655 0.44211040547142155
0.05386541100051545 0.44992672203224227 0.441133365901319
0.054058110999903874 0.44699560332193444 0.43917928676111373
0.05426856900066923 0.4460185637518319 0.43624816805080613
0.05446787900018535 0.44406448461162684 0.4352711284807034
0.054665171000124246 0.44211040547142155 0.43624816805080613
0.05485762900025293 0.44406448461162684 0.4401563263312165
0.05504897700029687 0.4401563263312165 0.44211040547142155
0.05524006500036194 0.44211040547142155 0.4460185637518319
0.055431116000363545 0.4430874450415241 0.44894968246213973
0.05562179700064007 0.4450415241817294 0.4528578407425501
0.0558131810003033 0.4460185637518319 0.45969711773326827
0.056003936000706744 0.4509037616023448 0.4665363947239862
0.05619578400001046 0.44894968246213973 0.47142159257449934
0.056386131000181194 0.45188080117244755 0.4802149487054226
0.05663138500040077 0.45188080117244755 0.48412310698583294
0.05682358400008525 0.45676599902296044 0.48216902784562765
0.05701724600021407 0.4509037616023448 0.4802149487054226
0.05720887200004654 0.45188080117244755 0.47923790913532005
0.05740029300068272 0.45188080117244755 0.4733756717147044
0.057591492000028666 0.4479726428920372 0.47142159257449934
0.05778280300000915 0.4509037616023448 0.4704445530043966
0.05797342799996841 0.4538348803126526 0.4636052760136786
0.05816764600058377 0.4509037616023448 0.46458231558378116
0.05835882700012007 0.44894968246213973 0.45969711773326827
0.05854908200035425 0.44894968246213973 0.45676599902296044
0.05873974400037696 0.44992672203224227 0.45676599902296044
0.05893164700046327 0.4538348803126526 0.457743038593063
0.05912214300042251 0.4538348803126526 0.4538348803126526
0.059313268000551034 0.4557889594528579 0.4557889594528579
0.05950420800036227 0.45188080117244755 0.4528578407425501
0.059694702999877336 0.45188080117244755 0.4528578407425501
0.05988540300040768 0.4509037616023448 0.45481191988275516
0.06007597200004966 0.4528578407425501 0.45188080117244755
0.06026985700009391 0.4528578407425501 0.4538348803126526
0.0604724630002238 0.45481191988275516 0.4538348803126526
0.060749549999854935 0.4538348803126526 0.45481191988275516
0.0609512300006827 0.457743038593063 0.4528578407425501
0.06117728100070963 0.45676599902296044 0.44992672203224227
0.06137077600033081 0.4538348803126526 0.4509037616023448
0.06156264200035366 0.4538348803126526 0.4479726428920372
0.0617535820001649 0.45188080117244755 0.4460185637518319
0.061943893000716344 0.45188080117244755 0.4479726428920372
0.062134628999956476 0.44699560332193444 0.44699560332193444
0.06232788400029676 0.4460185637518319 0.4450415241817294
0.06294035100017936 0.44211040547142155 0.44211040547142155
0.0631403470006262 0.4382022471910112 0.4450415241817294
0.06333350900058576 0.43917928676111373 0.44406448461162684
0.0635245040002701 0.44211040547142155 0.4460185637518319
0.06371720400056802 0.441133365901319 0.44699560332193444
0.06390905100033706 0.44211040547142155 0.4479726428920372
0.06410195399985241 0.44406448461162684 0.44699560332193444
0.06429278300038277 0.4450415241817294 0.44992672203224227
0.06451461100004963 0.44699560332193444 0.44699560332193444
0.06471088500074984 0.4509037616023448 0.44699560332193444
0.06490160200064565 0.4538348803126526 0.4479726428920372
0.0650926910002454 0.4538348803126526 0.44894968246213973
0.06528559400067024 0.4528578407425501 0.45188080117244755
0.0654764780001642 0.4538348803126526 0.4509037616023448
0.06567119600003934 0.45481191988275516 0.4557889594528579
0.06586224700004095 0.4509037616023448 0.4557889594528579
0.06605315000069822 0.4538348803126526 0.4528578407425501
0.06624414599991724 0.44894968246213973 0.4538348803126526
0.06643491900013032 0.44699560332193444 0.4538348803126526
0.06662574800066068 0.4460185637518319 0.4509037616023448
0.06681704000038735 0.44699560332193444 0.44992672203224227
0.06700770200041006 0.4460185637518319 0.4509037616023448
0.0671986420002213 0.44406448461162684 0.44992672203224227
0.0673896380003498 0.4450415241817294 0.4479726428920372
0.06757963400013978 0.4430874450415241 0.44406448461162684
0.06777031399997213 0.4460185637518319 0.4430874450415241
0.06796099500024866 0.4450415241817294 0.4450415241817294
0.06815171300058864 0.4430874450415241 0.441133365901319
0.06834304200037877 0.4450415241817294 0.4352711284807034
0.06853357500040147 0.4450415241817294 0.4333170493404983
0.06872579199989559 0.44699560332193444 0.42745481191988266
0.06891739900038374 0.44894968246213973 0.4264777723497801
0.06910815399987769 0.4479726428920372 0.42452369320957506
0.0692994640003235 0.44894968246213973 0.42452369320957506
0.06949031200019817 0.4538348803126526 0.4206155349291647
0.06969601099990541 0.4509037616023448 0.42159257449926724
0.069889136000711 0.45188080117244755 0.42256961406936977
0.07009098300022742 0.45188080117244755 0.4235466536394723
0.07029984900054842 0.45188080117244755 0.4255007327796776
0.0705198619998555 0.4509037616023448 0.4264777723497801
0.07071752400042897 0.4538348803126526 0.4284318514899854
0.0709090569998807 0.4528578407425501 0.4264777723497801
0.07110273800026334 0.45481191988275516 0.4255007327796776
0.07129745600013848 0.45188080117244755 0.42159257449926724
0.07150750600067113 0.4528578407425501 0.42256961406936977
0.07172033500046382 0.4538348803126526 0.42256961406936977
0.07192105200010701 0.45481191988275516 0.4255007327796776
0.07211793700025737 0.4538348803126526 0.4284318514899854
0.0723093209999206 0.45481191988275516 0.4284318514899854
0.07250702000055753 0.4557889594528579 0.4264777723497801
0.07270205300028465 0.4557889594528579 0.4255007327796776
0.07289338200007478 0.45676599902296044 0.42940889106008795
0.07308439600001293 0.4557889594528579 0.4333170493404983
0.07327524300035293 0.457743038593063 0.44406448461162684
0.07346646099995269 0.45481191988275516 0.4509037616023448
0.07365675300025032 0.4557889594528579 0.46458231558378116
0.07386885899995832 0.4587200781631655 0.4802149487054226
0.07406078100029845 0.45676599902296044 0.4909623839765511
0.07425274000070203 0.4557889594528579 0.49877870053737183
0.07444316100009019 0.45481191988275516 0.5105031753786029
0.07463395300055709 0.4538348803126526 0.5144113336590133
0.07482478200017795 0.45481191988275516 0.5163654127992183
0.07501585200043337 0.4557889594528579 0.5144113336590133
0.07520688400018116 0.4587200781631655 0.5144113336590133
0.07540484299988748 0.45481191988275516 0.5183194919394236
0.07560356000067259 0.4538348803126526 0.5202735710796287
0.0758080740006335 0.45481191988275516 0.5192965315095261
0.07601132900072116 0.45969711773326827 0.5144113336590133
0.07622523100053513 0.4557889594528579 0.5095261358085001
0.07643041200026346 0.45481191988275516 0.5017098192476794
0.07664279600066948 0.4538348803126526 0.4948705422569615
0.07683510600054433 0.45481191988275516 0.48216902784562765
0.07702686100037681 0.45188080117244755 0.4763067904250122
0.07721987500008254 0.45676599902296044 0.47239863214460187
0.07741079700008413 0.44992672203224227 0.4665363947239862
0.07760157000029722 0.45188080117244755 0.4636052760136786
0.07779449200006638 0.4479726428920372 0.45969711773326827
0.07798930199987808 0.44992672203224227 0.45676599902296044
0.07822561100056191 0.44894968246213973 0.4538348803126526
0.0784173110005213 0.44992672203224227 0.4528578407425501
0.07860808400073438 0.44992672203224227 0.4538348803126526
0.0787993390003976 0.4479726428920372 0.4509037616023448
0.07898942700012412 0.44992672203224227 0.44992672203224227
0.07917990400073904 0.44894968246213973 0.44894968246213973
0.07937149200006388 0.44894968246213973 0.4479726428920372
0.07956535799985431 0.44699560332193444 0.4509037616023448
0.07975609500044811 0.4460185637518319 0.45188080117244755
0.07994701600000553 0.4450415241817294 0.44992672203224227
0.0801379190006628 0.4460185637518319 0.4538348803126526
0.08033393300047464 0.44699560332193444 0.45676599902296044
0.08054463200005557 0.44992672203224227 0.45188080117244755
0.08075712700065196 0.44894968246213973 0.4528578407425501
0.08095256700016762 0.4509037616023448 0.45188080117244755
0.08114374800061341 0.4538348803126526 0.4509037616023448
0.08133694700063643 0.45481191988275516 0.44992672203224227
0.08152938700004597 0.4528578407425501 0.45676599902296044
0.08172014200044941 0.45188080117244755 0.44992672203224227
0.08191104500019719 0.4538348803126526 0.4509037616023448
0.0821039299999029 0.4528578407425501 0.44699560332193444
0.08229501799996797 0.45188080117244755 0.4460185637518319
0.0824862170002234 0.44894968246213973 0.4430874450415241
0.08267832399997133 0.44894968246213973 0.43917928676111373
0.08286989400039602 0.45188080117244755 0.43624816805080613
0.08306127800005925 0.45188080117244755 0.43429408891060084
0.0832525510004416 0.4528578407425501 0.43429408891060084
0.08344549100002041 0.45481191988275516 0.4333170493404983
0.08363715399991634 0.4557889594528579 0.4333170493404983
0.08382761200027744 0.457743038593063 0.431362970200293
0.0840188299998772 0.4557889594528579 0.4303859306301905
0.08421269600057713 0.4557889594528579 0.4303859306301905
0.08440476600026159 0.4528578407425501 0.4323400097703958
0.08460605700020096 0.4528578407425501 0.431362970200293
0.0847992940007316 0.44894968246213973 0.4303859306301905
0.08499021500028903 0.44894968246213973 0.4255007327796776
0.08518226600062917 0.44699560332193444 0.4284318514899854
0.08537389200046164 0.44992672203224227 0.4284318514899854
0.08556473899989214 0.4528578407425501 0.4284318514899854
0.08575571600067633 0.44992672203224227 0.42745481191988266
0.08594628599985299 0.45188080117244755 0.4284318514899854
0.08613765200061607 0.44992672203224227 0.4303859306301905
0.0863523880007051 0.45188080117244755 0.4255007327796776
0.08655669800009491 0.45188080117244755 0.4284318514899854
0.08674834200064652 0.45188080117244755 0.4264777723497801
0.08693946699986554 0.4528578407425501 0.42940889106008795
0.08713027700014209 0.4528578407425501 0.4284318514899854
0.08732121699995332 0.4538348803126526 0.4284318514899854
0.08751345400014543 0.44992672203224227 0.43429408891060084
0.08770493100018939 0.44699560332193444 0.42452369320957506
0.0878958520006563 0.44699560332193444 0.4235466536394723
0.08808725500057335 0.4450415241817294 0.4186614557889594
0.08827960300004634 0.4430874450415241 0.4157303370786516
0.08847076500023832 0.441133365901319 0.412799218368344
0.08867679700051667 0.44406448461162684 0.41475329750854906
0.08886864500072988 0.441133365901319 0.4108451392281387
0.08905958500054112 0.44211040547142155 0.412799218368344
0.08924998800011963 0.4401563263312165 0.4137762579384465
0.08944085400071344 0.4450415241817294 0.4157303370786516
0.08963146099995356 0.44406448461162684 0.4186614557889594
0.08982284500052629 0.44406448461162684 0.42256961406936977
0.09001373000046442 0.44406448461162684 0.4264777723497801
0.09020417000010639 0.44699560332193444 0.4303859306301905
0.09039475800000218 0.4479726428920372 0.43429408891060084
0.09058573499987688 0.44699560332193444 0.43917928676111373
0.09077624900055525 0.4509037616023448 0.441133365901319
0.09096737400068378 0.4528578407425501 0.44211040547142155
0.09115796300011425 0.4557889594528579 0.44699560332193444
0.09134845800053881 0.45676599902296044 0.44992672203224227
0.09153969500039238 0.4538348803126526 0.44992672203224227
0.09173011600069003 0.45188080117244755 0.45188080117244755
0.09192564900058642 0.4538348803126526 0.4538348803126526
0.09211614400010149 0.45481191988275516 0.45676599902296044
0.09230712099997618 0.45188080117244755 0.45969711773326827
0.09250915400025406 0.4528578407425501 0.467513434294089
0.09270113100046729 0.4528578407425501 0.4753297508549097
0.09289231200000359 0.44992672203224227 0.4782608695652173
0.09308306599996286 0.45188080117244755 0.48216902784562765
0.09327395099990099 0.44992672203224227 0.4880312652662433
0.0934650019999026 0.4509037616023448 0.486077186126038
0.09365547900051752 0.44992672203224227 0.4851001465559355
0.09384612300073059 0.4509037616023448 0.48216902784562765
0.09403730400026689 0.44992672203224227 0.4851001465559355
0.09422844800064922 0.45481191988275516 0.47923790913532005
0.09441981400050281 0.4538348803126526 0.4763067904250122
0.09461867900063226 0.4538348803126526 0.4733756717147044
0.09480924900071841 0.46165119687347334 0.47142159257449934
0.09500033699987398 0.4538348803126526 0.4782608695652173
0.0951914070001294 0.457743038593063 0.4684904738641915
0.09538188400074432 0.4538348803126526 0.46458231558378116
0.0955723980005132 0.4557889594528579 0.46458231558378116
0.09576289400047244 0.4528578407425501 0.4636052760136786
0.09595329700005095 0.45188080117244755 0.46458231558378116
0.09614403300020058 0.4538348803126526 0.46262823644357587
0.09633493599994836 0.44992672203224227 0.46262823644357587
0.09652645000005577 0.44699560332193444 0.46262823644357587
0.0967143349998878 0.44699560332193444 0.4704445530043966
0.09690166400014277 0.44992672203224227 0.4655593551538837
0.09709371500048292 0.44894968246213973 0.4655593551538837
0.09728247000020929 0.44699560332193444 0.4665363947239862
0.0974698919999355 0.44699560332193444 0.4684904738641915
0.09765681299995776 0.44699560332193444 0.4665363947239862
0.09784447600031854 0.44699560332193444 0.46458231558378116
0.09803141600059462 0.4450415241817294 0.46262823644357587
0.09822007799994026 0.44406448461162684 0.45969711773326827
0.09840724100013176 0.44992672203224227 0.45481191988275516
0.09860201399988 0.4430874450415241 0.45481191988275516
0.09878926900000806 0.4430874450415241 0.4528578407425501
0.09897680199992465 0.44211040547142155 0.44992672203224227
0.09916464900015853 0.44211040547142155 0.44992672203224227
0.09935233000032895 0.44406448461162684 0.44894968246213973
0.09954014000049938 0.441133365901319 0.45188080117244755
0.0997277659998872 0.4430874450415241 0.44894968246213973
0.0999153729999307 0.441133365901319 0.4460185637518319
0.10010244200020679 0.4430874450415241 0.44699560332193444
0.10029012300037721 0.4450415241817294 0.44894968246213973
0.10047691500039946 0.44406448461162684 0.44699560332193444
0.10070763200019428 0.4430874450415241 0.44699560332193444
0.1008990910004286 0.44992672203224227 0.44992672203224227
0.10109008600011293 0.4450415241817294 0.4460185637518319
0.10128154500034725 0.44894968246213973 0.4450415241817294
0.10147268900072959 0.44699560332193444 0.4401563263312165
0.10166390700032935 0.44894968246213973 0.43722520762090866
0.10185977200035268 0.45188080117244755 0.4352711284807034
0.10205076800048118 0.4538348803126526 0.43624816805080613
0.10224156000003859 0.44992672203224227 0.4352711284807034
0.10243268500016711 0.4538348803126526 0.43624816805080613
0.10262916200008476 0.45188080117244755 0.43429408891060084
0.10282054700019216 0.4528578407425501 0.43429408891060084
0.10301091300061671 0.4528578407425501 0.4352711284807034
0.10320155600038561 0.45188080117244755 0.4352711284807034
0.10339160800049285 0.4538348803126526 0.43429408891060084
0.10358277000068483 0.4509037616023448 0.43722520762090866
0.10377485800017894 0.4509037616023448 0.43624816805080613
0.10396576099992672 0.45188080117244755 0.4352711284807034
0.10415596000075311 0.45188080117244755 0.43429408891060084
0.10434684500069125 0.44992672203224227 0.4323400097703958
0.10453928500010079 0.44992672203224227 0.4323400097703958
0.10472928099989076 0.44992672203224227 0.431362970200293
0.10492044300008274 0.44894968246213973 0.4323400097703958
0.10511138299989398 0.44992672203224227 0.4303859306301905
0.10530215600010706 0.44894968246213973 0.42940889106008795
0.10549280000032013 0.4528578407425501 0.431362970200293
0.10568372200032172 0.44894968246213973 0.4303859306301905
0.10587408800074627 0.44894968246213973 0.4284318514899854
0.10606445400026132 0.4479726428920372 0.4303859306301905
0.10625611600062257 0.4538348803126526 0.4323400097703958
0.10644707400024345 0.44992672203224227 0.431362970200293
0.1066382369999701 0.4509037616023448 0.43624816805080613
0.1068290840003101 0.44992672203224227 0.4382022471910112
0.10702004300037515 0.4509037616023448 0.43917928676111373
0.10721222400024999 0.44992672203224227 0.43722520762090866
0.10743401499985339 0.44992672203224227 0.43917928676111373
0.10764958400068281 0.44699560332193444 0.4401563263312165
0.10786950500005332 0.4479726428920372 0.441133365901319
0.10807464800018352 0.4450415241817294 0.441133365901319
0.10827899500054627 0.44894968246213973 0.4430874450415241
0.10849845300072047 0.4430874450415241 0.44699560332193444
0.10872128200026054 0.4450415241817294 0.44894968246213973
0.10892885100020067 0.4460185637518319 0.4509037616023448
0.10912701300003391 0.4528578407425501 0.45481191988275516
0.1093213049998667 0.45188080117244755 0.4538348803126526
0.1095205960000385 0.45188080117244755 0.4509037616023448
0.10972466600014741 0.4538348803126526 0.44992672203224227
0.109930790999897 0.45481191988275516 0.44699560332193444
0.11013363800066145 0.4557889594528579 0.4509037616023448
0.1103407070004323 0.4538348803126526 0.45188080117244755
0.11054529500052013 0.45188080117244755 0.4538348803126526
0.11074603100041713 0.4528578407425501 0.4528578407425501
0.1109503229999973 0.44992672203224227 0.45188080117244755
0.11119411400068202 0.45188080117244755 0.4509037616023448
0.11140016399986052 0.44992672203224227 0.4509037616023448
0.11166595500071708 0.44992672203224227 0.4509037616023448
0.11187333900033991 0.4509037616023448 0.4528578407425501
0.11206990800019412 0.4538348803126526 0.45676599902296044
0.1122631630005344 0.44992672203224227 0.45481191988275516
0.11245612200036703 0.45188080117244755 0.45676599902296044
0.11265315400032705 0.45188080117244755 0.45676599902296044
0.11284903900013887 0.457743038593063 0.45676599902296044
0.11305190400071297 0.45188080117244755 0.45676599902296044
0.11325228900022921 0.457743038593063 0.4636052760136786
0.11345189500025299 0.4538348803126526 0.4538348803126526
0.11365807600031985 0.45676599902296044 0.4538348803126526
0.11385712700030126 0.4528578407425501 0.4528578407425501
0.1140670479999244 0.457743038593063 0.4557889594528579
0.11430357900007948 0.4528578407425501 0.457743038593063
0.11453709200031881 0.45481191988275516 0.46165119687347334
0.114744458000132 0.4538348803126526 0.4636052760136786
0.11495278700022027 0.4538348803126526 0.4665363947239862
0.1151605600007315 0.4538348803126526 0.46946751343429405
0.11536242500005756 0.4538348803126526 0.4665363947239862
0.11556543900042016 0.45481191988275516 0.47239863214460187
0.11578197100061516 0.4538348803126526 0.47239863214460187
0.11599750300047162 0.4528578407425501 0.47239863214460187
0.11620751700047549 0.4538348803126526 0.4753297508549097
0.11641166000026715 0.45188080117244755 0.47435271128480694
0.11665087700021104 0.44992672203224227 0.4753297508549097
0.11685842800034152 0.4509037616023448 0.4753297508549097
0.11706588600009127 0.45188080117244755 0.47728382999511476
0.11732312100048148 0.4479726428920372 0.4782608695652173
0.11754020900025353 0.44894968246213973 0.4782608695652173
0.11774829600017256 0.44992672203224227 0.47923790913532005
0.1179779950007287 0.44894968246213973 0.4733756717147044
0.11818415700054175 0.4509037616023448 0.4704445530043966
0.11840063300041948 0.44992672203224227 0.46946751343429405
0.11860659200010559 0.44699560332193444 0.467513434294089
0.11881121700025687 0.4450415241817294 0.4665363947239862
0.11901350800053478 0.4460185637518319 0.467513434294089
0.11921457800053759 0.4460185637518319 0.4684904738641915
0.11941742500039254 0.4460185637518319 0.46458231558378116
0.11966147500061197 0.44992672203224227 0.46262823644357587
0.11991145100000722 0.44992672203224227 0.45969711773326827
0.12017238899989025 0.4538348803126526 0.45676599902296044
0.12046584500058088 0.4538348803126526 0.45188080117244755
0.12073500600035914 0.45188080117244755 0.44894968246213973
0.12096511100025964 0.44992672203224227 0.4479726428920372
0.12121749500056467 0.44894968246213973 0.43722520762090866
0.12149002500063943 0.44894968246213973 0.42940889106008795
0.12178138900071644 0.44894968246213973 0.42159257449926724
0.12209164100022463 0.4479726428920372 0.4186614557889594
0.12233245000061288 0.4479726428920372 0.4157303370786516
0.12266203600029257 0.4479726428920372 0.4137762579384465
0.12296993600011774 0.44699560332193444 0.4108451392281387
0.12335450099999434 0.4460185637518319 0.4108451392281387
0.1236686420006663 0.4460185637518319 0.4079140205178309
0.12396115400042618 0.4460185637518319 0.40693698094772834
0.12419477799994638 0.44699560332193444 0.41182217879824123
0.1243955330000972 0.44894968246213973 0.4137762579384465
0.12463306400059082 0.4450415241817294 0.41963849535906195
0.12485057800040522 0.44894968246213973 0.42940889106008795
0.12509412800045538 0.44699560332193444 0.43722520762090866
0.1253396040001462 0.4509037616023448 0.44211040547142155
0.12554724700021325 0.44894968246213973 0.4460185637518319
0.12578996400043252 0.4509037616023448 0.4479726428920372
0.12600312500035216 0.45481191988275516 0.44894968246213973
0.1262257309999768 0.4538348803126526 0.45188080117244755
0.1264351899999383 0.4538348803126526 0.4479726428920372
0.1266426110005341 0.4557889594528579 0.4460185637518319
0.12684475400055817 0.4538348803126526 0.4450415241817294
0.127064101000542 0.4557889594528579 0.4460185637518319
0.12727385600010166 0.4538348803126526 0.44406448461162684
0.12747529500029486 0.45481191988275516 0.4430874450415241
0.12768021700048848 0.4557889594528579 0.4450415241817294
0.12788078599987784 0.4538348803126526 0.4430874450415241
0.1280892810000296 0.45188080117244755 0.44211040547142155
0.12829703600073117 0.4528578407425501 0.44211040547142155
0.1285651960006362 0.4587200781631655 0.44406448461162684
0.12878917299985915 0.45188080117244755 0.4479726428920372
0.12899418600045465 0.44992672203224227 0.44894968246213973
0.12920642200060684 0.4509037616023448 0.4509037616023448
0.12940643599995383 0.45188080117244755 0.4509037616023448
0.12960885700067593 0.45188080117244755 0.4557889594528579
0.1298052230004032 0.44894968246213973 0.457743038593063
0.1300206440000693 0.45188080117244755 0.45969711773326827
0.13023175099988293 0.44992672203224227 0.45969711773326827
0.13048598500063235 0.45481191988275516 0.45969711773326827
0.1306914249998954 0.45188080117244755 0.45676599902296044
0.13089382799989835 0.4509037616023448 0.45676599902296044
0.13112915600049746 0.4509037616023448 0.4587200781631655
0.13135307700031262 0.4538348803126526 0.4587200781631655
0.13156092400004127 0.4528578407425501 0.46165119687347334
0.1317626600002768 0.4538348803126526 0.46458231558378116
0.13197478500023863 0.4538348803126526 0.4655593551538837
0.13216974300030415 0.45481191988275516 0.47239863214460187
0.13236142400000972 0.4557889594528579 0.4782608695652173
0.13255319700056134 0.457743038593063 0.48216902784562765
0.13274563699997088 0.45481191988275516 0.4831460674157304
0.13293646600050124 0.4509037616023448 0.48412310698583294
0.1331271100007143 0.45676599902296044 0.4831460674157304
0.13331810599993332 0.4509037616023448 0.4782608695652173
0.1335168049999993 0.4557889594528579 0.4753297508549097
0.1337114300004032 0.45188080117244755 0.4733756717147044
0.13390681400051108 0.44992672203224227 0.47239863214460187
0.13410071700036497 0.44992672203224227 0.4733756717147044
0.1342916570001762 0.44699560332193444 0.47239863214460187
0.1344829680001567 0.4460185637518319 0.47142159257449934
0.13467459300045448 0.4460185637518319 0.4704445530043966
0.13486766300047748 0.4460185637518319 0.47142159257449934
0.13505960300062725 0.4460185637518319 0.47435271128480694
0.13525102400035394 0.44894968246213973 0.4655593551538837
0.13544227900001715 0.4509037616023448 0.4665363947239862
0.13563314500061097 0.44894968246213973 0.46946751343429405
0.13582393700016837 0.44992672203224227 0.4587200781631655
0.1360146920005718 0.4538348803126526 0.45969711773326827
0.13620953900044697 0.45188080117244755 0.4606741573033708
0.1364259600004516 0.4538348803126526 0.457743038593063
0.13663354800064553 0.4538348803126526 0.4587200781631655
0.13686991300073714 0.4528578407425501 0.4606741573033708
0.1370815930004028 0.4538348803126526 0.46458231558378116
0.1372888480000256 0.4557889594528579 0.4606741573033708
0.13748810300057812 0.4538348803126526 0.46165119687347334
0.1376878390001366 0.4557889594528579 0.457743038593063
0.13788448200011771 0.45481191988275516 0.45188080117244755
0.13809440300065035 0.4606741573033708 0.45188080117244755
0.13831684300021152 0.4528578407425501 0.44992672203224227
0.13852372700057458 0.4538348803126526 0.4460185637518319
0.13872709299994312 0.44894968246213973 0.44406448461162684
0.1390507330006585 0.44992672203224227 0.44406448461162684
0.13926406200062047 0.44894968246213973 0.44699560332193444
0.13947009399998933 0.44699560332193444 0.4460185637518319
0.13969508900026995 0.44992672203224227 0.44699560332193444
0.13991149100002076 0.4479726428920372 0.44894968246213973
0.14011913500053197 0.4479726428920372 0.44894968246213973
0.14032272300028126 0.44992672203224227 0.44894968246213973
0.14053351400070824 0.44894968246213973 0.4479726428920372
0.1407364350006901 0.44894968246213973 0.4430874450415241
0.14093630100069277 0.44992672203224227 0.44211040547142155
0.14113690800058976 0.45188080117244755 0.44211040547142155
0.1413388290002331 0.4538348803126526 0.43917928676111373
0.14153743499991833 0.4538348803126526 0.43722520762090866
0.14174374600042938 0.4538348803126526 0.43624816805080613
0.14194846300051722 0.4538348803126526 0.431362970200293
0.1421471620005832 0.4528578407425501 0.43917928676111373
0.14235391700003674 0.45481191988275516 0.42940889106008795
0.14255756000056863 0.4538348803126526 0.4323400097703958
0.142765500000678 0.4538348803126526 0.43429408891060084
0.14296903200011002 0.45188080117244755 0.43429408891060084
0.14316343500013318 0.45481191988275516 0.43722520762090866
0.14335483800005022 0.4538348803126526 0.43624816805080613
0.14354566700058058 0.45481191988275516 0.43624816805080613
0.14373681100005342 0.4509037616023448 0.43429408891060084
0.14392786200005503 0.4528578407425501 0.43429408891060084
0.14411885800018354 0.4528578407425501 0.4323400097703958
0.14430970500052354 0.4509037616023448 0.4323400097703958
0.14450244100044074 0.4509037616023448 0.43429408891060084
0.14469403000020975 0.4509037616023448 0.4333170493404983
0.14488515500033827 0.4509037616023448 0.4352711284807034
0.14507611299995915 0.4509037616023448 0.4303859306301905
0.14526840500002436 0.45676599902296044 0.4303859306301905
0.1454598079999414 0.4509037616023448 0.4303859306301905
0.14565108199985843 0.45188080117244755 0.42940889106008795
0.1458417809999446 0.44894968246213973 0.4323400097703958
0.14603259200066532 0.4509037616023448 0.43624816805080613
0.14622368000073038 0.44992672203224227 0.441133365901319
0.14641534200018214 0.44894968246213973 0.4430874450415241
0.1466055780001625 0.44992672203224227 0.44992672203224227
0.14679596299993136 0.4479726428920372 0.4538348803126526
0.14698655100073665 0.4460185637518319 0.4606741573033708
0.14717719500004023 0.4460185637518319 0.4665363947239862
0.14736950499991508 0.4460185637518319 0.46458231558378116
0.14758590800011007 0.45188080117244755 0.4606741573033708
0.14777675500045007 0.44992672203224227 0.4587200781631655
0.147968991000198 0.44894968246213973 0.457743038593063
0.14815987600013614 0.44894968246213973 0.457743038593063
0.14835003799998958 0.44894968246213973 0.4538348803126526
0.14854212600039318 0.45188080117244755 0.45188080117244755
0.1487337150001622 0.44992672203224227 0.45188080117244755
0.14892432099986763 0.4538348803126526 0.45188080117244755
0.1491153540000596 0.44699560332193444 0.44992672203224227
0.1493072570001459 0.44894968246213973 0.44894968246213973
0.14949775300010515 0.4460185637518319 0.44699560332193444
0.14968860000044515 0.4479726428920372 0.4479726428920372
0.1498793549999391 0.44699560332193444 0.4479726428920372
0.15007096200042724 0.4479726428920372 0.44699560332193444
0.1502621059999001 0.44894968246213973 0.4450415241817294
0.15045397100038826 0.4479726428920372 0.44699560332193444
0.1506452450003053 0.44699560332193444 0.4479726428920372
0.15083662899996853 0.44406448461162684 0.44699560332193444
0.15102899500016065 0.4460185637518319 0.44992672203224227
0.15121980599997187 0.44406448461162684 0.45188080117244755
0.15141000499988877 0.44406448461162684 0.4538348803126526
0.15160864900008164 0.4430874450415241 0.4509037616023448
0.15179997799987177 0.45188080117244755 0.45188080117244755
0.15199075100008486 0.4450415241817294 0.44992672203224227
0.15218152400029794 0.4479726428920372 0.4538348803126526
0.15237259400055336 0.4479726428920372 0.44894968246213973
0.15258555200034607 0.44894968246213973 0.4479726428920372
0.15277684400007274 0.45188080117244755 0.4450415241817294
0.15296732100068766 0.4509037616023448 0.4479726428920372
0.15315776100032963 0.4538348803126526 0.44406448461162684
0.15334927500043705 0.4509037616023448 0.4430874450415241
0.15353977100039629 0.45188080117244755 0.44406448461162684
0.15373152600022877 0.4479726428920372 0.4450415241817294
0.15392607700050576 0.4460185637518319 0.4460185637518319
0.15411699800006318 0.4460185637518319 0.44992672203224227
0.1543076240004666 0.4460185637518319 0.4528578407425501
0.15449850799996057 0.4479726428920372 0.4557889594528579
0.15468970800066018 0.4460185637518319 0.457743038593063
0.1548804439999003 0.45188080117244755 0.4557889594528579
0.1550711620002403 0.44699560332193444 0.45481191988275516
0.1552620090005803 0.4479726428920372 0.4538348803126526
0.15545359699990513 0.4479726428920372 0.4538348803126526
0.15564429700043547 0.4479726428920372 0.45188080117244755
0.15585045900024852 0.44894968246213973 0.4538348803126526
0.15604260200052522 0.44992672203224227 0.45481191988275516
0.15623333900020953 0.4479726428920372 0.4538348803126526
0.15642479699999967 0.44699560332193444 0.4538348803126526
0.1566167740002129 0.4460185637518319 0.45188080117244755
0.15680762200008758 0.4450415241817294 0.4528578407425501
0.15699850600049103 0.4479726428920372 0.45188080117244755
0.15718955800002732 0.44894968246213973 0.4538348803126526
0.15738016400064225 0.4509037616023448 0.4557889594528579
0.15757021500030532 0.4479726428920372 0.45676599902296044
0.15776082200045494 0.44992672203224227 0.457743038593063
0.15795218800030852 0.44992672203224227 0.45481191988275516
0.158152202000565 0.4538348803126526 0.45481191988275516
0.15836480800044228 0.44992672203224227 0.457743038593063
0.1585916920003001 0.4538348803126526 0.4557889594528579
0.15886903800037544 0.4538348803126526 0.4557889594528579
0.15915492000021914 0.45676599902296044 0.4606741573033708
0.15935961900049733 0.4557889594528579 0.46458231558378116
0.15956007700060582 0.45188080117244755 0.4665363947239862
0.15976751700054592 0.4509037616023448 0.4733756717147044
0.15997166000033758 0.4509037616023448 0.4763067904250122
0.1601738960007424 0.45188080117244755 0.48216902784562765
0.1603750210006183 0.4460185637518319 0.4851001465559355
0.16068786600044405 0.4479726428920372 0.49193942354665365
0.16093865699986054 0.4479726428920372 0.49193942354665365
0.16116507700007787 0.44992672203224227 0.49193942354665365
0.16139464600018982 0.4557889594528579 0.4938935026868587
0.16161054900021554 0.45188080117244755 0.48900830483634583
0.16188037600022653 0.44992672203224227 0.4909623839765511
0.16213287000027776 0.45481191988275516 0.4831460674157304
0.16234243899998546 0.44992672203224227 0.4763067904250122
0.1625489900006869 0.44992672203224227 0.47142159257449934
0.16275228199992853 0.44992672203224227 0.46458231558378116
0.16296188800060918 0.44699560332193444 0.4606741573033708
0.1631641240001045 0.4430874450415241 0.4528578407425501
0.16336900800069998 0.44211040547142155 0.4460185637518319
0.16357063300074515 0.441133365901319 0.441133365901319
0.16377831400041032 0.441133365901319 0.43624816805080613
0.1639944380003726 0.44211040547142155 0.4333170493404983
0.16423708100046497 0.4450415241817294 0.431362970200293
0.16453387000001385 0.4479726428920372 0.4323400097703958
0.16475721700044232 0.44992672203224227 0.4303859306301905
0.1650036370001544 0.44894968246213973 0.42745481191988266
0.16521320700030628 0.4479726428920372 0.4264777723497801
0.1654146650007533 0.44894968246213973 0.4264777723497801
0.16561016100058623 0.44992672203224227 0.4255007327796776
0.1658123600000181 0.44992672203224227 0.4235466536394723
0.16602835499998037 0.44992672203224227 0.42256961406936977
0.16623231300036423 0.44894968246213973 0.4235466536394723
0.16642436400070437 0.4509037616023448 0.42452369320957506
0.16661586000009265 0.4538348803126526 0.42256961406936977
0.16680696599996736 0.45481191988275516 0.42452369320957506
0.16699799900015933 0.457743038593063 0.4264777723497801
0.16718964300071093 0.45676599902296044 0.4323400097703958
0.16738062000058562 0.4528578407425501 0.4323400097703958
0.16757167100058723 0.4538348803126526 0.4352711284807034
0.16776281500006007 0.45188080117244755 0.43429408891060084
0.1679590140001892 0.44699560332193444 0.4352711284807034
0.16815028700057155 0.4450415241817294 0.4352711284807034
0.16834159800055204 0.441133365901319 0.4333170493404983
0.16853524199996173 0.4382022471910112 0.4382022471910112
0.16872631100068247 0.43722520762090866 0.4401563263312165
0.16891728800055716 0.4352711284807034 0.4401563263312165
0.16910787699998764 0.4352711284807034 0.4401563263312165
0.16930100199988374 0.4382022471910112 0.43722520762090866
0.16949218300032953 0.4333170493404983 0.43722520762090866
0.1696830860000773 0.4352711284807034 0.4352711284807034
0.16987352600062877 0.43429408891060084 0.4352711284807034
0.17006422500071494 0.43624816805080613 0.43429408891060084
0.17025490600008197 0.4352711284807034 0.43624816805080613
0.17044595700008358 0.43624816805080613 0.43624816805080613
0.1706431380007416 0.43917928676111373 0.4333170493404983
0.17083431800074322 0.44406448461162684 0.4352711284807034
0.17102670300027967 0.4460185637518319 0.43429408891060084
0.17121860600036598 0.44992672203224227 0.4323400097703958
0.171410324000135 0.44992672203224227 0.43624816805080613
0.17160198600049625 0.45188080117244755 0.43917928676111373
0.171793647999948 0.45481191988275516 0.43917928676111373
0.17198458800066874 0.45481191988275516 0.4401563263312165
0.1721760099999301 0.4538348803126526 0.4401563263312165
0.1723676350002279 0.45188080117244755 0.4430874450415241
0.17257440800040058 0.4509037616023448 0.4450415241817294
0.17276653299995814 0.45188080117244755 0.4450415241817294
0.17295760300021357 0.4509037616023448 0.44699560332193444
0.17318061600053625 0.45188080117244755 0.44894968246213973
0.17337303800013615 0.4557889594528579 0.4479726428920372
0.17356388500047615 0.45481191988275516 0.44894968246213973
0.17375415900005464 0.457743038593063 0.4528578407425501
0.17394487700039463 0.45481191988275516 0.45676599902296044
0.17413559400029044 0.457743038593063 0.4606741573033708
0.1743289599999116 0.45676599902296044 0.4636052760136786
0.17452151100042101 0.45481191988275516 0.467513434294089
0.1747176920007405 0.45188080117244755 0.4665363947239862
0.1749152430002141 0.45481191988275516 0.46946751343429405
0.17512849800004915 0.45188080117244755 0.4733756717147044
0.17538458400031232 0.4538348803126526 0.47239863214460187
0.17561676400055148 0.4538348803126526 0.4753297508549097
0.17584242600059952 0.4528578407425501 0.47728382999511476
0.1760907349998888 0.4587200781631655 0.47728382999511476
0.17633408100027737 0.4587200781631655 0.4811919882755251
0.1766849989999173 0.4587200781631655 0.4831460674157304
0.1770110100005695 0.457743038593063 0.48900830483634583
0.17726906000007148 0.45481191988275516 0.486077186126038
0.17749872100011999 0.4557889594528579 0.48705422569614076
0.1777237710002737 0.4538348803126526 0.4831460674157304
0.178002319999905 0.44992672203224227 0.4782608695652173
0.1782762590000857 0.4460185637518319 0.4753297508549097
0.17852173400024185 0.44894968246213973 0.46946751343429405
0.17880235800021183 0.4430874450415241 0.46262823644357587
0.17904516700036766 0.441133365901319 0.4606741573033708
0.17927321700062748 0.44699560332193444 0.45676599902296044
0.17955548800000543 0.44992672203224227 0.45481191988275516
0.17981337099990924 0.44992672203224227 0.45481191988275516
0.18006721700021444 0.44894968246213973 0.4538348803126526
0.18035658100052387 0.45188080117244755 0.4509037616023448
0.18067672200049856 0.44894968246213973 0.4509037616023448
0.1809766780006612 0.44992672203224227 0.4528578407425501
0.1812785600004645 0.4528578407425501 0.45188080117244755
0.18151094400036527 0.44992672203224227 0.44699560332193444
0.1817438640000546 0.44992672203224227 0.4479726428920372
0.18197585899997648 0.44894968246213973 0.4450415241817294
0.18219657600002392 0.4509037616023448 0.4479726428920372
0.18241605200000777 0.4557889594528579 0.45188080117244755
0.18262095499994757 0.4528578407425501 0.4538348803126526
0.1828193020000981 0.4538348803126526 0.45969711773326827
0.18303027900037705 0.4509037616023448 0.4636052760136786
0.18323596000027464 0.44992672203224227 0.45676599902296044
0.1834499920005328 0.45188080117244755 0.44992672203224227
0.1836473390003448 0.44894968246213973 0.4430874450415241
0.18384016800064273 0.44992672203224227 0.43917928676111373
0.1840312560007078 0.4479726428920372 0.43722520762090866
0.18422180700054014 0.4479726428920372 0.43429408891060084
0.1844154320006055 0.44699560332193444 0.4303859306301905
0.18462118700063002 0.4460185637518319 0.4303859306301905
0.1848148859999128 0.4479726428920372 0.42940889106008795
0.18500836300063384 0.4479726428920372 0.42940889106008795
0.18519893300072 0.45188080117244755 0.42940889106008795
0.18539042900010827 0.4479726428920372 0.4303859306301905
0.1855816830002368 0.44992672203224227 0.4303859306301905
0.18577275300049223 0.4528578407425501 0.42940889106008795
0.18596532300034596 0.45188080117244755 0.4284318514899854
0.18615792900072847 0.4509037616023448 0.4255007327796776
0.18635018400073022 0.44894968246213973 0.4264777723497801
0.1865421239999705 0.44699560332193444 0.4284318514899854
0.18673378699986642 0.44992672203224227 0.431362970200293
0.18692478200046025 0.4450415241817294 0.431362970200293
0.18711620400063111 0.4460185637518319 0.43429408891060084
0.18730734800010396 0.4450415241817294 0.4352711284807034
0.1874979730000632 0.4450415241817294 0.4382022471910112
0.18768845000067813 0.4479726428920372 0.4401563263312165
0.1878790939999817 0.44894968246213973 0.441133365901319
0.18806971899994096 0.4460185637518319 0.44211040547142155
0.18826114000057714 0.44699560332193444 0.43917928676111373
0.18845259899990197 0.4460185637518319 0.4382022471910112
0.18864429800032667 0.4460185637518319 0.44211040547142155
0.18883570100024372 0.44894968246213973 0.441133365901319
0.18902638200052024 0.45188080117244755 0.44406448461162684
0.18921706299988728 0.4509037616023448 0.44406448461162684
0.18940807700073492 0.4460185637518319 0.4450415241817294
0.18959831300071528 0.45188080117244755 0.4430874450415241
0.1897895870006323 0.44894968246213973 0.44406448461162684
0.18998032299987244 0.4479726428920372 0.4450415241817294
0.1901706340004239 0.44992672203224227 0.4430874450415241
0.19037046199991892 0.44992672203224227 0.44699560332193444
0.19057745800000703 0.44894968246213973 0.44992672203224227
0.19078510100007406 0.44992672203224227 0.4509037616023448
0.19097602300007566 0.44992672203224227 0.457743038593063
0.19116679600028874 0.45188080117244755 0.457743038593063
0.19135755100069218 0.45188080117244755 0.45969711773326827
0.19156997200025216 0.4538348803126526 0.4606741573033708
0.1917778189999808 0.45676599902296044 0.46262823644357587
0.19199670299985883 0.4557889594528579 0.46165119687347334
0.19220521700026438 0.457743038593063 0.4606741573033708
0.1924094160003733 0.4509037616023448 0.457743038593063
0.19264544700035913 0.45188080117244755 0.45969711773326827
0.19285775700063823 0.4557889594528579 0.45969711773326827
0.19306034500004898 0.44992672203224227 0.45481191988275516
0.19326813699990453 0.44699560332193444 0.45676599902296044
0.1935092240000813 0.4460185637518319 0.45676599902296044
0.1937415330003205 0.4509037616023448 0.4587200781631655
0.194004416000098 0.44699560332193444 0.46458231558378116
0.19423755900061224 0.44992672203224227 0.45676599902296044
0.1944655719998991 0.4479726428920372 0.4587200781631655
0.19469773299988447 0.44406448461162684 0.457743038593063
0.19494554300035816 0.4450415241817294 0.45676599902296044
0.1951735370003007 0.44406448461162684 0.457743038593063
0.19537908800066361 0.44406448461162684 0.4557889594528579
0.19559147200016014 0.441133365901319 0.45481191988275516
0.1957976339999732 0.4450415241817294 0.4538348803126526
0.19599125900003855 0.44406448461162684 0.4528578407425501
0.19618347699997685 0.4450415241817294 0.45188080117244755
0.19637439899997844 0.4450415241817294 0.45188080117244755
0.19662130000051548 0.4430874450415241 0.4538348803126526
0.19681344400032685 0.44406448461162684 0.45481191988275516
0.19700564300001133 0.4450415241817294 0.4587200781631655
0.1971964170006686 0.4460185637518319 0.4606741573033708
0.19738713500009908 0.4479726428920372 0.4606741573033708
0.19758251900020696 0.44699560332193444 0.46262823644357587
0.19777331100067386 0.44699560332193444 0.4665363947239862
0.19796604700059106 0.44894968246213973 0.4636052760136786
0.1981614129999798 0.44699560332193444 0.4636052760136786
0.19835146400055237 0.44992672203224227 0.4636052760136786
0.19855123800061847 0.4528578407425501 0.47142159257449934
0.19874251100009133 0.4538348803126526 0.4655593551538837
0.1989334140007486 0.44894968246213973 0.4606741573033708
0.1991242610001791 0.4509037616023448 0.46165119687347334
0.19931477600039216 0.44992672203224227 0.4606741573033708
0.19950530799997068 0.4509037616023448 0.46262823644357587
0.1996957850005856 0.45188080117244755 0.4636052760136786
0.19988685499993153 0.45481191988275516 0.46262823644357587
0.20007790599993314 0.4509037616023448 0.46262823644357587
0.20026986500033672 0.45188080117244755 0.46165119687347334
0.20052367400057847 0.45188080117244755 0.46165119687347334
0.20071509500030515 0.4528578407425501 0.46458231558378116
0.20090518300003168 0.4528578407425501 0.46165119687347334
0.20109549400058313 0.4538348803126526 0.45969711773326827
0.20128621200001362 0.4557889594528579 0.4606741573033708
0.20147668900062854 0.457743038593063 0.457743038593063
0.20166774000063015 0.4587200781631655 0.4587200781631655
0.20185884700003953 0.4606741573033708 0.4557889594528579
0.20204987900069682 0.4606741573033708 0.45481191988275516
0.20224070800031768 0.4636052760136786 0.4538348803126526
0.20243137099987507 0.4655593551538837 0.45676599902296044
0.2026219220006169 0.467513434294089 0.45481191988275516
0.20281364000038593 0.4684904738641915 0.4538348803126526
0.2030043390004721 0.4665363947239862 0.45481191988275516
0.20319574200038915 0.4684904738641915 0.4587200781631655
0.20338953400005266 0.4665363947239862 0.4509037616023448
0.2035915290007324 0.467513434294089 0.45188080117244755
0.2037910990002274 0.46262823644357587 0.4528578407425501
0.20398463099991204 0.46262823644357587 0.4509037616023448
0.20417621900014638 0.4606741573033708 0.45188080117244755
0.2043679369999154 0.45969711773326827 0.45188080117244755
0.20459639500040794 0.4606741573033708 0.44992672203224227
0.2047870940004941 0.45969711773326827 0.4460185637518319
0.2049811269998827 0.46165119687347334 0.44406448461162684
0.20527967599991825 0.45481191988275516 0.4401563263312165
0.20547269000053348 0.4538348803126526 0.4401563263312165
0.20566301899998507 0.4528578407425501 0.4382022471910112
0.20585725500041008 0.4528578407425501 0.43722520762090866
0.20604775100036932 0.4528578407425501 0.43429408891060084
0.20623946800060367 0.4538348803126526 0.4333170493404983
0.2064301489999707 0.44894968246213973 0.42940889106008795
0.20662138600073376 0.44992672203224227 0.42745481191988266
0.20681319600043935 0.44699560332193444 0.4284318514899854
0.20700535800006037 0.4450415241817294 0.4255007327796776
0.20719724300033704 0.4430874450415241 0.4255007327796776
0.20738823800002137 0.44992672203224227 0.42745481191988266
0.207578530000319 0.4460185637518319 0.4284318514899854
0.20776969300004566 0.4479726428920372 0.42745481191988266
0.20796065100057604 0.44894968246213973 0.431362970200293
0.20815764700000727 0.4479726428920372 0.431362970200293
0.20834892000038963 0.44699560332193444 0.4352711284807034
0.20854110100026446 0.44699560332193444 0.4333170493404983
0.2087590219998674 0.4479726428920372 0.4352711284807034
0.20895925800050463 0.4450415241817294 0.43429408891060084
0.20916249400033848 0.44699560332193444 0.4303859306301905
0.2093638780006586 0.4450415241817294 0.42745481191988266
0.2095645590006825 0.44406448461162684 0.42745481191988266
0.20976344300015626 0.4450415241817294 0.4284318514899854
0.20996490100060328 0.4450415241817294 0.4323400097703958
0.21016069300003437 0.4430874450415241 0.43624816805080613
0.21035702200060769 0.44992672203224227 0.43917928676111373
0.2105610170001455 0.4460185637518319 0.45188080117244755
0.21078101200055244 0.4450415241817294 0.44894968246213973
0.21101184000053763 0.44894968246213973 0.4479726428920372
0.21123126100064837 0.4479726428920372 0.44992672203224227
0.21149640300063766 0.4450415241817294 0.45188080117244755
0.21176154500062694 0.44699560332193444 0.4538348803126526
0.21204992799994216 0.4479726428920372 0.4587200781631655
0.21234660600021016 0.44992672203224227 0.46262823644357587
0.2127412820000245 0.44894968246213973 0.4636052760136786
0.21306770099999994 0.44992672203224227 0.46165119687347334
0.21337334200052283 0.44992672203224227 0.46262823644357587
0.21367457500036835 0.45188080117244755 0.4655593551538837
0.2139603100004024 0.44894968246213973 0.4655593551538837
0.21426891400005843 0.44894968246213973 0.46946751343429405
0.2145482220003032 0.44894968246213973 0.4733756717147044
0.2148391230002744 0.4479726428920372 0.4782608695652173
0.2151055610002004 0.44992672203224227 0.47239863214460187
0.21532666700022673 0.4479726428920372 0.4733756717147044
0.21552968100058933 0.4460185637518319 0.4733756717147044
0.21572391700010485 0.4509037616023448 0.46946751343429405
0.21591630200055079 0.44699560332193444 0.46262823644357587
0.2161092970000027 0.4479726428920372 0.45676599902296044
0.2163027560000046 0.4479726428920372 0.4509037616023448
0.21652017700034776 0.4460185637518319 0.44406448461162684
0.21671420900020166 0.4479726428920372 0.4401563263312165
0.21691492700028903 0.4479726428920372 0.4333170493404983
0.21713329200065346 0.44992672203224227 0.4323400097703958
0.21734697300053085 0.4509037616023448 0.43429408891060084
0.21755069000028016 0.45188080117244755 0.431362970200293
0.2177532780006004 0.4509037616023448 0.4333170493404983
0.21796125499986374 0.4528578407425501 0.4352711284807034
0.21818869400067342 0.4538348803126526 0.4509037616023448
0.21842355900025723 0.4557889594528579 0.44992672203224227
0.2186441100002412 0.4528578407425501 0.45188080117244755
0.21889141900010145 0.45481191988275516 0.45969711773326827
0.21908832200006145 0.45676599902296044 0.46262823644357587
0.21928537300027529 0.45481191988275516 0.4665363947239862
0.21948310900006618 0.4557889594528579 0.46946751343429405
0.21967456699985632 0.4606741573033708 0.47435271128480694
0.21986495200053469 0.457743038593063 0.4704445530043966
0.22005598500072665 0.45676599902296044 0.47435271128480694
0.22024733200032642 0.45676599902296044 0.4782608695652173
0.2204380500006664 0.4557889594528579 0.4802149487054226
0.2206298790006258 0.4538348803126526 0.4782608695652173
0.2208213000003525 0.45188080117244755 0.4782608695652173
0.22101361100067152 0.44992672203224227 0.47435271128480694
0.22120760600046196 0.44992672203224227 0.47142159257449934
0.22139906500069628 0.44699560332193444 0.46946751343429405
0.2215899310003806 0.44699560332193444 0.467513434294089
0.22178211200025544 0.4538348803126526 0.4636052760136786
0.22197270000015124 0.44699560332193444 0.46165119687347334
0.22216384400053357 0.4479726428920372 0.457743038593063
0.22235469099996408 0.44699560332193444 0.45676599902296044
0.22254539000005025 0.44699560332193444 0.4538348803126526
0.22273666399996728 0.4460185637518319 0.45969711773326827
0.22292812200066692 0.44699560332193444 0.4557889594528579
0.22311887700016086 0.4509037616023448 0.45481191988275516
0.22331050200045865 0.44894968246213973 0.4538348803126526
0.22350105400073517 0.45188080117244755 0.457743038593063
0.22369147500012332 0.44699560332193444 0.4538348803126526
0.2238825820004422 0.45188080117244755 0.45481191988275516
0.22407335500065528 0.45188080117244755 0.4538348803126526
0.22426446200006467 0.45481191988275516 0.4479726428920372
0.2244587909999609 0.4528578407425501 0.4479726428920372
0.22465223100061849 0.45481191988275516 0.4450415241817294
0.22484326399990096 0.45188080117244755 0.44699560332193444
0.22503375900032552 0.44992672203224227 0.43917928676111373
0.22523394000018016 0.44992672203224227 0.43429408891060084
0.22542602800058376 0.4509037616023448 0.4303859306301905
0.22561715300071228 0.4450415241817294 0.4255007327796776
0.22580798200033314 0.4460185637518319 0.42256961406936977
0.22599895900020783 0.4430874450415241 0.42256961406936977
0.22619080700042105 0.441133365901319 0.4206155349291647
0.22638200600067648 0.4382022471910112 0.42159257449926724
0.22657348300072044 0.43722520762090866 0.42256961406936977
0.22676592300013 0.43624816805080613 0.4206155349291647
0.2269569930003854 0.4333170493404983 0.42159257449926724
0.22717859900058102 0.4352711284807034 0.42452369320957506
0.2273702239999693 0.43624816805080613 0.4235466536394723
0.22756112700062658 0.43624816805080613 0.4235466536394723
0.22775619700041716 0.4352711284807034 0.4284318514899854
0.2279690989998926 0.44211040547142155 0.4284318514899854
0.22817537199989602 0.43722520762090866 0.4284318514899854
0.22840081100002863 0.441133365901319 0.4303859306301905
0.22862173200064717 0.441133365901319 0.431362970200293
0.22882687600031204 0.44406448461162684 0.4333170493404983
0.22903192700050568 0.4450415241817294 0.42745481191988266
0.22923751400048786 0.44699560332193444 0.4284318514899854
0.2294733050002833 0.4479726428920372 0.431362970200293
0.22972661400035577 0.44894968246213973 0.43624816805080613
0.22996205300023576 0.44699560332193444 0.44211040547142155
0.23016706700036593 0.44894968246213973 0.43917928676111373
0.23036122900066403 0.44894968246213973 0.44211040547142155
0.23055174399996758 0.44699560332193444 0.44406448461162684
0.23074290600015956 0.44992672203224227 0.44211040547142155
0.23093353100011882 0.44894968246213973 0.44406448461162684
0.23112460100037424 0.44992672203224227 0.44699560332193444
0.23133916999995563 0.4528578407425501 0.4460185637518319
0.23153122100029577 0.4538348803126526 0.44894968246213973
0.2317238460000226 0.4528578407425501 0.45188080117244755
0.23191510100059531 0.45188080117244755 0.44894968246213973
0.23210572600055457 0.4538348803126526 0.44894968246213973
0.23229861100026028 0.45188080117244755 0.4509037616023448
0.2325124950002646 0.44992672203224227 0.4538348803126526
0.23271076800028823 0.4509037616023448 0.44894968246213973
0.23290176400041673 0.4528578407425501 0.45481191988275516
0.23309216699999524 0.45188080117244755 0.45481191988275516
0.2332828660000814 0.45188080117244755 0.45676599902296044
0.23347399100020994 0.44992672203224227 0.46165119687347334
0.23366511699987313 0.4509037616023448 0.457743038593063
0.2338606310004252 0.44992672203224227 0.45676599902296044
0.23405066300074395 0.4509037616023448 0.4587200781631655
0.23424117700051283 0.4509037616023448 0.45969711773326827
0.2344327840000915 0.44894968246213973 0.4655593551538837
0.23462418700000853 0.44894968246213973 0.4636052760136786
0.2348147570000947 0.44992672203224227 0.4665363947239862
0.2350058080000963 0.45188080117244755 0.47142159257449934
0.23519648900037282 0.45188080117244755 0.4782608695652173
0.23538892900069186 0.4528578407425501 0.4851001465559355
0.2356007940006748 0.4509037616023448 0.4880312652662433
0.23579271600010543 0.4509037616023448 0.48705422569614076
0.23598411900002247 0.4509037616023448 0.486077186126038
0.2361751890002779 0.44894968246213973 0.4831460674157304
0.23636614699989877 0.4538348803126526 0.47923790913532005
0.23656284600019717 0.4509037616023448 0.4733756717147044
0.23675682300017797 0.4528578407425501 0.46946751343429405
0.23694722600066598 0.4509037616023448 0.467513434294089
0.2371377030003714 0.4538348803126526 0.4655593551538837
0.2373284400000557 0.4509037616023448 0.4665363947239862
0.23751839800024754 0.4509037616023448 0.46458231558378116
0.23771056100031274 0.4528578407425501 0.46458231558378116
0.23790114900020853 0.4557889594528579 0.46165119687347334
0.2380911999998716 0.45481191988275516 0.46165119687347334
0.2382853070002966 0.4557889594528579 0.45969711773326827
0.23847608000050968 0.4557889594528579 0.4587200781631655
0.2386666870006593 0.4538348803126526 0.4587200781631655
0.23885718200017436 0.4538348803126526 0.457743038593063
0.2390472890001547 0.4528578407425501 0.4587200781631655
0.2392378220001774 0.4538348803126526 0.45969711773326827
0.23942824300047505 0.44992672203224227 0.45969711773326827
0.23961825800051884 0.44894968246213973 0.4606741573033708
0.2398090870001397 0.45188080117244755 0.46262823644357587
0.23999930399986624 0.45188080117244755 0.4606741573033708
0.24018985600014275 0.45188080117244755 0.46165119687347334
0.24038207300054637 0.457743038593063 0.457743038593063
0.24058253200018953 0.45481191988275516 0.45676599902296044
0.24077365700031805 0.45481191988275516 0.4538348803126526
0.24096437500065804 0.4538348803126526 0.45481191988275516
0.2411550740007442 0.457743038593063 0.4479726428920372
0.24134545900051307 0.4528578407425501 0.4538348803126526
0.2415357509999012 0.4509037616023448 0.44406448461162684
0.24172609800007194 0.45188080117244755 0.44406448461162684
0.24191839000013715 0.45188080117244755 0.44211040547142155
0.24211179300073127 0.4538348803126526 0.441133365901319
0.24230408499988698 0.4528578407425501 0.4401563263312165
0.24249459900056536 0.4528578407425501 0.4401563263312165
0.24268511300033424 0.45188080117244755 0.44406448461162684
0.24287629399987054 0.44992672203224227 0.4382022471910112
0.24306845600040106 0.44894968246213973 0.4401563263312165
0.24325885899997957 0.4509037616023448 0.43917928676111373
0.24344994700004463 0.45188080117244755 0.4430874450415241
0.2436594979999427 0.44894968246213973 0.441133365901319
0.2438511420004943 0.45188080117244755 0.441133365901319
0.24404223000055936 0.45188080117244755 0.4401563263312165
0.24424192900005437 0.4538348803126526 0.43722520762090866
0.24443418400005612 0.45188080117244755 0.4352711284807034
0.24462691999997332 0.4509037616023448 0.4352711284807034
0.24481830500008073 0.44992672203224227 0.4382022471910112
0.2450094670002727 0.44699560332193444 0.4430874450415241
0.2452004440001474 0.4460185637518319 0.44406448461162684
0.2453907919998528 0.44406448461162684 0.4450415241817294
0.24558089800029848 0.44211040547142155 0.4460185637518319
0.24577278300057515 0.441133365901319 0.44894968246213973
0.24596331600059784 0.4430874450415241 0.44699560332193444
0.24615410800015525 0.4479726428920372 0.44992672203224227
0.24634504799996648 0.4479726428920372 0.45188080117244755
0.24653539500013721 0.4509037616023448 0.44992672203224227
0.24672633499994845 0.45188080117244755 0.44894968246213973
0.24691655300011917 0.4538348803126526 0.4460185637518319
0.24710745599986694 0.45481191988275516 0.44894968246213973
0.24729735900018568 0.44992672203224227 0.43917928676111373
0.24748781800008146 0.45481191988275516 0.4401563263312165
0.2476778500004002 0.45188080117244755 0.43722520762090866
0.24786842000048637 0.4509037616023448 0.4352711284807034
0.24805919300069945 0.4528578407425501 0.43429408891060084
0.24825026300004538 0.44992672203224227 0.4323400097703958
0.24844170300002588 0.45188080117244755 0.42940889106008795
0.2486327730002813 0.44699560332193444 0.4235466536394723
0.24882388000060018 0.44894968246213973 0.4284318514899854
0.249014597000496 0.4479726428920372 0.42940889106008795
0.2492053890000534 0.44894968246213973 0.431362970200293
0.24939577400073176 0.4479726428920372 0.4323400097703958
0.2495862510004372 0.44992672203224227 0.441133365901319
0.24977696899986768 0.45188080117244755 0.44406448461162684
0.2499680939999962 0.45188080117244755 0.4460185637518319
0.2501584970004842 0.45188080117244755 0.45188080117244755
0.2503497520001474 0.4538348803126526 0.4538348803126526
0.25054050700055086 0.4509037616023448 0.45676599902296044
0.250730484000087 0.45188080117244755 0.4587200781631655
0.2509207390003212 0.45481191988275516 0.4606741573033708
0.25111110500074574 0.4528578407425501 0.45676599902296044
0.2513021000004301 0.45481191988275516 0.45676599902296044
0.25149276299998746 0.4538348803126526 0.4587200781631655
0.25168290700003126 0.4538348803126526 0.45969711773326827
0.251885346000563 0.4528578407425501 0.45676599902296044
0.25207612000031077 0.4528578407425501 0.457743038593063
0.252267503999974 0.45188080117244755 0.45969711773326827
0.2524599260004834 0.4509037616023448 0.45676599902296044
0.25265562500044325 0.45188080117244755 0.457743038593063
0.25284673199985264 0.4538348803126526 0.457743038593063
0.25303726400034066 0.4528578407425501 0.45481191988275516
0.253230316000554 0.4509037616023448 0.4557889594528579
0.25342138500036526 0.45188080117244755 0.45481191988275516
0.2536117509998803 0.45188080117244755 0.45676599902296044
0.2538029510005799 0.4528578407425501 0.45676599902296044
0.2539939090002008 0.45188080117244755 0.46165119687347334
0.2541842380005619 0.4528578407425501 0.4606741573033708
0.25437480800064804 0.4509037616023448 0.4636052760136786
0.2545658770004593 0.45188080117244755 0.46262823644357587
0.2547565400000167 0.45188080117244755 0.4636052760136786
0.25494679500025086 0.4479726428920372 0.467513434294089
0.25513738300014666 0.44894968246213973 0.467513434294089
0.2553280270003597 0.4479726428920372 0.47435271128480694
0.2555188559999806 0.4538348803126526 0.4763067904250122
0.25570937000065896 0.4509037616023448 0.486077186126038
0.2559066800004075 0.44894968246213973 0.4851001465559355
0.25610093500017683 0.4509037616023448 0.48705422569614076
0.25629861500055995 0.44894968246213973 0.4851001465559355
0.2565060370006904 0.44699560332193444 0.4782608695652173
0.2566996800005654 0.44699560332193444 0.47435271128480694
0.25689139800033445 0.4460185637518319 0.46946751343429405
0.25708232000033604 0.4430874450415241 0.46946751343429405
0.2572726860007606 0.4460185637518319 0.467513434294089
0.25746310700014874 0.4460185637518319 0.467513434294089
0.25765428800059453 0.4450415241817294 0.4655593551538837
0.25784535799994046 0.4450415241817294 0.46262823644357587
0.2580355760001112 0.44699560332193444 0.45969711773326827
0.2582264230004512 0.4450415241817294 0.457743038593063
0.2584164370000508 0.4430874450415241 0.44992672203224227
0.2586092110004756 0.4430874450415241 0.44699560332193444
0.25880676199994923 0.4430874450415241 0.4401563263312165
0.2590053310004805 0.44699560332193444 0.4382022471910112
0.2592137150004419 0.4479726428920372 0.4303859306301905
0.2594157110006563 0.44894968246213973 0.431362970200293
0.25961444699987624 0.44992672203224227 0.4333170493404983
0.25981544200021744 0.4528578407425501 0.4333170493404983
0.26002419700034807 0.4509037616023448 0.431362970200293
0.26028654200035817 0.4557889594528579 0.4333170493404983
0.2605295550001756 0.4509037616023448 0.43722520762090866
0.2607888090005872 0.44992672203224227 0.43624816805080613
0.261065728000176 0.4509037616023448 0.441133365901319
0.2612920750007106 0.4538348803126526 0.44992672203224227
0.26151779200063174 0.4509037616023448 0.45188080117244755
0.2617478050005957 0.45676599902296044 0.4557889594528579
0.2619878000004974 0.45188080117244755 0.4587200781631655
0.2622133869999743 0.45188080117244755 0.4587200781631655
0.2624225120007395 0.45481191988275516 0.45969711773326827
0.26263048900000285 0.44992672203224227 0.4557889594528579
0.26283496500036563 0.44992672203224227 0.4538348803126526
0.26303735000055894 0.4479726428920372 0.44699560332193444
0.2632359560002442 0.4479726428920372 0.4479726428920372
0.2634359890007545 0.44992672203224227 0.44211040547142155
0.26365989100031584 0.4479726428920372 0.4401563263312165
0.2638938300005975 0.4479726428920372 0.43917928676111373
0.2641291390000333 0.4460185637518319 0.44211040547142155
0.26436267100052646 0.4460185637518319 0.4479726428920372
0.26464373900034843 0.45188080117244755 0.45676599902296044
0.2648589380005433 0.45188080117244755 0.46458231558378116
0.2650716550006109 0.4509037616023448 0.46946751343429405
0.26528189100008603 0.4509037616023448 0.4733756717147044
0.2654924790003861 0.4528578407425501 0.47239863214460187
0.2657024919999458 0.44992672203224227 0.4684904738641915
0.2659451720001016 0.44699560332193444 0.4655593551538837
0.26617533300031937 0.44992672203224227 0.46262823644357587
0.26638221700068243 0.44992672203224227 0.4587200781631655
0.2665861940004106 0.44894968246213973 0.45676599902296044
0.26679254100054095 0.44699560332193444 0.44992672203224227
0.2670113140002286 0.4450415241817294 0.4450415241817294
0.26726540100025886 0.4430874450415241 0.4401563263312165
0.2675045060004777 0.4450415241817294 0.43722520762090866
0.2677365200006534 0.4479726428920372 0.4382022471910112
0.2679303120003169 0.44992672203224227 0.4382022471910112
0.2681224369998745 0.4479726428920372 0.43624816805080613
0.26831385800051066 0.4479726428920372 0.43429408891060084
0.26852655699985917 0.44894968246213973 0.43429408891060084
0.26871734900032607 0.4509037616023448 0.43624816805080613
0.2689077519999046 0.44894968246213973 0.43429408891060084
0.26910204400064686 0.4509037616023448 0.43624816805080613
0.2692955760003315 0.4479726428920372 0.4352711284807034
0.26953534899985243 0.44699560332193444 0.4333170493404983
0.2697279920002984 0.4479726428920372 0.4303859306301905
0.26991895100036345 0.4460185637518319 0.4303859306301905
0.2701097059998574 0.4450415241817294 0.4303859306301905
0.2703004240001974 0.4450415241817294 0.431362970200293
0.27049084500049503 0.44406448461162684 0.431362970200293
0.2706813040003908 0.4430874450415241 0.431362970200293
0.2708725400007097 0.44211040547142155 0.4333170493404983
0.27106283200009784 0.44406448461162684 0.43429408891060084
0.2712546430002476 0.441133365901319 0.43429408891060084
0.2714452310001434 0.441133365901319 0.43429408891060084
0.2716353189998699 0.441133365901319 0.4382022471910112
0.2718258519998926 0.441133365901319 0.43722520762090866
0.2720165700002326 0.4430874450415241 0.4382022471910112
0.2722073620006995 0.4450415241817294 0.4382022471910112
0.2724012460002996 0.4430874450415241 0.43722520762090866
0.2726210930004527 0.44699560332193444 0.4401563263312165
0.27281207000032737 0.4460185637518319 0.44211040547142155
0.27300538000054075 0.4460185637518319 0.44894968246213973
0.27320645000054355 0.44894968246213973 0.4528578407425501
0.2734089450004831 0.44992672203224227 0.45969711773326827
0.2736055519999354 0.4509037616023448 0.46262823644357587
0.2738054360006572 0.45188080117244755 0.4665363947239862
0.27399919100025727 0.4509037616023448 0.4665363947239862
0.27418989000034344 0.4528578407425501 0.4655593551538837
0.27438275600070483 0.4538348803126526 0.4655593551538837
0.2745749000005162 0.4538348803126526 0.4655593551538837
0.274766969000666 0.4528578407425501 0.467513434294089
0.27495974300018133 0.4538348803126526 0.4665363947239862
0.27515216400024656 0.4509037616023448 0.46458231558378116
0.2753652890005469 0.4557889594528579 0.4636052760136786
0.27555765500073903 0.4538348803126526 0.467513434294089
0.2757486139998946 0.45188080117244755 0.4665363947239862
0.2759396090004884 0.45676599902296044 0.46946751343429405
0.27613256800032104 0.45481191988275516 0.47142159257449934
0.27632328600066103 0.457743038593063 0.4811919882755251
0.2765168550004091 0.45676599902296044 0.4831460674157304
0.27671012900009373 0.45969711773326827 0.4851001465559355
0.2769089390003501 0.457743038593063 0.4851001465559355
0.2771199710005021 0.46165119687347334 0.4851001465559355
0.2773409290002746 0.4587200781631655 0.4831460674157304
0.27755846099989867 0.45969711773326827 0.4753297508549097
0.2777822340003695 0.457743038593063 0.4704445530043966
0.2779742660004558 0.45481191988275516 0.46458231558378116
0.2781695210005637 0.45481191988275516 0.4606741573033708
0.2783600350003326 0.4557889594528579 0.45676599902296044
0.27855153100063035 0.45676599902296044 0.45481191988275516
0.2787495820002732 0.4538348803126526 0.44992672203224227
0.27894317000027513 0.45676599902296044 0.44894968246213973
0.27913461000025563 0.45481191988275516 0.4509037616023448
0.2793259760001092 0.46458231558378116 0.44992672203224227
0.2795191570003226 0.4557889594528579 0.4479726428920372
0.2797104860001127 0.44992672203224227 0.4509037616023448
0.27990153700011433 0.44894968246213973 0.45188080117244755
0.28009268100049667 0.4460185637518319 0.4509037616023448
0.28028365800037136 0.4479726428920372 0.44992672203224227
0.28047398700073245 0.4479726428920372 0.4450415241817294
0.28068835200065223 0.44699560332193444 0.44406448461162684
0.2808808110003156 0.4460185637518319 0.44406448461162684
0.28107273200021154 0.4509037616023448 0.4450415241817294
0.2812633760004246 0.4479726428920372 0.44406448461162684
0.2814544640004897 0.44894968246213973 0.4450415241817294
0.2816453490004278 0.44992672203224227 0.44406448461162684
0.2818454369999017 0.44992672203224227 0.44211040547142155
0.2820370620001995 0.44894968246213973 0.4430874450415241
0.2822287610006242 0.44894968246213973 0.44211040547142155
0.28241970100043545 0.44699560332193444 0.441133365901319
0.28261090100022557 0.44894968246213973 0.44406448461162684
0.28280250700026954 0.4479726428920372 0.4430874450415241
0.2829934100000173 0.44699560332193444 0.44406448461162684
0.2831848870000613 0.4528578407425501 0.4430874450415241
0.2833804940000846 0.4538348803126526 0.44992672203224227
0.2835722859999805 0.4479726428920372 0.44699560332193444
0.2837634480001725 0.44992672203224227 0.4460185637518319
0.2839545550004914 0.4509037616023448 0.4460185637518319
0.284145291000641 0.44894968246213973 0.4430874450415241
0.2843364720001773 0.44894968246213973 0.441133365901319
0.28452754200043273 0.44992672203224227 0.4382022471910112
0.28471801900013816 0.44992672203224227 0.4382022471910112
0.2849096810004994 0.44699560332193444 0.4382022471910112
0.2851001400003952 0.44992672203224227 0.4382022471910112
0.285291172000143 0.44992672203224227 0.43722520762090866
0.28548518600018724 0.4509037616023448 0.43722520762090866
0.28567631200075994 0.44992672203224227 0.43624816805080613
0.2858670850000635 0.44894968246213973 0.4352711284807034
0.28606998800023575 0.4460185637518319 0.4352711284807034
0.2862606870003219 0.4479726428920372 0.43624816805080613
0.28645201600011205 0.44992672203224227 0.4333170493404983
0.28664280800057895 0.44699560332193444 0.43429408891060084
0.28683365500000946 0.4479726428920372 0.43429408891060084
0.2870246140000745 0.44894968246213973 0.4333170493404983
0.28721516499990685 0.4479726428920372 0.4382022471910112
0.2874059940004372 0.4509037616023448 0.43624816805080613
0.28759693400024844 0.45188080117244755 0.43429408891060084
0.2877875970007153 0.4509037616023448 0.4333170493404983
0.2879790370006958 0.4538348803126526 0.4382022471910112
0.28816975400059164 0.4528578407425501 0.43917928676111373
0.2883609720001914 0.45188080117244755 0.44211040547142155
0.2885517830000026 0.4528578407425501 0.4460185637518319
0.28874290800013114 0.4528578407425501 0.44992672203224227
0.2889372919999005 0.4509037616023448 0.45188080117244755
0.28914302800058067 0.44992672203224227 0.45676599902296044
0.28934400500020274 0.44992672203224227 0.4587200781631655
0.2895345750002889 0.44894968246213973 0.46165119687347334
0.28972462599995197 0.4479726428920372 0.46262823644357587
0.28991451100046106 0.44699560332193444 0.4606741573033708
0.2901060250005685 0.44894968246213973 0.4606741573033708
0.29029822400025296 0.44894968246213973 0.4606741573033708
0.29048901600071986 0.4509037616023448 0.46262823644357587
0.2906806040000447 0.45969711773326827 0.45969711773326827
0.29087115499987704 0.45188080117244755 0.457743038593063
0.2910613550002381 0.4509037616023448 0.4606741573033708
0.29125218399985897 0.45481191988275516 0.45676599902296044
0.29144267900028353 0.45188080117244755 0.4557889594528579
0.29163367500041204 0.4509037616023448 0.4538348803126526
0.29182480000054056 0.44406448461162684 0.45188080117244755
0.29202038800031005 0.44406448461162684 0.4509037616023448
0.2922179020006297 0.44406448461162684 0.44992672203224227
0.2924181940006747 0.441133365901319 0.4460185637518319
0.29262785599985364 0.43917928676111373 0.44699560332193444
0.2928294620005545 0.44211040547142155 0.4460185637518319
0.2930342540003039 0.441133365901319 0.4450415241817294
0.2932352490006451 0.44406448461162684 0.44699560332193444
0.2934473559998878 0.4430874450415241 0.44992672203224227
0.29367503600042255 0.44406448461162684 0.4460185637518319
0.2939340850007284 0.44406448461162684 0.44894968246213973
0.2941803200001232 0.44211040547142155 0.45481191988275516
0.294445703000747 0.44406448461162684 0.4528578407425501
0.2946866600004796 0.44699560332193444 0.4509037616023448
0.2948916929999541 0.44894968246213973 0.45188080117244755
0.29509361400050693 0.44992672203224227 0.44699560332193444
0.2952967390001504 0.44992672203224227 0.4479726428920372
0.29549334600051225 0.45188080117244755 0.44699560332193444
0.2957065820000935 0.44894968246213973 0.44992672203224227
0.2959381500004383 0.44406448461162684 0.4538348803126526
0.29621182900064014 0.44211040547142155 0.4587200781631655
0.2965536550000252 0.4479726428920372 0.4557889594528579
0.2968846100002338 0.44699560332193444 0.4557889594528579
0.2971976580001865 0.44894968246213973 0.45969711773326827
0.2974570970000059 0.44894968246213973 0.45969711773326827
0.2977094610005224 0.4479726428920372 0.45969711773326827
0.2979745290003848 0.44992672203224227 0.4557889594528579
0.29822752400013997 0.4509037616023448 0.4528578407425501
0.2984589630004848 0.45188080117244755 0.4538348803126526
0.298708827000155 0.4528578407425501 0.4538348803126526
0.2989165449998836 0.4557889594528579 0.45481191988275516
0.2991081700001814 0.45481191988275516 0.45676599902296044
0.29929951800022536 0.457743038593063 0.45481191988275516
0.29949186500016367 0.4587200781631655 0.45481191988275516
0.2996876940005677 0.457743038593063 0.4557889594528579
0.2998787450005693 0.457743038593063 0.45481191988275516
0.30007014800048637 0.4587200781631655 0.4557889594528579
0.30026060700038215 0.4587200781631655 0.45676599902296044
0.30045184300070105 0.4587200781631655 0.457743038593063
0.30065817200011224 0.45676599902296044 0.4557889594528579
0.300850999999966 0.4557889594528579 0.4587200781631655
0.3010417370005598 0.457743038593063 0.457743038593063
0.30123254699992685 0.4557889594528579 0.45969711773326827
0.30142306100060523 0.4528578407425501 0.46458231558378116
0.30161433500052226 0.457743038593063 0.46165119687347334
0.3018052560000797 0.46458231558378116 0.46458231558378116
0.3019962329999544 0.4557889594528579 0.46262823644357587
0.3021868030000405 0.45676599902296044 0.4606741573033708
0.3023780950006767 0.4538348803126526 0.4606741573033708
0.3025684430003821 0.45188080117244755 0.457743038593063
0.30275990100017225 0.4528578407425501 0.45481191988275516
0.30295043400019495 0.4528578407425501 0.4538348803126526
0.30314120700040803 0.4528578407425501 0.44894968246213973
0.30333201800021925 0.4538348803126526 0.4430874450415241
0.30352343899994594 0.45676599902296044 0.4382022471910112
0.30374165600005654 0.45969711773326827 0.4323400097703958
0.30393233700033306 0.4684904738641915 0.4303859306301905
0.3041237590005039 0.45969711773326827 0.42452369320957506
0.3043147360003786 0.4587200781631655 0.4176844162188569
0.304511435000677 0.45481191988275516 0.4186614557889594
0.3047023570006786 0.4528578407425501 0.4157303370786516
0.3048925560005955 0.45188080117244755 0.4206155349291647
0.3050841260001107 0.45188080117244755 0.42452369320957506
0.3052758250005354 0.4509037616023448 0.4303859306301905
0.3054667280002832 0.4528578407425501 0.4323400097703958
0.305656872000327 0.4509037616023448 0.4333170493404983
0.3058476270007304 0.45188080117244755 0.431362970200293
0.30603782600064733 0.4509037616023448 0.43624816805080613
0.30622802500056423 0.457743038593063 0.43722520762090866
0.30641811300029076 0.45188080117244755 0.4352711284807034
0.30660864600031346 0.45188080117244755 0.4352711284807034
0.30679891999989195 0.4538348803126526 0.43624816805080613
0.3069896560000416 0.45481191988275516 0.441133365901319
0.30718068900023354 0.45676599902296044 0.44406448461162684
0.3073712400000659 0.4538348803126526 0.44699560332193444
0.3075616430005539 0.4538348803126526 0.45481191988275516
0.3077639900002396 0.44894968246213973 0.457743038593063
0.3079542630002834 0.44894968246213973 0.4587200781631655
0.3081459069999255 0.44894968246213973 0.45969711773326827
0.3083370690001175 0.4479726428920372 0.45676599902296044
0.3085334719999082 0.4479726428920372 0.4606741573033708
0.3087256349999734 0.4528578407425501 0.457743038593063
0.3089163519998692 0.44992672203224227 0.4587200781631655
0.3091066070001034 0.4479726428920372 0.457743038593063
0.3092964730003587 0.44699560332193444 0.45481191988275516
0.30948737600010645 0.44699560332193444 0.45676599902296044
0.3096783159999177 0.44699560332193444 0.44894968246213973
0.309870533999856 0.44699560332193444 0.44699560332193444
0.3100725849999435 0.44894968246213973 0.4450415241817294
0.31027843199990457 0.44699560332193444 0.4401563263312165
0.31050276000041777 0.44699560332193444 0.43722520762090866
0.3107300520005083 0.44699560332193444 0.43917928676111373
0.31093776900070225 0.4509037616023448 0.4352711284807034
0.31113596800059895 0.44894968246213973 0.43624816805080613
0.31132701900060056 0.45188080117244755 0.43624816805080613
0.31151762600075017 0.4509037616023448 0.4352711284807034
0.3117086770007518 0.45188080117244755 0.43917928676111373
0.31192759800069325 0.44992672203224227 0.4382022471910112
0.3121198720000393 0.44992672203224227 0.43917928676111373
0.3123126999998931 0.44894968246213973 0.4382022471910112
0.3125294550000035 0.44992672203224227 0.43722520762090866
0.31272143200021674 0.44992672203224227 0.43624816805080613
0.31291229799990106 0.44992672203224227 0.4382022471910112
0.3131181260005178 0.44992672203224227 0.43722520762090866
0.31331108500035043 0.4509037616023448 0.441133365901319
0.3135020440004155 0.45188080117244755 0.44406448461162684
0.313693298000544 0.4479726428920372 0.4479726428920372
0.31388423800035525 0.44894968246213973 0.45188080117244755
0.31407502999991266 0.44699560332193444 0.4528578407425501
0.314265730000443 0.44894968246213973 0.4538348803126526
0.31445700299991586 0.4509037616023448 0.45481191988275516
0.31464777600012894 0.4557889594528579 0.4538348803126526
0.31484103100046923 0.4528578407425501 0.4509037616023448
0.31504030500036606 0.4538348803126526 0.4528578407425501
0.3152418180006862 0.45481191988275516 0.4587200781631655
0.31544131400005426 0.45676599902296044 0.4606741573033708
0.31563242100037314 0.457743038593063 0.46262823644357587
0.3158231940005862 0.45676599902296044 0.4655593551538837
0.3160159120006938 0.457743038593063 0.4665363947239862
0.31620655599999736 0.457743038593063 0.4733756717147044
0.31639869900027406 0.46165119687347334 0.4763067904250122
0.31660834300055285 0.4557889594528579 0.4831460674157304
0.3167989490002583 0.4557889594528579 0.48998534440644836
0.3169898149999426 0.4557889594528579 0.49975574010747437
0.31718075500066334 0.45481191988275516 0.5095261358085001
0.3173720660006438 0.4528578407425501 0.5134342940889105
0.3175630430005185 0.4479726428920372 0.5163654127992183
0.31775370500054123 0.44699560332193444 0.5144113336590133
0.31794399699992937 0.44699560332193444 0.5056179775280898
0.3181389930005025 0.4479726428920372 0.49682462139716654
0.31833193300008134 0.4479726428920372 0.48900830483634583
0.3185222430001886 0.4460185637518319 0.4802149487054226
0.31871344200044405 0.44992672203224227 0.47435271128480694
0.31890360500074166 0.44699560332193444 0.46946751343429405
0.31909411900051055 0.44894968246213973 0.46458231558378116
0.3192843000006178 0.4479726428920372 0.4587200781631655
0.3194767770000908 0.4479726428920372 0.4538348803126526
0.3196680870005366 0.4509037616023448 0.4509037616023448
0.31985936100045365 0.44699560332193444 0.44699560332193444
0.32005157799994777 0.44992672203224227 0.44406448461162684
0.32027986899993266 0.44894968246213973 0.4450415241817294
0.32047384599991346 0.45188080117244755 0.4450415241817294
0.3206883420007216 0.44992672203224227 0.44406448461162684
0.3208792080004059 0.4509037616023448 0.4430874450415241
0.3210706850004499 0.4557889594528579 0.44211040547142155
0.3212607730001764 0.45188080117244755 0.4401563263312165
0.32145269400007237 0.4509037616023448 0.43917928676111373
0.3216493750005611 0.44894968246213973 0.441133365901319
0.3218405560000974 0.44992672203224227 0.4450415241817294
0.32203147700056434 0.44992672203224227 0.44211040547142155
0.32222752800043963 0.45188080117244755 0.44406448461162684
0.32242926500020985 0.45188080117244755 0.44406448461162684
0.32263290800074174 0.45188080117244755 0.44211040547142155
0.32283382900004653 0.457743038593063 0.4382022471910112
0.32302697300019645 0.45676599902296044 0.43917928676111373
0.32321828400017694 0.4557889594528579 0.4401563263312165
0.3234087790006015 0.457743038593063 0.4352711284807034
0.32359953400009545 0.45676599902296044 0.4333170493404983
0.32379077000041434 0.4538348803126526 0.4303859306301905
0.32398222900064866 0.4538348803126526 0.42940889106008795
0.3241750390006928 0.4538348803126526 0.4255007327796776
0.3243661830001656 0.44699560332193444 0.4255007327796776
0.32457388200054993 0.44699560332193444 0.4333170493404983
0.3247669890006364 0.45188080117244755 0.43624816805080613
0.3249572620006802 0.44699560332193444 0.441133365901319
0.3251501470003859 0.44992672203224227 0.44699560332193444
0.3253560680004739 0.45188080117244755 0.4528578407425501
0.3255548600000111 0.4538348803126526 0.457743038593063
0.3257622810006069 0.4509037616023448 0.45969711773326827
0.32596955400003935 0.44992672203224227 0.46262823644357587
0.32617510500040225 0.44894968246213973 0.45676599902296044
0.32637687800070125 0.44894968246213973 0.457743038593063
0.32658046600045054 0.45188080117244755 0.4528578407425501
0.3267856649999885 0.44699560332193444 0.44699560332193444
0.32700447400020494 0.44992672203224227 0.44406448461162684
0.32721809900067456 0.44699560332193444 0.43917928676111373
0.32741779800016957 0.44894968246213973 0.4333170493404983
0.3276142570002776 0.4528578407425501 0.4284318514899854
0.3278164560006189 0.44894968246213973 0.42159257449926724
0.3280182660000719 0.4509037616023448 0.4176844162188569
0.32821787200009567 0.45481191988275516 0.4108451392281387
0.3284202200002255 0.45188080117244755 0.40889106008793363
0.32863286300016625 0.44894968246213973 0.40889106008793363
0.3288925050001126 0.4528578407425501 0.40693698094772834
0.3291051480000533 0.4538348803126526 0.4108451392281387
0.3293164770002477 0.4538348803126526 0.41670737664875435
0.3295176020001236 0.45676599902296044 0.41963849535906195
0.32973831900017103 0.4636052760136786 0.4284318514899854
0.33000068300043495 0.45969711773326827 0.4352711284807034
0.3302943620001315 0.4606741573033708 0.4430874450415241
0.33060570700035896 0.467513434294089 0.45188080117244755
0.3308831080003074 0.46165119687347334 0.45188080117244755
0.3311419540004863 0.4587200781631655 0.4528578407425501
0.3314168550004979 0.4557889594528579 0.4538348803126526
0.3316497200003141 0.45188080117244755 0.4538348803126526
0.3318756030002987 0.4528578407425501 0.457743038593063
0.33206882100057555 0.4528578407425501 0.46165119687347334
0.3322595760000695 0.44992672203224227 0.4665363947239862
0.33245092300057877 0.4538348803126526 0.4704445530043966
0.3326439560005383 0.4479726428920372 0.46946751343429405
0.33283508100066683 0.44406448461162684 0.4733756717147044
0.3330275210000764 0.4430874450415241 0.47435271128480694
0.33322636899993086 0.4430874450415241 0.4802149487054226
0.33345830800044496 0.44211040547142155 0.48412310698583294
0.3336526180000874 0.441133365901319 0.48412310698583294
0.3338429470004485 0.4401563263312165 0.48705422569614076
0.3340345910000906 0.4382022471910112 0.48705422569614076
0.3342264379998596 0.4382022471910112 0.4851001465559355
0.3344182670007285 0.4352711284807034 0.47923790913532005
0.3346093740001379 0.43722520762090866 0.4733756717147044
0.3348004440003933 0.43917928676111373 0.4684904738641915
0.334990865000691 0.44211040547142155 0.46262823644357587
0.3351819160006926 0.4460185637518319 0.45969711773326827
0.3353725420001865 0.4450415241817294 0.4587200781631655
0.3355632040002092 0.4479726428920372 0.4587200781631655
0.3357539220005492 0.4479726428920372 0.4587200781631655
0.33594550999987405 0.4479726428920372 0.46458231558378116
0.33613589400010824 0.44894968246213973 0.4665363947239862
0.3363262230004693 0.4538348803126526 0.46946751343429405
0.3365168860000267 0.45188080117244755 0.46946751343429405
0.33670875200004957 0.4509037616023448 0.4684904738641915
0.3369000620004954 0.4528578407425501 0.46946751343429405
0.3370915760006028 0.45188080117244755 0.4665363947239862
0.33728396100013924 0.44992672203224227 0.4636052760136786
0.33747584499997174 0.45188080117244755 0.46165119687347334
0.33767859999989014 0.45188080117244755 0.4587200781631655
0.33787003999987064 0.4538348803126526 0.45481191988275516
0.3380614980005703 0.4528578407425501 0.4557889594528579
0.3382544570004029 0.45481191988275516 0.4557889594528579
0.33844661900002393 0.4528578407425501 0.45188080117244755
0.33863961499992 0.4509037616023448 0.44992672203224227
0.33883138800047163 0.4509037616023448 0.45188080117244755
0.3390228650005156 0.44894968246213973 0.4538348803126526
0.33921434200055955 0.44992672203224227 0.4528578407425501
0.3394060600003286 0.44894968246213973 0.45676599902296044
0.33959707400026673 0.4479726428920372 0.4538348803126526
0.33978892200047994 0.44894968246213973 0.4528578407425501
0.33998002800035465 0.4509037616023448 0.45188080117244755
0.340172043000166 0.45188080117244755 0.4509037616023448
0.34036396400006197 0.4528578407425501 0.4479726428920372
0.340559349000614 0.4509037616023448 0.4460185637518319
0.3407510289998754 0.45188080117244755 0.4460185637518319
0.34094217300025775 0.4557889594528579 0.44699560332193444
0.3411340950005979 0.4538348803126526 0.4528578407425501
0.34132686800057854 0.4538348803126526 0.4538348803126526
0.3415190120003899 0.4557889594528579 0.4538348803126526
0.3417104520003704 0.4528578407425501 0.45969711773326827
0.3419242990003113 0.4538348803126526 0.46165119687347334
0.34211549800056673 0.4538348803126526 0.45969711773326827
0.34230708599989157 0.4557889594528579 0.4587200781631655
0.34249961900059134 0.4557889594528579 0.45481191988275516
0.34269113300069876 0.457743038593063 0.44992672203224227
0.34288236900010816 0.4538348803126526 0.4460185637518319
0.3430742540003848 0.45188080117244755 0.44211040547142155
0.34326539799985767 0.4538348803126526 0.4352711284807034
0.34345654100070533 0.4509037616023448 0.4323400097703958
0.3436492040000303 0.4538348803126526 0.42940889106008795
0.34384236599998985 0.4538348803126526 0.42940889106008795
0.3440394910003306 0.45188080117244755 0.42940889106008795
0.3442503750002288 0.44992672203224227 0.42745481191988266
0.3444775550005943 0.44992672203224227 0.4255007327796776
0.3447471230001611 0.4479726428920372 0.4284318514899854
0.3449531920005029 0.4479726428920372 0.42940889106008795
0.3451444660004199 0.44699560332193444 0.42745481191988266
0.345335239000633 0.44894968246213973 0.4303859306301905
0.34552599400012696 0.44992672203224227 0.4264777723497801
0.34588481900027546 0.4528578407425501 0.4284318514899854
0.34613085000000865 0.44992672203224227 0.42745481191988266
0.3463233640004546 0.4509037616023448 0.4284318514899854
0.34651554500032944 0.4538348803126526 0.4303859306301905
0.34670752200054267 0.4528578407425501 0.4333170493404983
0.34689785099999426 0.45188080117244755 0.4352711284807034
0.3470928280003136 0.4538348803126526 0.4401563263312165
0.34728417600035755 0.4509037616023448 0.44211040547142155
0.34747541200067644 0.4528578407425501 0.44699560332193444
0.34766594500069914 0.4509037616023448 0.44992672203224227
0.3478570140005104 0.4528578407425501 0.4528578407425501
0.3480477319999409 0.4528578407425501 0.45676599902296044
0.3482380800005558 0.4509037616023448 0.4587200781631655
0.34842898300030356 0.44894968246213973 0.46458231558378116
0.34862605200032704 0.44992672203224227 0.4606741573033708
0.34881758500068827 0.44992672203224227 0.45969711773326827
0.34900959900005546 0.44992672203224227 0.46165119687347334
0.3492020580006283 0.44992672203224227 0.46262823644357587
0.3493932750006934 0.44699560332193444 0.4655593551538837
0.3495838080007161 0.44699560332193444 0.4684904738641915
0.3497751740005697 0.4450415241817294 0.46946751343429405
0.34996666999995796 0.44699560332193444 0.4704445530043966
0.3501577390006787 0.44992672203224227 0.47142159257449934
0.3503485870005534 0.45188080117244755 0.46946751343429405
0.3505391750004492 0.44894968246213973 0.47142159257449934
0.3507292820004295 0.4509037616023448 0.4704445530043966
0.35092520299986063 0.44992672203224227 0.4684904738641915
0.351118698999926 0.4538348803126526 0.46458231558378116
0.3513096390006467 0.44894968246213973 0.46458231558378116
0.35150057900045795 0.4460185637518319 0.4606741573033708
0.351690944999973 0.4538348803126526 0.457743038593063
0.3518806810006936 0.4460185637518319 0.4557889594528579
0.35207171399997605 0.4460185637518319 0.45188080117244755
0.35226191299989296 0.4460185637518319 0.4528578407425501
0.3524533720001273 0.44699560332193444 0.4538348803126526
0.3526450899998963 0.4479726428920372 0.4509037616023448
0.35283551100019395 0.4460185637518319 0.44992672203224227
0.3530286180002804 0.4479726428920372 0.44992672203224227
0.3532190949999858 0.44992672203224227 0.44894968246213973
0.35340970200013544 0.4509037616023448 0.44992672203224227
0.35359997500017926 0.45481191988275516 0.4528578407425501
0.3537902670004769 0.4557889594528579 0.4528578407425501
0.3539804110005207 0.4528578407425501 0.4509037616023448
0.354171277000205 0.4557889594528579 0.4528578407425501
0.3543866979998711 0.4557889594528579 0.45969711773326827
0.35457745300027455 0.4557889594528579 0.46262823644357587
0.35476772600031836 0.45676599902296044 0.4655593551538837
0.3549585549999392 0.4538348803126526 0.4704445530043966
0.35514981000051193 0.4606741573033708 0.47435271128480694
0.3553405279999424 0.4528578407425501 0.47728382999511476
0.35553882000021986 0.45188080117244755 0.47728382999511476
0.3557467410000754 0.45188080117244755 0.47728382999511476
0.3559567540005446 0.44992672203224227 0.47728382999511476
0.35615488000075857 0.4479726428920372 0.4763067904250122
0.356346838000718 0.44894968246213973 0.4733756717147044
0.35654020400033914 0.4479726428920372 0.4733756717147044
0.35673325500010833 0.45188080117244755 0.47239863214460187
0.35692412100070214 0.4460185637518319 0.4704445530043966
0.3571155240006192 0.4450415241817294 0.46946751343429405
0.3573067050001555 0.44211040547142155 0.4704445530043966
0.357497386000432 0.44406448461162684 0.47142159257449934
0.35768721500062384 0.44211040547142155 0.4753297508549097
0.3578836360002242 0.441133365901319 0.47923790913532005
0.35807516900058545 0.44406448461162684 0.4782608695652173
0.3582693680000375 0.4450415241817294 0.4811919882755251
0.3584847890006131 0.4460185637518319 0.47728382999511476
0.35869745099989814 0.44699560332193444 0.4733756717147044
0.35889668700019683 0.4450415241817294 0.4704445530043966
0.35909359000015684 0.4460185637518319 0.4684904738641915
0.35929549299999053 0.4460185637518319 0.46165119687347334
0.3595063580005444 0.4479726428920372 0.4557889594528579
0.359713112999998 0.44894968246213973 0.4509037616023448
0.359921349000615 0.44894968246213973 0.44211040547142155
0.36012528800074506 0.44992672203224227 0.4401563263312165
0.3603357470001356 0.4538348803126526 0.43624816805080613
0.3605452600004355 0.4538348803126526 0.4382022471910112
0.36075466300007974 0.4528578407425501 0.43722520762090866
0.3609576400003789 0.44992672203224227 0.43917928676111373
0.36115933900055097 0.45676599902296044 0.4382022471910112
0.3613572230005957 0.4528578407425501 0.441133365901319
0.36156027400011226 0.45188080117244755 0.43917928676111373
0.3617942500004574 0.45188080117244755 0.43917928676111373
0.3620419300004869 0.4509037616023448 0.43429408891060084
0.36228190600013477 0.44992672203224227 0.4352711284807034
0.3625031970004784 0.45188080117244755 0.4333170493404983
0.36274372800016863 0.45188080117244755 0.4303859306301905
0.3629588160001731 0.45188080117244755 0.4303859306301905
0.36322134700003517 0.4509037616023448 0.4284318514899854
0.36347548899993853 0.4528578407425501 0.4303859306301905
0.3637628720007342 0.4538348803126526 0.4333170493404983
0.36405690199990204 0.4509037616023448 0.43722520762090866
0.3643837090003217 0.4509037616023448 0.4401563263312165
0.36467536899999686 0.4538348803126526 0.44406448461162684
0.3649764360006884 0.44992672203224227 0.4352711284807034
0.3652300970006763 0.45481191988275516 0.4323400097703958
0.36543292600072164 0.4528578407425501 0.4323400097703958
0.3656254400002581 0.4509037616023448 0.42940889106008795
0.3658165650003866 0.45481191988275516 0.4255007327796776
0.3660086899999442 0.45481191988275516 0.4235466536394723
0.3661993900004745 0.4557889594528579 0.42745481191988266
0.3663904220002223 0.45969711773326827 0.431362970200293
0.366582307000499 0.4538348803126526 0.43624816805080613
0.3667732840003737 0.4538348803126526 0.44211040547142155
0.36696385400045983 0.4538348803126526 0.44699560332193444
0.3671582010001657 0.4528578407425501 0.4538348803126526
0.36734823400001915 0.4509037616023448 0.45188080117244755
0.36753902600048605 0.45188080117244755 0.4528578407425501
0.36772929900052986 0.4528578407425501 0.45481191988275516
0.36791957300010836 0.4528578407425501 0.4528578407425501
0.36810975300068094 0.44992672203224227 0.4479726428920372
0.368300712000746 0.45676599902296044 0.44992672203224227
0.36852067000017996 0.4538348803126526 0.4528578407425501
0.3687147760001608 0.4557889594528579 0.44992672203224227
0.3689056980001624 0.4557889594528579 0.44992672203224227
0.36909732300046016 0.4538348803126526 0.4479726428920372
0.3692880040007367 0.4538348803126526 0.4479726428920372
0.369481222000104 0.4528578407425501 0.4450415241817294
0.36967584700050793 0.45188080117244755 0.44894968246213973
0.36986819400044624 0.4509037616023448 0.44894968246213973
0.37005881999994017 0.44992672203224227 0.44992672203224227
0.37024907500017434 0.45676599902296044 0.45188080117244755
0.3704399590005778 0.4528578407425501 0.44992672203224227
0.3706303620001563 0.44894968246213973 0.45188080117244755
0.37082052400000975 0.45676599902296044 0.4538348803126526
0.37101074200018047 0.4528578407425501 0.45676599902296044
0.3712007560006896 0.4528578407425501 0.46262823644357587
0.37139160400056426 0.45481191988275516 0.4557889594528579
0.3715816920002908 0.45481191988275516 0.457743038593063
0.3717748170001869 0.4538348803126526 0.457743038593063
0.37201875600021594 0.4538348803126526 0.4587200781631655
0.3722119370004293 0.4538348803126526 0.457743038593063
0.37240334000034636 0.45188080117244755 0.4606741573033708
0.3725965020003059 0.4509037616023448 0.45969711773326827
0.3727870900002017 0.4528578407425501 0.4587200781631655
0.37297930800014 0.44992672203224227 0.45676599902296044
0.37317002600048 0.4538348803126526 0.457743038593063
0.3733607070007565 0.4509037616023448 0.4557889594528579
0.37355111000033503 0.4538348803126526 0.45969711773326827
0.373741828000675 0.44992672203224227 0.4557889594528579
0.3739318980005919 0.4509037616023448 0.4538348803126526
0.37412226400010695 0.4528578407425501 0.4557889594528579
0.37431253700015077 0.44992672203224227 0.457743038593063
0.3745029030005753 0.4528578407425501 0.4557889594528579
0.37469352800053457 0.4557889594528579 0.4587200781631655
0.37488385699998616 0.4538348803126526 0.45676599902296044
0.37508229700051743 0.45481191988275516 0.45481191988275516
0.3752735699999903 0.4528578407425501 0.45676599902296044
0.37546434400064754 0.4538348803126526 0.4509037616023448
0.3756554320007126 0.45188080117244755 0.44992672203224227
0.37584533500012185 0.45188080117244755 0.44894968246213973
0.3760354230007579 0.45188080117244755 0.44894968246213973
0.3762261780002518 0.45481191988275516 0.4479726428920372
0.37641937700027484 0.45188080117244755 0.4479726428920372
0.3766269280004053 0.4509037616023448 0.45188080117244755
0.3768411830005789 0.4538348803126526 0.45676599902296044
0.37704714100073033 0.4479726428920372 0.45481191988275516
0.37725639500058605 0.4528578407425501 0.4557889594528579
0.37745961300061026 0.44992672203224227 0.457743038593063
0.3776522380003371 0.4479726428920372 0.457743038593063
0.3778424560005078 0.4479726428920372 0.4587200781631655
0.3780368770003406 0.44992672203224227 0.45969711773326827
0.3782327990002159 0.44992672203224227 0.46458231558378116
0.3784234060003655 0.44992672203224227 0.467513434294089
0.3786140490001344 0.4538348803126526 0.47142159257449934
0.3788045820001571 0.45481191988275516 0.47728382999511476
0.3789954290004971 0.45481191988275516 0.4782608695652173
0.3791859809998641 0.45676599902296044 0.4782608695652173
0.3793774210007541 0.46165119687347334 0.4811919882755251
0.37956984199990984 0.4636052760136786 0.4802149487054226
0.37976026400065166 0.4606741573033708 0.48216902784562765
0.3799513330004629 0.45969711773326827 0.4802149487054226
0.38017147700065834 0.45676599902296044 0.4782608695652173
0.38036336100049084 0.4538348803126526 0.47728382999511476
0.3805572450000909 0.4509037616023448 0.47728382999511476
0.3807507780002197 0.44699560332193444 0.47142159257449934
0.38094282900055987 0.4450415241817294 0.47239863214460187
0.38113425100073073 0.441133365901319 0.467513434294089
0.3813258019999921 0.44211040547142155 0.4684904738641915
0.3815168529999937 0.4460185637518319 0.4684904738641915
0.38170747799995297 0.4430874450415241 0.46946751343429405
0.38189871500071604 0.4450415241817294 0.4684904738641915
0.3820895440003369 0.44699560332193444 0.4655593551538837
0.3822800210000423 0.44894968246213973 0.4665363947239862
0.38247094200050924 0.4450415241817294 0.46262823644357587
0.3826615309999397 0.4509037616023448 0.4606741573033708
0.38285376700059714 0.4509037616023448 0.457743038593063
0.38304409600004874 0.45188080117244755 0.44992672203224227
0.38323462800053676 0.44992672203224227 0.44406448461162684
0.38342692000060197 0.4528578407425501 0.43917928676111373
0.3836175270007516 0.45188080117244755 0.4333170493404983
0.3838082629999917 0.45188080117244755 0.4255007327796776
0.38399968500016257 0.4528578407425501 0.4206155349291647
0.38420516200039856 0.4528578407425501 0.42256961406936977
0.38439645400012523 0.4528578407425501 0.4137762579384465
0.38460317099998065 0.44992672203224227 0.40986809965803617
0.3847939450006379 0.4509037616023448 0.4059599413776258
0.38498547700055497 0.45188080117244755 0.40205178309721545
0.38517691700053547 0.44894968246213973 0.39912066438690763
0.38536782000028325 0.44992672203224227 0.3932584269662922
0.38555953800005227 0.4479726428920372 0.3961895456765998
0.3857500889998846 0.45188080117244755 0.3961895456765998
0.3859406960000342 0.4509037616023448 0.39912066438690763
0.3861319140005435 0.4528578407425501 0.4010747435271129
0.386322317000122 0.4538348803126526 0.40889106008793363
0.3865126460004831 0.45188080117244755 0.40986809965803617
0.3867033820006327 0.4509037616023448 0.412799218368344
0.38689374800014775 0.4509037616023448 0.41670737664875435
0.3870869100001073 0.4528578407425501 0.4186614557889594
0.38727833200027817 0.4479726428920372 0.42159257449926724
0.38746879100017395 0.4528578407425501 0.431362970200293
0.38765919400066196 0.457743038593063 0.43624816805080613
0.38784893000047305 0.45481191988275516 0.4382022471910112
0.388039963000665 0.45481191988275516 0.4479726428920372
0.38823090300047625 0.45481191988275516 0.4460185637518319
0.38843274999999267 0.4528578407425501 0.44894968246213973
0.388624338000227 0.45481191988275516 0.4509037616023448
0.3888157780002075 0.4557889594528579 0.457743038593063
0.3890063850003571 0.45481191988275516 0.45481191988275516
0.38919688100031635 0.457743038593063 0.45676599902296044
0.38938783899993723 0.45481191988275516 0.4587200781631655
0.3895782790004887 0.45188080117244755 0.4587200781631655
0.38976931200068066 0.4538348803126526 0.457743038593063
0.38996041900009004 0.45188080117244755 0.45481191988275516
0.3901520070003244 0.45188080117244755 0.4479726428920372
0.3903427989998818 0.4538348803126526 0.44406448461162684
0.39053342400075053 0.44992672203224227 0.441133365901319
0.39072408599986375 0.4509037616023448 0.4382022471910112
0.39091402600024594 0.45188080117244755 0.44211040547142155
0.3911040220000359 0.44894968246213973 0.44894968246213973
0.39129477700043935 0.45188080117244755 0.4528578407425501
0.39148568000018713 0.44992672203224227 0.4587200781631655
0.39167721300054836 0.45188080117244755 0.46165119687347334
0.3918719860002966 0.45188080117244755 0.4655593551538837
0.3920697030007432 0.4528578407425501 0.4665363947239862
0.3922672170001533 0.45188080117244755 0.46946751343429405
0.3924654170004942 0.4509037616023448 0.4733756717147044
0.39270500400016317 0.4528578407425501 0.4733756717147044
0.39290116600022884 0.44894968246213973 0.4802149487054226
0.39311068000006344 0.4479726428920372 0.4782608695652173
0.39331204500012973 0.4479726428920372 0.4753297508549097
0.393517707000683 0.44894968246213973 0.4763067904250122
0.3937209250007072 0.44894968246213973 0.47239863214460187
0.3939221050004562 0.44699560332193444 0.4704445530043966
0.3941210080001838 0.44406448461162684 0.46458231558378116
0.3943231890007155 0.44406448461162684 0.457743038593063
0.394521258000168 0.44699560332193444 0.4538348803126526
0.39472190200012847 0.44406448461162684 0.44992672203224227
0.39492848999998387 0.44406448461162684 0.4509037616023448
0.39512757800002873 0.44406448461162684 0.4479726428920372
0.3953294809998624 0.4460185637518319 0.44992672203224227
0.3955286430000342 0.44894968246213973 0.45188080117244755
0.3957279530004598 0.4509037616023448 0.4538348803126526
0.39592741100022977 0.4509037616023448 0.457743038593063
0.3961279810000633 0.44992672203224227 0.4636052760136786
0.39632632800021383 0.4460185637518319 0.4684904738641915
0.39653343400004815 0.4528578407425501 0.47728382999511476
0.39683896400038066 0.4509037616023448 0.47728382999511476
0.397078218000388 0.44406448461162684 0.4802149487054226
0.39729652799996984 0.4450415241817294 0.4802149487054226
0.397504060000756 0.44894968246213973 0.4802149487054226
0.39770666700042057 0.4479726428920372 0.48412310698583294
0.39790495800025383 0.44699560332193444 0.4831460674157304
0.398097121000319 0.4460185637518319 0.4782608695652173
0.3982977089999622 0.44894968246213973 0.4733756717147044
0.39851987000020017 0.44406448461162684 0.4684904738641915
0.39882993700030056 0.4509037616023448 0.46458231558378116
0.399105856999995 0.4528578407425501 0.4684904738641915
0.3993528700002571 0.4528578407425501 0.4606741573033708
0.3995965490003073 0.4557889594528579 0.4587200781631655
0.39983284000027197 0.4528578407425501 0.45969711773326827
0.4001115930004744 0.45188080117244755 0.457743038593063
0.4003700130006109 0.44992672203224227 0.4528578407425501
0.40064702500058047 0.4479726428920372 0.4509037616023448
0.40085763100069016 0.4509037616023448 0.44699560332193444
0.40106810799989034 0.44992672203224227 0.4450415241817294
0.4012632150006539 0.45188080117244755 0.44406448461162684
0.4014538960000209 0.4538348803126526 0.44211040547142155
0.401644669000234 0.45188080117244755 0.4430874450415241
0.40183516500019323 0.44992672203224227 0.44211040547142155
0.4020264380005756 0.44992672203224227 0.44406448461162684
0.4022169710005983 0.45188080117244755 0.44211040547142155
0.40240767000068445 0.4528578407425501 0.4450415241817294
0.40259851700011495 0.4528578407425501 0.4479726428920372
0.4027888090004126 0.45481191988275516 0.44894968246213973
0.40297919400018145 0.45481191988275516 0.4479726428920372
0.4031752820001202 0.45481191988275516 0.4528578407425501
0.4033771290005461 0.4528578407425501 0.45188080117244755
0.40357423600016773 0.4538348803126526 0.45188080117244755
0.4037655279998944 0.4557889594528579 0.4509037616023448
0.4039563940004882 0.44992672203224227 0.4460185637518319
0.40414714899998216 0.44992672203224227 0.4401563263312165
0.404338144000576 0.44894968246213973 0.441133365901319
0.40452982500028156 0.44894968246213973 0.4382022471910112
0.40472119100013515 0.4460185637518319 0.4303859306301905
0.4049120750005386 0.4479726428920372 0.4303859306301905
0.4051026080005613 0.44894968246213973 0.42745481191988266
0.4052936590005629 0.4509037616023448 0.4264777723497801
0.40548422900064907 0.4479726428920372 0.42940889106008795
0.4056758360002277 0.4479726428920372 0.4303859306301905
0.4058984600005715 0.4450415241817294 0.43624816805080613
0.406092567000087 0.4460185637518319 0.42940889106008795
0.4062839880007232 0.4450415241817294 0.42452369320957506
0.4064762060006615 0.441133365901319 0.4264777723497801
0.4066676649999863 0.441133365901319 0.4235466536394723
0.40685966000000917 0.43917928676111373 0.4255007327796776
0.40705173000060313 0.4382022471910112 0.42940889106008795
0.40724415200020303 0.4401563263312165 0.4352711284807034
0.4074364060006701 0.4401563263312165 0.4382022471910112
0.40762912399986817 0.43722520762090866 0.44699560332193444
0.40782036100063124 0.441133365901319 0.44211040547142155
0.40801167100016755 0.4401563263312165 0.44894968246213973
0.4082025000006979 0.44211040547142155 0.44406448461162684
0.40839486599998054 0.44211040547142155 0.44211040547142155
0.4086072130003231 0.44406448461162684 0.4401563263312165
0.40879959700032487 0.4430874450415241 0.4401563263312165
0.4089903520007283 0.44699560332193444 0.43917928676111373
0.4091814590001377 0.4460185637518319 0.4430874450415241
0.40937314000075276 0.44992672203224227 0.44699560332193444
0.4095639690003736 0.44992672203224227 0.4450415241817294
0.4097545380000156 0.44992672203224227 0.44699560332193444
0.40995349700006045 0.44992672203224227 0.44894968246213973
0.4101440479998928 0.4538348803126526 0.4450415241817294
0.4103349140004866 0.4460185637518319 0.4479726428920372
0.41052587300055166 0.44699560332193444 0.4450415241817294
0.4107166270005109 0.4460185637518319 0.44406448461162684
0.41090801200061833 0.44211040547142155 0.4450415241817294
0.4111154700003681 0.44699560332193444 0.44699560332193444
0.41132996500073205 0.44992672203224227 0.4460185637518319
0.4115495900005044 0.44699560332193444 0.4479726428920372
0.4117464370001471 0.4509037616023448 0.4450415241817294
0.4119377480001276 0.44992672203224227 0.45188080117244755
0.4121287799998754 0.4509037616023448 0.45188080117244755
0.4123189980000461 0.4528578407425501 0.4528578407425501
0.41251895599998534 0.4528578407425501 0.45481191988275516
0.4127100630003042 0.44992672203224227 0.4587200781631655
0.41290165100053855 0.4528578407425501 0.45969711773326827
0.41309257300054014 0.45188080117244755 0.45969711773326827
0.4132833829999072 0.45188080117244755 0.457743038593063
0.41347397200024716 0.4528578407425501 0.45676599902296044
0.4136650410000584 0.44992672203224227 0.45969711773326827
0.413859795999997 0.45676599902296044 0.457743038593063
0.41407719800008636 0.44992672203224227 0.45969711773326827
0.4142817860001742 0.44992672203224227 0.4636052760136786
0.41447431899996445 0.45188080117244755 0.46262823644357587
