0 0.44211040547142155 0.4704445530043966
0.0004543630002444843 0.44992672203224227 0.4655593551538837
0.0006690630007142317 0.44699560332193444 0.46458231558378116
0.0008696330005477648 0.4479726428920372 0.45969711773326827
0.0011043510003219126 0.44406448461162684 0.4538348803126526
0.0013120140001774416 0.44406448461162684 0.45481191988275516
0.0015046030002849875 0.44211040547142155 0.45188080117244755
0.0016932850003286148 0.4430874450415241 0.4509037616023448
0.0018835230002878234 0.4460185637518319 0.4528578407425501
0.0020733900000777794 0.4450415241817294 0.4538348803126526
0.002265090000037162 0.44699560332193444 0.45481191988275516
0.0024536790006095544 0.4479726428920372 0.4557889594528579
0.0026694160005718004 0.4479726428920372 0.4557889594528579
0.0028605980005522724 0.44992672203224227 0.4528578407425501
0.003049853999982588 0.44992672203224227 0.4528578407425501
0.003236665000258654 0.44992672203224227 0.45481191988275516
0.0034243290001541027 0.4479726428920372 0.4509037616023448
0.0036138069999651634 0.44992672203224227 0.45188080117244755
0.003801303000727785 0.4509037616023448 0.44894968246213973
0.0039882260007289005 0.44992672203224227 0.44699560332193444
0.004174962999968557 0.4509037616023448 0.44894968246213973
0.004361219000202254 0.44992672203224227 0.44699560332193444
0.004547494000689767 0.45969711773326827 0.4479726428920372
0.004733787000077427 0.44992672203224227 0.44699560332193444
0.0049199130007764325 0.45188080117244755 0.44992672203224227
0.005107373000100779 0.45188080117244755 0.4460185637518319
0.00529457300035574 0.4587200781631655 0.44699560332193444
0.005480866000652895 0.4538348803126526 0.4450415241817294
0.005667641000400181 0.45481191988275516 0.4460185637518319
0.005854822999936005 0.45481191988275516 0.4450415241817294
0.006042505000550591 0.45676599902296044 0.44406448461162684
0.006228890000784304 0.457743038593063 0.44211040547142155
0.006415276000552694 0.45481191988275516 0.44992672203224227
0.006605643000511918 0.4606741573033708 0.4401563263312165
0.006792064999899594 0.4606741573033708 0.4382022471910112
0.00702465399990615 0.46262823644357587 0.4401563263312165
0.007213317000605457 0.46165119687347334 0.4430874450415241
0.007399462000648782 0.46165119687347334 0.4401563263312165
0.007585644000755565 0.4587200781631655 0.441133365901319
0.007771937000143225 0.457743038593063 0.4382022471910112
0.007958563000102004 0.45676599902296044 0.441133365901319
0.00815428200075985 0.4538348803126526 0.4382022471910112
0.008342445000380394 0.45481191988275516 0.43722520762090866
0.00852899800065643 0.4557889594528579 0.43624816805080613
0.008716031000403746 0.4528578407425501 0.43429408891060084
0.00890234300004522 0.45481191988275516 0.4333170493404983
0.009090099000786722 0.45481191988275516 0.4303859306301905
0.009278262000407267 0.4538348803126526 0.431362970200293
0.009480999000516022 0.45969711773326827 0.4303859306301905
0.009675162000348791 0.4509037616023448 0.43624816805080613
0.009863252000286593 0.4528578407425501 0.4333170493404983
0.010091191999890725 0.4538348803126526 0.43624816805080613
0.010278300000209128 0.4528578407425501 0.43917928676111373
0.010466962999998941 0.45188080117244755 0.43624816805080613
0.010653145000105724 0.4509037616023448 0.441133365901319
0.010843216000466782 0.4479726428920372 0.44992672203224227
0.011032231000172033 0.44992672203224227 0.4450415241817294
0.01121909800076537 0.44992672203224227 0.4450415241817294
0.011407761000555183 0.4509037616023448 0.4450415241817294
0.011594666000746656 0.4479726428920372 0.44406448461162684
0.011781347000578535 0.4509037616023448 0.4450415241817294
0.011967084999923827 0.44992672203224227 0.4460185637518319
0.012153710999882605 0.4509037616023448 0.44894968246213973
0.01234143000056065 0.44894968246213973 0.4460185637518319
0.012532945000202744 0.4509037616023448 0.44894968246213973
0.012724183000500489 0.45188080117244755 0.4479726428920372
0.012910994000776554 0.4509037616023448 0.44894968246213973
0.013096732000121847 0.45188080117244755 0.44894968246213973
0.013282784000693937 0.45188080117244755 0.44992672203224227
0.013471169000695227 0.4479726428920372 0.4509037616023448
0.013657536000209802 0.44699560332193444 0.4528578407425501
0.013844181000422395 0.4460185637518319 0.45481191988275516
0.014032641000085277 0.4450415241817294 0.457743038593063
0.014219897000657511 0.4450415241817294 0.457743038593063
0.014406468000743189 0.44406448461162684 0.45969711773326827
0.014593075000448152 0.44211040547142155 0.45969711773326827
0.014780146000703098 0.4450415241817294 0.4606741573033708
0.014971069000239368 0.4450415241817294 0.457743038593063
0.01515889900019829 0.4450415241817294 0.457743038593063
0.015345894999882148 0.4460185637518319 0.4587200781631655
0.015532892000010179 0.4450415241817294 0.4587200781631655
0.015719685000476602 0.44894968246213973 0.45969711773326827
0.015906051999991178 0.44406448461162684 0.457743038593063
0.01609223400009796 0.44992672203224227 0.46165119687347334
0.01627886000005674 0.44406448461162684 0.4606741573033708
0.016464690000248083 0.4450415241817294 0.46262823644357587
0.01665244600008009 0.44406448461162684 0.46165119687347334
0.0168384620001234 0.4450415241817294 0.46458231558378116
0.017024403000505117 0.4450415241817294 0.4636052760136786
0.017211381000379333 0.4450415241817294 0.467513434294089
0.017398785000295902 0.441133365901319 0.4655593551538837
0.01758907800012821 0.441133365901319 0.4655593551538837
0.017778352000277664 0.4401563263312165 0.4655593551538837
0.017980719000661338 0.44211040547142155 0.46458231558378116
0.01817712299998675 0.441133365901319 0.467513434294089
0.018364546000157134 0.44211040547142155 0.4655593551538837
0.018551376000687014 0.4450415241817294 0.4655593551538837
0.01873990900003264 0.44406448461162684 0.4655593551538837
0.018935943000542466 0.44211040547142155 0.4655593551538837
0.019123347000459034 0.44211040547142155 0.4636052760136786
0.019311325000671786 0.43917928676111373 0.46458231558378116
0.019497915000101784 0.44211040547142155 0.467513434294089
0.019685763000779843 0.44699560332193444 0.4636052760136786
0.01987305600050604 0.4430874450415241 0.46458231558378116
0.020059608000337903 0.44211040547142155 0.46262823644357587
0.020246235000740853 0.4450415241817294 0.46458231558378116
0.02043291700010741 0.44211040547142155 0.46458231558378116
0.020618710000235296 0.4450415241817294 0.4655593551538837
0.020805484000447905 0.44211040547142155 0.4665363947239862
0.020992740000110643 0.4460185637518319 0.4655593551538837
0.021199496000008367 0.4460185637518319 0.4665363947239862
0.021402196000053664 0.44699560332193444 0.46262823644357587
0.021589229000710475 0.44894968246213973 0.45676599902296044
0.021776041000521218 0.44894968246213973 0.45481191988275516
0.02196322300005704 0.4509037616023448 0.45481191988275516
0.02214962700054457 0.44894968246213973 0.45481191988275516
0.022336550000545685 0.4509037616023448 0.4528578407425501
0.02252374999989115 0.44894968246213973 0.4538348803126526
0.022710432000167202 0.4509037616023448 0.45481191988275516
0.022925854000277468 0.44992672203224227 0.45676599902296044
0.023113664999982575 0.45188080117244755 0.45481191988275516
0.02330088400049135 0.4538348803126526 0.45481191988275516
0.023487344000386656 0.45188080117244755 0.4557889594528579
0.023673915000472334 0.4587200781631655 0.4587200781631655
0.023860911000156193 0.45481191988275516 0.4528578407425501
0.02404844500051695 0.45676599902296044 0.45481191988275516
0.024234942000475712 0.4587200781631655 0.45481191988275516
0.024421753000751778 0.45676599902296044 0.4528578407425501
0.024613434999992023 0.45969711773326827 0.4528578407425501
0.024803801999951247 0.46165119687347334 0.4606741573033708
0.024993873000312306 0.45969711773326827 0.44894968246213973
0.02518094400056725 0.4606741573033708 0.44992672203224227
0.025368292000166548 0.46165119687347334 0.44992672203224227
0.025565678000020853 0.457743038593063 0.44699560332193444
0.025752526000360376 0.4606741573033708 0.44992672203224227
0.025942319000023417 0.45969711773326827 0.44894968246213973
0.026131464000172855 0.46165119687347334 0.4479726428920372
0.02631831200051238 0.45969711773326827 0.44406448461162684
0.026504883000598056 0.457743038593063 0.4460185637518319
0.026691527999901155 0.4587200781631655 0.4460185637518319
0.02688926500013622 0.46165119687347334 0.4430874450415241
0.027076836000560434 0.46262823644357587 0.44211040547142155
0.027264629000455898 0.46262823644357587 0.4401563263312165
0.027451552000457013 0.46262823644357587 0.4401563263312165
0.027638752000711975 0.45969711773326827 0.43917928676111373
0.02782595200005744 0.45969711773326827 0.4401563263312165
0.028013431000545097 0.457743038593063 0.4382022471910112
0.028200742000080936 0.45676599902296044 0.4401563263312165
0.028388145999997505 0.457743038593063 0.43917928676111373
0.028575606000231346 0.45676599902296044 0.44211040547142155
0.028762102000655432 0.4557889594528579 0.43917928676111373
0.028948136000508384 0.4557889594528579 0.4382022471910112
0.029135466000298038 0.45676599902296044 0.4382022471910112
0.029321537000214448 0.45676599902296044 0.4401563263312165
0.029507737000130874 0.4587200781631655 0.44406448461162684
0.02969419700002618 0.457743038593063 0.43917928676111373
0.029881120000027295 0.457743038593063 0.44211040547142155
0.03006726500007062 0.45676599902296044 0.44211040547142155
0.030254521000642853 0.4538348803126526 0.43917928676111373
0.030441591000453627 0.4538348803126526 0.4382022471910112
0.030628477000391285 0.4509037616023448 0.43917928676111373
0.030824066000604944 0.45188080117244755 0.4382022471910112
0.03101619200060668 0.44992672203224227 0.43722520762090866
0.03120454100007919 0.45188080117244755 0.4401563263312165
0.03139146300054563 0.45188080117244755 0.4401563263312165
0.03157809000003908 0.4509037616023448 0.4430874450415241
0.03176434600027278 0.44894968246213973 0.441133365901319
0.03195075000076031 0.44894968246213973 0.4430874450415241
0.032136709000042174 0.44699560332193444 0.4450415241817294
0.032323651000297104 0.44699560332193444 0.4460185637518319
0.032511518000319484 0.4460185637518319 0.4460185637518319
0.03269831100078591 0.4450415241817294 0.44894968246213973
0.03288549200078705 0.4450415241817294 0.44894968246213973
0.03307356300047104 0.44699560332193444 0.4538348803126526
0.033261522999964654 0.4460185637518319 0.4538348803126526
0.033462555999904 0.4479726428920372 0.457743038593063
0.033649423000497336 0.4430874450415241 0.45676599902296044
0.033836309000434994 0.44211040547142155 0.4557889594528579
0.034022991000711045 0.44699560332193444 0.45676599902296044
0.0342097279999507 0.44211040547142155 0.45969711773326827
0.034396577000734396 0.44211040547142155 0.4606741573033708
0.034583203000693175 0.44211040547142155 0.457743038593063
0.03476997800044046 0.441133365901319 0.4606741573033708
0.034959067000272626 0.44211040547142155 0.46165119687347334
0.035146564000569924 0.441133365901319 0.46458231558378116
0.03533365300063451 0.441133365901319 0.46458231558378116
0.03552096400017035 0.4401563263312165 0.46946751343429405
0.03570768300050986 0.43917928676111373 0.46458231558378116
0.035894236000785895 0.4382022471910112 0.4636052760136786
0.036080917000617774 0.44211040547142155 0.4665363947239862
0.03626774700023816 0.441133365901319 0.46946751343429405
0.0364551520005989 0.4382022471910112 0.4655593551538837
0.03664225900047313 0.4430874450415241 0.4665363947239862
0.03682888599996659 0.441133365901319 0.467513434294089
0.037015142000200285 0.4430874450415241 0.46458231558378116
0.037201564000497456 0.4401563263312165 0.4636052760136786
0.03738750499996968 0.441133365901319 0.4636052760136786
0.037574206000499544 0.43722520762090866 0.46165119687347334
0.0377615360002892 0.4382022471910112 0.46262823644357587
0.03794781000033254 0.4382022471910112 0.46262823644357587
0.03813427000022784 0.43722520762090866 0.46458231558378116
0.03832124800010206 0.441133365901319 0.467513434294089
0.038508485999955155 0.441133365901319 0.46946751343429405
0.03869544500048505 0.4430874450415241 0.467513434294089
0.038892516000487376 0.44211040547142155 0.4684904738641915
0.039079605000551965 0.4430874450415241 0.46946751343429405
0.039266509000299266 0.441133365901319 0.4655593551538837
0.03945283900065988 0.4401563263312165 0.467513434294089
0.039638984000703203 0.441133365901319 0.467513434294089
0.03982553600053507 0.44211040547142155 0.4636052760136786
0.04001271800007089 0.4450415241817294 0.46458231558378116
0.04019923300074879 0.44211040547142155 0.46262823644357587
0.04038619299990387 0.44699560332193444 0.46165119687347334
0.04057313400062412 0.4460185637518319 0.46165119687347334
0.04076055699988501 0.44699560332193444 0.46165119687347334
0.040947498000605265 0.4460185637518319 0.4587200781631655
0.04113392100043711 0.4538348803126526 0.457743038593063
0.041320936000374786 0.4450415241817294 0.4606741573033708
0.041521080000165966 0.4479726428920372 0.4528578407425501
0.04170955900008266 0.44894968246213973 0.45188080117244755
0.041896759000337624 0.44992672203224227 0.4509037616023448
0.042083811000338756 0.4509037616023448 0.44992672203224227
0.042270975000064936 0.4557889594528579 0.44992672203224227
0.04245771200021409 0.4528578407425501 0.45188080117244755
0.04264439400049014 0.45188080117244755 0.44992672203224227
0.04283335400032229 0.45481191988275516 0.4528578407425501
0.043021609000788885 0.45676599902296044 0.45188080117244755
0.04320873600045161 0.4538348803126526 0.4509037616023448
0.043397677000029944 0.45676599902296044 0.44894968246213973
0.043590655000116385 0.45481191988275516 0.4479726428920372
0.0437818000000334 0.45676599902296044 0.4479726428920372
0.04396879600062675 0.457743038593063 0.4460185637518319
0.044155145000331686 0.4557889594528579 0.44699560332193444
0.04434282700003678 0.4587200781631655 0.44699560332193444
0.04453039800046099 0.4538348803126526 0.44211040547142155
0.04471674600063125 0.4606741573033708 0.4450415241817294
0.04490359500050545 0.4557889594528579 0.4430874450415241
0.04509001699989312 0.45676599902296044 0.44211040547142155
0.04527668100035953 0.45676599902296044 0.441133365901319
0.04547341800025606 0.45676599902296044 0.44211040547142155
0.04566171100032079 0.45676599902296044 0.441133365901319
0.045848615000068094 0.457743038593063 0.44211040547142155
0.0460353890002807 0.4587200781631655 0.44406448461162684
0.04622221899990109 0.45969711773326827 0.44211040547142155
0.04640899400055787 0.4606741573033708 0.44406448461162684
0.04659573100070702 0.46165119687347334 0.4450415241817294
0.04678206100015814 0.4606741573033708 0.44211040547142155
0.04698768700018263 0.4606741573033708 0.4401563263312165
0.04717848000018421 0.46262823644357587 0.4401563263312165
0.047370199000397406 0.46165119687347334 0.441133365901319
0.04755984400071611 0.46165119687347334 0.4460185637518319
0.0477504520004004 0.46165119687347334 0.44406448461162684
0.04794117100027506 0.45969711773326827 0.441133365901319
0.04813159300010739 0.45969711773326827 0.44211040547142155
0.048322034000193526 0.457743038593063 0.44211040547142155
0.04851773400059756 0.45676599902296044 0.441133365901319
0.04870939800002816 0.45969711773326827 0.441133365901319
0.04890037600034702 0.4557889594528579 0.43917928676111373
0.04909094600043318 0.457743038593063 0.43722520762090866
0.04928181300056167 0.4557889594528579 0.4382022471910112
0.04947314299988648 0.45676599902296044 0.43722520762090866
0.049672344000100566 0.4557889594528579 0.4382022471910112
0.04986267399999633 0.4557889594528579 0.43624816805080613
0.050053244000082486 0.45481191988275516 0.43624816805080613
0.05024344499997824 0.4606741573033708 0.44211040547142155
0.05043384900000092 0.45676599902296044 0.43429408891060084
0.05062427100074274 0.4538348803126526 0.4333170493404983
0.05082784200021706 0.4528578407425501 0.43722520762090866
0.05101967200062063 0.4528578407425501 0.43722520762090866
0.051210724000156915 0.45188080117244755 0.4382022471910112
0.05140159100028541 0.44894968246213973 0.43917928676111373
0.051592032000371546 0.44992672203224227 0.441133365901319
0.05178178799997113 0.45188080117244755 0.44406448461162684
0.051972266000120726 0.44894968246213973 0.44406448461162684
0.05216291100077797 0.4509037616023448 0.45188080117244755
0.05235309199997573 0.4557889594528579 0.4509037616023448
0.0525433669999984 0.44992672203224227 0.4509037616023448
0.05273360400042293 0.44992672203224227 0.4528578407425501
0.05292367500078399 0.4528578407425501 0.4509037616023448
0.053113449000193214 0.45188080117244755 0.4538348803126526
0.053303483000490814 0.4528578407425501 0.4538348803126526
0.05349353500059806 0.4509037616023448 0.4557889594528579
0.053684273000726535 0.45188080117244755 0.4538348803126526
0.053874436000114656 0.44992672203224227 0.45676599902296044
0.05406469199988351 0.44992672203224227 0.45676599902296044
0.05425483700037148 0.44894968246213973 0.45969711773326827
0.05444537000039418 0.44894968246213973 0.457743038593063
0.054635866999888094 0.4450415241817294 0.4587200781631655
0.05482764099997439 0.4460185637518319 0.45969711773326827
0.05501828600063163 0.44406448461162684 0.4606741573033708
0.05520882000018901 0.4450415241817294 0.46165119687347334
0.055398631000571186 0.441133365901319 0.46262823644357587
0.05558944299991708 0.44406448461162684 0.46262823644357587
0.05577931000061653 0.44211040547142155 0.46458231558378116
0.05596973200044886 0.44211040547142155 0.467513434294089
0.05616026600000623 0.44211040547142155 0.4655593551538837
0.056351429000642383 0.4430874450415241 0.4655593551538837
0.05654157400022086 0.44211040547142155 0.4655593551538837
0.056732589000603184 0.44406448461162684 0.4665363947239862
0.056922288999885495 0.44211040547142155 0.4655593551538837
0.057112416000563826 0.4430874450415241 0.46946751343429405
0.05730348599990975 0.441133365901319 0.46946751343429405
0.05749427899991133 0.441133365901319 0.4684904738641915
0.05769714600046427 0.4401563263312165 0.46946751343429405
0.057889882999916153 0.4401563263312165 0.467513434294089
0.058080380000319565 0.4430874450415241 0.467513434294089
0.05827106200013077 0.4450415241817294 0.467513434294089
0.05846204000044963 0.44699560332193444 0.467513434294089
0.058652129000620334 0.4450415241817294 0.4665363947239862
0.0588440890005586 0.44894968246213973 0.46458231558378116
0.05929330300023139 0.44894968246213973 0.4655593551538837
0.05948631800038129 0.44699560332193444 0.4636052760136786
0.05967801800034067 0.4460185637518319 0.46458231558378116
0.05986899700019421 0.44699560332193444 0.46458231558378116
0.060059770999941975 0.4509037616023448 0.4655593551538837
0.060250453000662674 0.4538348803126526 0.467513434294089
0.06044182000005094 0.44992672203224227 0.467513434294089
0.06063265000011597 0.44699560332193444 0.4655593551538837
0.06082281300041359 0.45188080117244755 0.46262823644357587
0.0610133650006901 0.44992672203224227 0.46262823644357587
0.06120415800069168 0.45188080117244755 0.45676599902296044
0.06139437700039707 0.4528578407425501 0.45676599902296044
0.06158524400052556 0.45481191988275516 0.4557889594528579
0.061775555000167515 0.45481191988275516 0.4557889594528579
0.06196670000008453 0.4538348803126526 0.45481191988275516
0.06215730800067831 0.4528578407425501 0.44992672203224227
0.06234858200059534 0.4538348803126526 0.4528578407425501
0.06253959700006817 0.45969711773326827 0.45481191988275516
0.06273003800015431 0.4557889594528579 0.45481191988275516
0.06292049800049426 0.4528578407425501 0.4557889594528579
0.0631109390005804 0.46165119687347334 0.45676599902296044
0.06330167700070888 0.45676599902296044 0.4557889594528579
0.0634924880005201 0.45676599902296044 0.4557889594528579
0.06368335500064859 0.45481191988275516 0.4538348803126526
0.06387400000039634 0.45676599902296044 0.45969711773326827
0.06406673700075771 0.4557889594528579 0.45676599902296044
0.06425749300069583 0.457743038593063 0.4509037616023448
0.06444793400078197 0.4606741573033708 0.4528578407425501
0.06463909700050863 0.457743038593063 0.44992672203224227
0.06483000100070058 0.457743038593063 0.44992672203224227
0.06502136800008884 0.457743038593063 0.4450415241817294
0.06521293900004821 0.45676599902296044 0.4460185637518319
0.06540330600000743 0.457743038593063 0.44699560332193444
0.06559361700055888 0.4528578407425501 0.4450415241817294
0.06578468800034898 0.457743038593063 0.4450415241817294
0.06598438800028816 0.457743038593063 0.4528578407425501
0.06617540300067049 0.457743038593063 0.4460185637518319
0.06636623300073552 0.45676599902296044 0.44699560332193444
0.0665565819999756 0.4557889594528579 0.4450415241817294
0.06674637500054814 0.45676599902296044 0.44406448461162684
0.06693820500004222 0.457743038593063 0.44406448461162684
0.06712903500010725 0.457743038593063 0.44211040547142155
0.06731982800010883 0.45676599902296044 0.4401563263312165
0.06751176900070277 0.457743038593063 0.43917928676111373
0.06770258000051399 0.45969711773326827 0.441133365901319
0.0678932620003252 0.457743038593063 0.44211040547142155
0.06808370300041133 0.4587200781631655 0.44211040547142155
0.06827449600041291 0.4587200781631655 0.441133365901319
0.06846458500058361 0.4606741573033708 0.4430874450415241
0.06865498900060629 0.457743038593063 0.441133365901319
0.06884596700001566 0.4538348803126526 0.43917928676111373
0.06903676000001724 0.457743038593063 0.43917928676111373
0.06922716400003992 0.4557889594528579 0.43917928676111373
0.06941755000025296 0.4557889594528579 0.43624816805080613
0.06960904600055073 0.45481191988275516 0.4352711284807034
0.06981058000019402 0.4538348803126526 0.4333170493404983
0.07003065000026254 0.4538348803126526 0.4333170493404983
0.07023672000013903 0.4538348803126526 0.43624816805080613
0.07045484600075724 0.45188080117244755 0.4401563263312165
0.07066058300006262 0.4528578407425501 0.44211040547142155
0.07086437599991768 0.45188080117244755 0.44211040547142155
0.07106152100004692 0.4509037616023448 0.441133365901319
0.07126088800032448 0.4528578407425501 0.44406448461162684
0.0714600880000944 0.4538348803126526 0.44211040547142155
0.07165945500037196 0.4538348803126526 0.4460185637518319
0.07185315500009892 0.45481191988275516 0.4460185637518319
0.07204541100054485 0.4557889594528579 0.44699560332193444
0.0722435370007588 0.4557889594528579 0.44699560332193444
0.07244362600067689 0.45481191988275516 0.4460185637518319
0.07264447400029894 0.4528578407425501 0.44699560332193444
0.07284887800051365 0.46262823644357587 0.44894968246213973
0.07305435600028432 0.4509037616023448 0.4509037616023448
0.07325618600043526 0.4509037616023448 0.4528578407425501
0.0734538300002896 0.4528578407425501 0.45188080117244755
0.07365066000056686 0.44992672203224227 0.4538348803126526
0.07385226800033706 0.4509037616023448 0.4538348803126526
0.07405319000008603 0.44894968246213973 0.45676599902296044
0.0743136670007516 0.4450415241817294 0.4557889594528579
0.0745400330006305 0.4450415241817294 0.45676599902296044
0.07473345600010362 0.4450415241817294 0.4606741573033708
0.07493328600048699 0.44406448461162684 0.4606741573033708
0.07512504100031947 0.4450415241817294 0.4606741573033708
0.07531646400002501 0.4450415241817294 0.4636052760136786
0.07550997900034417 0.44406448461162684 0.46165119687347334
0.07571325300068565 0.4450415241817294 0.46458231558378116
0.0759119530002863 0.44406448461162684 0.46165119687347334
0.07610819100045774 0.4450415241817294 0.4606741573033708
0.07631403899995348 0.44211040547142155 0.45969711773326827
0.07651336900016759 0.44406448461162684 0.45969711773326827
0.07672812400051043 0.4430874450415241 0.46165119687347334
0.07695386100022006 0.44699560332193444 0.46165119687347334
0.07717143100035173 0.441133365901319 0.4704445530043966
0.07738235300075758 0.44211040547142155 0.4655593551538837
0.07758099800048512 0.4460185637518319 0.4636052760136786
0.07778273500025534 0.4460185637518319 0.467513434294089
0.0779837870004485 0.44406448461162684 0.4684904738641915
0.07818080200013355 0.4479726428920372 0.46946751343429405
0.07838442800039047 0.44992672203224227 0.467513434294089
0.07859940600064874 0.44894968246213973 0.46946751343429405
0.07883280900023237 0.44699560332193444 0.46946751343429405
0.07903841700044723 0.4460185637518319 0.4704445530043966
0.079240246000154 0.4509037616023448 0.46946751343429405
0.07944526100072835 0.4460185637518319 0.46946751343429405
0.07964733200060437 0.4450415241817294 0.4704445530043966
0.0798512360006498 0.4450415241817294 0.4684904738641915
0.08007084300061251 0.4450415241817294 0.467513434294089
0.08027174700055184 0.4479726428920372 0.4655593551538837
0.08047063200046978 0.44699560332193444 0.4636052760136786
0.08068709100007254 0.44699560332193444 0.46946751343429405
0.08089901299990743 0.4509037616023448 0.46262823644357587
0.08109906500067154 0.457743038593063 0.46262823644357587
0.08130682099999831 0.45481191988275516 0.46165119687347334
0.08151487300074223 0.45188080117244755 0.45969711773326827
0.0817176840000684 0.4528578407425501 0.4636052760136786
0.08192094000060024 0.4509037616023448 0.46165119687347334
0.08212275100049737 0.44992672203224227 0.4665363947239862
0.0823556909999752 0.4528578407425501 0.45676599902296044
0.08255991000078211 0.4538348803126526 0.4557889594528579
0.08279609100009111 0.45676599902296044 0.4528578407425501
0.08304612300071312 0.4587200781631655 0.45676599902296044
0.08327623000059248 0.45481191988275516 0.45188080117244755
0.08350189300017519 0.4557889594528579 0.4528578407425501
0.08372829700056172 0.46165119687347334 0.44992672203224227
0.08398432900048647 0.45481191988275516 0.44992672203224227
0.08425215800070873 0.4606741573033708 0.44894968246213973
0.08450643100059096 0.4557889594528579 0.4460185637518319
0.08475450100013404 0.4557889594528579 0.4460185637518319
0.08498951500041585 0.45676599902296044 0.4479726428920372
0.085217733000718 0.4587200781631655 0.4460185637518319
0.08543713700055378 0.457743038593063 0.44699560332193444
0.08565315100076987 0.4606741573033708 0.4450415241817294
0.08587051800077461 0.4606741573033708 0.4450415241817294
0.08608980999997584 0.4587200781631655 0.4430874450415241
0.08629184400069789 0.45676599902296044 0.44211040547142155
0.08649000700006582 0.45969711773326827 0.4479726428920372
0.0866899110005761 0.45969711773326827 0.4401563263312165
0.08697138700063078 0.45676599902296044 0.4382022471910112
0.08717466100006277 0.457743038593063 0.4382022471910112
0.08736736199989537 0.45969711773326827 0.43722520762090866
0.08756778400038456 0.4587200781631655 0.4382022471910112
0.08785937199991167 0.46165119687347334 0.4401563263312165
0.0880587010005911 0.46165119687347334 0.43917928676111373
0.08825540199995885 0.46458231558378116 0.4382022471910112
0.08845786100027908 0.4636052760136786 0.4401563263312165
0.0886705240000083 0.46165119687347334 0.43917928676111373
0.08890903800056549 0.4606741573033708 0.43624816805080613
0.08911914600048476 0.457743038593063 0.4401563263312165
0.0893169940000007 0.45969711773326827 0.4382022471910112
0.08951295299993944 0.4587200781631655 0.43722520762090866
0.08970845000021654 0.45676599902296044 0.4382022471910112
0.08990346500013402 0.4557889594528579 0.4382022471910112
0.09009688800051663 0.46165119687347334 0.441133365901319
0.09029340300003241 0.4538348803126526 0.4450415241817294
0.0904841210003724 0.45481191988275516 0.44894968246213973
0.09069397000075696 0.4557889594528579 0.44699560332193444
0.09098687200003042 0.44992672203224227 0.44992672203224227
0.09120207200066943 0.44992672203224227 0.4528578407425501
0.09145217800050887 0.44992672203224227 0.4538348803126526
0.09164641600000323 0.45188080117244755 0.45481191988275516
0.09183937500074535 0.4528578407425501 0.45676599902296044
0.09203383500062046 0.4538348803126526 0.4557889594528579
0.09223066499998822 0.45188080117244755 0.4528578407425501
0.09242712400009623 0.4509037616023448 0.45188080117244755
0.09265986100035661 0.45188080117244755 0.4509037616023448
0.09285178300069674 0.44992672203224227 0.45188080117244755
0.0930544650000229 0.44992672203224227 0.45188080117244755
0.09325094300038472 0.44894968246213973 0.4528578407425501
0.09345943900007114 0.44699560332193444 0.4528578407425501
0.09369765700012067 0.45188080117244755 0.4538348803126526
0.09391361600046366 0.44699560332193444 0.4606741573033708
0.09411913100029778 0.4450415241817294 0.45676599902296044
0.09432209100032196 0.4450415241817294 0.45969711773326827
0.0945199940006205 0.44406448461162684 0.46165119687347334
0.09471578700049577 0.4430874450415241 0.46165119687347334
0.09493817200018384 0.4430874450415241 0.46458231558378116
0.09512713200001599 0.4479726428920372 0.4606741573033708
0.09531466600037675 0.4460185637518319 0.46165119687347334
0.09550232900073752 0.44699560332193444 0.4636052760136786
0.0956899370003157 0.4460185637518319 0.46165119687347334
0.09587719299997843 0.4450415241817294 0.4636052760136786
0.09606489300040266 0.4450415241817294 0.46165119687347334
0.0962524080005096 0.44406448461162684 0.46262823644357587
0.09645975600051315 0.44406448461162684 0.4636052760136786
0.09664710500055662 0.4460185637518319 0.46458231558378116
0.09687097100049868 0.44406448461162684 0.4636052760136786
0.09705915300037304 0.44211040547142155 0.46458231558378116
0.09724703900064924 0.44406448461162684 0.4665363947239862
0.09743497999988904 0.4450415241817294 0.4684904738641915
0.09762229100033437 0.4450415241817294 0.4684904738641915
0.09780964000037784 0.441133365901319 0.467513434294089
0.09799665500031551 0.4450415241817294 0.467513434294089
0.09818480000012642 0.4430874450415241 0.4665363947239862
0.09837251899989496 0.4450415241817294 0.4665363947239862
0.09855971900014993 0.441133365901319 0.467513434294089
0.09874671600027796 0.44406448461162684 0.4655593551538837
0.0989384530003008 0.44406448461162684 0.46458231558378116
0.09912715400059824 0.4479726428920372 0.467513434294089
0.09931535400028224 0.44406448461162684 0.4665363947239862
0.09950327700062189 0.4460185637518319 0.46946751343429405
0.09969049600022117 0.4460185637518319 0.467513434294089
0.09988647400041373 0.4460185637518319 0.4655593551538837
0.10010889600016526 0.44992672203224227 0.4655593551538837
0.10032426199995825 0.4450415241817294 0.4655593551538837
0.1005364250004277 0.4450415241817294 0.4636052760136786
0.10074844000064331 0.44699560332193444 0.4665363947239862
0.10101260200008255 0.4479726428920372 0.4665363947239862
0.10122139400027663 0.44699560332193444 0.4655593551538837
0.1014158910002152 0.44699560332193444 0.4606741573033708
0.10160875800011127 0.4479726428920372 0.45969711773326827
0.10182021700074984 0.4450415241817294 0.46165119687347334
0.10205063900048117 0.4479726428920372 0.4538348803126526
0.10232822700072575 0.44699560332193444 0.45676599902296044
0.10254053800053953 0.44992672203224227 0.45676599902296044
0.10276851500020712 0.45188080117244755 0.45969711773326827
0.10297428900048544 0.45188080117244755 0.457743038593063
0.10317141500036087 0.4528578407425501 0.4557889594528579
0.10336480100068002 0.4557889594528579 0.45969711773326827
0.10355944599996292 0.4557889594528579 0.45481191988275516
0.10375294200002827 0.4557889594528579 0.4528578407425501
0.10394684600032633 0.4587200781631655 0.4528578407425501
0.10413934300049732 0.4557889594528579 0.4528578407425501
0.1043345620000764 0.4587200781631655 0.44992672203224227
0.10453150300054403 0.45676599902296044 0.4479726428920372
0.10473175800052559 0.4606741573033708 0.44992672203224227
0.10493853200023295 0.45969711773326827 0.44894968246213973
0.10513525100031984 0.4587200781631655 0.44894968246213973
0.10533765500076697 0.457743038593063 0.45188080117244755
0.10554055900047388 0.4587200781631655 0.4479726428920372
0.10573959200064564 0.4606741573033708 0.4479726428920372
0.10593036699992808 0.4587200781631655 0.44699560332193444
0.10611801100003504 0.45676599902296044 0.4450415241817294
0.10630582300018432 0.457743038593063 0.4430874450415241
0.10649335700054507 0.45676599902296044 0.441133365901319
0.10668109400012327 0.45969711773326827 0.4401563263312165
0.10687260900067486 0.4587200781631655 0.441133365901319
0.10706038400076068 0.4587200781631655 0.4382022471910112
0.10724773200035997 0.46262823644357587 0.441133365901319
0.10743439599991689 0.46165119687347334 0.4401563263312165
0.10762272600004508 0.46165119687347334 0.441133365901319
0.10780937000072299 0.45969711773326827 0.4382022471910112
0.10799692300042807 0.4587200781631655 0.43917928676111373
0.10818377100076759 0.457743038593063 0.4382022471910112
0.10837032300059946 0.45969711773326827 0.43624816805080613
0.10855728300066403 0.457743038593063 0.43624816805080613
0.1087438540007497 0.457743038593063 0.43429408891060084
0.10893066500011628 0.45676599902296044 0.4479726428920372
0.10911749500064616 0.4538348803126526 0.43624816805080613
0.10930536200066854 0.4528578407425501 0.43429408891060084
0.10952178500065202 0.45188080117244755 0.43722520762090866
0.10971054099991306 0.45481191988275516 0.43722520762090866
0.10989809300008346 0.45188080117244755 0.43722520762090866
0.11012786600076652 0.45481191988275516 0.4352711284807034
0.11031651100074669 0.4528578407425501 0.4323400097703958
0.11050360100034595 0.45481191988275516 0.4352711284807034
0.11069081900041056 0.4538348803126526 0.43917928676111373
0.11089405700022326 0.45188080117244755 0.43917928676111373
0.11108114600028784 0.45188080117244755 0.44211040547142155
0.11126819800028898 0.44992672203224227 0.43917928676111373
0.11145545399995171 0.4509037616023448 0.441133365901319
0.11164272900077776 0.44894968246213973 0.44406448461162684
0.11183002200050396 0.44992672203224227 0.44894968246213973
0.11201666600027238 0.4479726428920372 0.4460185637518319
0.1122035890002735 0.44992672203224227 0.44894968246213973
0.11239025200029573 0.45188080117244755 0.44992672203224227
0.11257654500059289 0.44894968246213973 0.45188080117244755
0.11276302400074201 0.4479726428920372 0.44992672203224227
0.11295046500072203 0.4509037616023448 0.45188080117244755
0.11313711000002513 0.4450415241817294 0.44992672203224227
0.1133268470002804 0.4450415241817294 0.44894968246213973
0.11351458400076808 0.4450415241817294 0.45481191988275516
0.11370147000070574 0.44211040547142155 0.45188080117244755
0.11388852200070687 0.4450415241817294 0.45188080117244755
0.11407546300051763 0.4460185637518319 0.4557889594528579
0.11426227500032837 0.44211040547142155 0.4557889594528579
0.1144493270003295 0.44211040547142155 0.457743038593063
0.11463613900014025 0.44211040547142155 0.4587200781631655
0.11483420900003694 0.44211040547142155 0.45676599902296044
0.11502224300056696 0.44406448461162684 0.4587200781631655
0.11520944299991243 0.44894968246213973 0.4636052760136786
0.11539638400063268 0.441133365901319 0.4587200781631655
0.11558365900054923 0.441133365901319 0.45969711773326827
0.11577056300029653 0.441133365901319 0.4587200781631655
0.11596080000072106 0.441133365901319 0.46165119687347334
0.1161676300007457 0.441133365901319 0.46458231558378116
0.11637477400017815 0.44211040547142155 0.4665363947239862
0.11657604900028673 0.4430874450415241 0.4684904738641915
0.11676797100062686 0.44699560332193444 0.467513434294089
0.11696082000071328 0.4450415241817294 0.4655593551538837
0.11715720500069438 0.44211040547142155 0.4655593551538837
0.11735122000027332 0.4401563263312165 0.4655593551538837
0.11755903100038267 0.44211040547142155 0.46165119687347334
0.11786328500056698 0.4401563263312165 0.46262823644357587
0.11813955800062104 0.441133365901319 0.4636052760136786
0.1183386660004544 0.44211040547142155 0.4636052760136786
0.11854894000043714 0.44211040547142155 0.4655593551538837
0.11877926900069724 0.4430874450415241 0.4665363947239862
0.11907767100001365 0.4460185637518319 0.4655593551538837
0.11927574200035451 0.441133365901319 0.46458231558378116
0.11946972000077949 0.4450415241817294 0.467513434294089
0.11966242000016791 0.4450415241817294 0.4655593551538837
0.11985584200010635 0.44406448461162684 0.4636052760136786
0.1200448019999385 0.44406448461162684 0.46458231558378116
0.1202367250007228 0.4430874450415241 0.46458231558378116
0.12043140600053448 0.4450415241817294 0.45969711773326827
0.12063086600028328 0.4450415241817294 0.4587200781631655
0.12082721400020091 0.4479726428920372 0.45969711773326827
0.12101930300013919 0.44992672203224227 0.46165119687347334
0.12121663300058572 0.457743038593063 0.45969711773326827
0.12146477700025571 0.44992672203224227 0.457743038593063
0.12168092100000649 0.45188080117244755 0.4606741573033708
0.12187352900036785 0.4509037616023448 0.457743038593063
0.12210921000041708 0.4528578407425501 0.457743038593063
0.12229657700027019 0.4509037616023448 0.45969711773326827
0.12248522200025036 0.45188080117244755 0.45676599902296044
0.12267295900073805 0.45188080117244755 0.4538348803126526
0.1228989740002362 0.4557889594528579 0.4528578407425501
0.12309043300047051 0.4538348803126526 0.45188080117244755
0.12327893000019685 0.4557889594528579 0.45188080117244755
0.12346631600030378 0.45481191988275516 0.45188080117244755
0.12365434900038963 0.45676599902296044 0.4538348803126526
0.1238419569999678 0.4606741573033708 0.44992672203224227
0.12402995400043437 0.45676599902296044 0.4509037616023448
0.12422137600060523 0.45969711773326827 0.44894968246213973
0.12440907700056414 0.46165119687347334 0.44992672203224227
0.12459814700014249 0.4606741573033708 0.4528578407425501
0.12478557000031287 0.46165119687347334 0.4479726428920372
0.12497253000037745 0.46165119687347334 0.44699560332193444
0.12515943400012475 0.4587200781631655 0.44894968246213973
0.12534648600012588 0.4606741573033708 0.4450415241817294
0.12553364900031738 0.45676599902296044 0.4450415241817294
0.12572081300004356 0.457743038593063 0.4430874450415241
0.12590771700070036 0.45969711773326827 0.44406448461162684
0.12609586200051126 0.4587200781631655 0.4401563263312165
0.126294487999985 0.45969711773326827 0.44211040547142155
0.12648153999998613 0.4587200781631655 0.4450415241817294
0.12666892600009305 0.4587200781631655 0.4430874450415241
0.12685792200045398 0.46165119687347334 0.441133365901319
0.12704716000007465 0.4587200781631655 0.4450415241817294
0.1272402670001611 0.4587200781631655 0.44211040547142155
0.12743259700073395 0.4587200781631655 0.441133365901319
0.12761898300050234 0.4587200781631655 0.4430874450415241
0.12780705400018633 0.46262823644357587 0.4382022471910112
0.1279981060006321 0.457743038593063 0.43624816805080613
0.12818978800078185 0.457743038593063 0.4333170493404983
0.12837759900048695 0.45676599902296044 0.4333170493404983
0.12856442900010734 0.4557889594528579 0.42940889106008795
0.12875214800078538 0.4557889594528579 0.4323400097703958
0.12893901500046923 0.4587200781631655 0.4333170493404983
0.12912536400017416 0.4636052760136786 0.43917928676111373
0.12931195300006948 0.4606741573033708 0.4382022471910112
0.12949980100074754 0.4587200781631655 0.43917928676111373
0.12968666899996606 0.4606741573033708 0.43722520762090866
0.1298736650005594 0.4606741573033708 0.4401563263312165
0.1300612170007298 0.46262823644357587 0.43917928676111373
0.130248825000308 0.46262823644357587 0.441133365901319
0.13043563700011873 0.4636052760136786 0.44211040547142155
0.13062254100077553 0.4636052760136786 0.44211040547142155
0.1308434810007384 0.46262823644357587 0.44211040547142155
0.13104523700076243 0.4606741573033708 0.44406448461162684
0.13123890000042593 0.46165119687347334 0.44894968246213973
0.13143517500066082 0.45969711773326827 0.4450415241817294
0.13163678199998685 0.45969711773326827 0.4450415241817294
0.1318345750005392 0.46165119687347334 0.4460185637518319
0.13203599700045743 0.45969711773326827 0.44992672203224227
0.13223908600048162 0.45969711773326827 0.44894968246213973
0.13243539800077997 0.4587200781631655 0.4528578407425501
0.13263833900055033 0.4587200781631655 0.45188080117244755
0.13285157500013156 0.45676599902296044 0.44992672203224227
0.13305890500032547 0.45969711773326827 0.4528578407425501
0.1332615680003073 0.4538348803126526 0.4538348803126526
0.13345817600020382 0.45188080117244755 0.4538348803126526
0.13365652399988903 0.4509037616023448 0.4538348803126526
0.13384805800069444 0.44992672203224227 0.45676599902296044
0.13403531400035718 0.44894968246213973 0.4557889594528579
0.1342234030007603 0.4509037616023448 0.4606741573033708
0.13445682500059775 0.44894968246213973 0.467513434294089
0.13464452500011248 0.44894968246213973 0.4606741573033708
0.1348637620003501 0.4479726428920372 0.46262823644357587
0.13505851800073287 0.44699560332193444 0.45969711773326827
0.13524664400028996 0.4460185637518319 0.46262823644357587
0.13543314100024872 0.44894968246213973 0.46262823644357587
0.13561980400027096 0.4479726428920372 0.4655593551538837
0.13580659700073738 0.44894968246213973 0.46458231558378116
0.13599368700033665 0.4450415241817294 0.467513434294089
0.13618144200063398 0.4479726428920372 0.47239863214460187
0.13636832800057164 0.4479726428920372 0.4665363947239862
0.13655495400053042 0.4430874450415241 0.4684904738641915
0.1367446550002569 0.44406448461162684 0.4665363947239862
0.13693476200023724 0.44211040547142155 0.4665363947239862
0.1371228150001116 0.44211040547142155 0.4655593551538837
0.13731033000021853 0.44699560332193444 0.4665363947239862
0.13749717800055805 0.4450415241817294 0.467513434294089
0.13768754500051728 0.4479726428920372 0.467513434294089
0.13787483800024347 0.4460185637518319 0.4655593551538837
0.13806237200060423 0.4460185637518319 0.467513434294089
0.13825022099990747 0.4460185637518319 0.467513434294089
0.1384374580002259 0.44894968246213973 0.4684904738641915
0.13862454700029048 0.4460185637518319 0.467513434294089
0.13884111800052779 0.4479726428920372 0.46946751343429405
0.13903859600031865 0.4528578407425501 0.4763067904250122
0.13925229600044986 0.44699560332193444 0.4733756717147044
0.13947823600028642 0.44894968246213973 0.46946751343429405
0.1397049170000173 0.45188080117244755 0.4733756717147044
0.13992308000069897 0.44992672203224227 0.467513434294089
0.14012307600023632 0.4538348803126526 0.4684904738641915
0.14032731400038756 0.4528578407425501 0.4684904738641915
0.14053143999990425 0.4538348803126526 0.4665363947239862
0.1407375470007537 0.45481191988275516 0.46458231558378116
0.1409592280006109 0.4528578407425501 0.4636052760136786
0.14118831700034207 0.45188080117244755 0.46165119687347334
0.14141168300011486 0.4528578407425501 0.4606741573033708
0.1416311789998872 0.4528578407425501 0.4606741573033708
0.14182991699999548 0.45188080117244755 0.4606741573033708
0.14202374700016662 0.4528578407425501 0.457743038593063
0.14221974300016882 0.4538348803126526 0.457743038593063
0.14241233200027636 0.45969711773326827 0.45969711773326827
0.14260507000017242 0.4528578407425501 0.457743038593063
0.14285784300045634 0.45481191988275516 0.4538348803126526
0.14318561500022042 0.45676599902296044 0.4528578407425501
0.14339068500066787 0.4557889594528579 0.44992672203224227
0.1435907560007763 0.45481191988275516 0.44894968246213973
0.14381732600031683 0.457743038593063 0.45188080117244755
0.14405398800045077 0.46165119687347334 0.44992672203224227
0.14425278100043215 0.46165119687347334 0.44894968246213973
0.14445157400041353 0.4606741573033708 0.44992672203224227
0.14464862600016204 0.4606741573033708 0.44992672203224227
0.14484497400007967 0.45969711773326827 0.4479726428920372
0.1450385260004623 0.457743038593063 0.4460185637518319
0.1452336340007605 0.45969711773326827 0.4450415241817294
0.14542681600050855 0.46165119687347334 0.4450415241817294
0.1456248680005956 0.457743038593063 0.4450415241817294
0.14582043900009012 0.46262823644357587 0.44406448461162684
0.1460169540005154 0.46165119687347334 0.4430874450415241
0.146207432000665 0.4636052760136786 0.4450415241817294
0.14639955800066673 0.4636052760136786 0.44211040547142155
0.1466031469999507 0.46458231558378116 0.44211040547142155
0.14679544000046008 0.4655593551538837 0.43917928676111373
0.14703376900069998 0.4636052760136786 0.4401563263312165
0.14722230300048977 0.46262823644357587 0.44211040547142155
0.14744633600003 0.46165119687347334 0.44406448461162684
0.1476344060001793 0.46262823644357587 0.441133365901319
0.1478229590002229 0.46165119687347334 0.4382022471910112
0.14801038099994912 0.46262823644357587 0.4382022471910112
0.14819769299992913 0.4606741573033708 0.43722520762090866
0.14838476400018408 0.45969711773326827 0.4382022471910112
0.1485720750006294 0.4655593551538837 0.4382022471910112
0.14875979400039796 0.457743038593063 0.4382022471910112
0.1489468650006529 0.45969711773326827 0.4382022471910112
0.14913513900046382 0.46165119687347334 0.43722520762090866
0.14932193200002075 0.45969711773326827 0.43624816805080613
0.14950928100006422 0.45969711773326827 0.4333170493404983
0.14970179600004485 0.457743038593063 0.43429408891060084
0.14988925500074401 0.4587200781631655 0.43722520762090866
0.15007595600036439 0.4636052760136786 0.44406448461162684
0.15026347100047133 0.4557889594528579 0.441133365901319
0.15045098600057827 0.45481191988275516 0.43917928676111373
0.150638242000241 0.4538348803126526 0.4401563263312165
0.1508404980004343 0.45481191988275516 0.441133365901319
0.15102832800039323 0.4528578407425501 0.4382022471910112
0.1512165840003945 0.4528578407425501 0.4352711284807034
0.15140430300016305 0.4528578407425501 0.43917928676111373
0.151603188000081 0.45188080117244755 0.4382022471910112
0.151791537000463 0.45188080117244755 0.4382022471910112
0.15197912600069685 0.4538348803126526 0.4450415241817294
0.15216653000061342 0.45188080117244755 0.44406448461162684
0.1524012110003241 0.4509037616023448 0.4450415241817294
0.1526049480007714 0.4509037616023448 0.4450415241817294
0.1528120000002673 0.4528578407425501 0.44992672203224227
0.15302555200014467 0.45188080117244755 0.45188080117244755
0.153233992999958 0.44992672203224227 0.44992672203224227
0.1534529520004071 0.44894968246213973 0.44992672203224227
0.15367898500062438 0.4460185637518319 0.45188080117244755
0.15390168400062976 0.44894968246213973 0.4557889594528579
0.15411047700035851 0.44406448461162684 0.4528578407425501
0.15431101100057276 0.4450415241817294 0.45676599902296044
0.15451484000004712 0.4450415241817294 0.45676599902296044
0.15472665100060112 0.44699560332193444 0.45969711773326827
0.154975942999954 0.44894968246213973 0.46458231558378116
0.1551995320005517 0.45481191988275516 0.46165119687347334
0.1553990470001736 0.4450415241817294 0.46262823644357587
0.15559904300062044 0.4450415241817294 0.46165119687347334
0.155808614000307 0.4528578407425501 0.4665363947239862
0.1560198510005648 0.4479726428920372 0.467513434294089
0.15621925499999634 0.44699560332193444 0.46165119687347334
0.15641477000008308 0.44992672203224227 0.46165119687347334
0.15660697000021173 0.4460185637518319 0.4636052760136786
0.15680170700034068 0.44699560332193444 0.4655593551538837
0.1569918150007652 0.44699560332193444 0.4655593551538837
0.15719579300002806 0.44894968246213973 0.46946751343429405
0.15738432700072735 0.4479726428920372 0.467513434294089
0.1575750270003482 0.45188080117244755 0.46946751343429405
0.1577619310000955 0.44699560332193444 0.46946751343429405
0.15794940900013898 0.4479726428920372 0.4763067904250122
0.15813648000039393 0.4479726428920372 0.46946751343429405
0.15832356900045852 0.45188080117244755 0.467513434294089
0.15851127000041743 0.4528578407425501 0.4704445530043966
0.15869885900065128 0.44992672203224227 0.4655593551538837
0.15891368800021155 0.44992672203224227 0.467513434294089
0.15910138900017046 0.44992672203224227 0.4684904738641915
0.15928946000076394 0.45188080117244755 0.467513434294089
0.15947680800036323 0.44992672203224227 0.467513434294089
0.159663305000322 0.4557889594528579 0.4655593551538837
0.1598513200005982 0.4538348803126526 0.467513434294089
0.16008240800056228 0.4557889594528579 0.4665363947239862
0.16027446099997178 0.45676599902296044 0.46946751343429405
0.16046640200056572 0.46458231558378116 0.4665363947239862
0.16065441699993244 0.45481191988275516 0.46458231558378116
0.16084146899993357 0.45676599902296044 0.46458231558378116
0.16102935500020976 0.45481191988275516 0.46458231558378116
0.1612169250001898 0.4557889594528579 0.46165119687347334
0.16140464399995835 0.457743038593063 0.46165119687347334
0.16159203000006528 0.4528578407425501 0.4636052760136786
0.16177950800010876 0.4528578407425501 0.46165119687347334
0.16196639400004642 0.45481191988275516 0.46165119687347334
0.16215331600051286 0.45481191988275516 0.45676599902296044
0.162340368000514 0.45481191988275516 0.45969711773326827
0.16252803200040944 0.45676599902296044 0.4606741573033708
0.16271502900053747 0.45481191988275516 0.45481191988275516
0.16292285800045647 0.4538348803126526 0.4538348803126526
0.16311041000062687 0.4557889594528579 0.4538348803126526
0.16329796300033195 0.457743038593063 0.4538348803126526
0.16348525600005814 0.45969711773326827 0.4538348803126526
0.16367217800052458 0.457743038593063 0.457743038593063
0.16385934200025076 0.45969711773326827 0.45188080117244755
0.16405067200048506 0.4606741573033708 0.45481191988275516
0.1642409090000001 0.46262823644357587 0.4538348803126526
0.16442857200036087 0.46262823644357587 0.4538348803126526
0.16461586500008707 0.46458231558378116 0.45188080117244755
0.16480315800072276 0.46458231558378116 0.4509037616023448
0.16499096999996254 0.46458231558378116 0.44894968246213973
0.16517872600070405 0.46262823644357587 0.44699560332193444
0.16536588899998605 0.46458231558378116 0.4450415241817294
0.16555494100066426 0.467513434294089 0.44406448461162684
0.1657516780005608 0.4655593551538837 0.4460185637518319
0.16595530500035238 0.4655593551538837 0.44406448461162684
0.16616330100077903 0.4655593551538837 0.4460185637518319
0.16636007500073902 0.4655593551538837 0.44406448461162684
0.1665576270006568 0.4655593551538837 0.4450415241817294
0.16675756800032104 0.4704445530043966 0.4430874450415241
0.16696656400017673 0.4636052760136786 0.44211040547142155
0.16716257900043274 0.4655593551538837 0.44211040547142155
0.16736681700058398 0.4665363947239862 0.4450415241817294
0.16757046100065054 0.4655593551538837 0.4460185637518319
0.16777530900071724 0.46458231558378116 0.4430874450415241
0.16799734200048988 0.46165119687347334 0.4430874450415241
0.16822839399992517 0.4655593551538837 0.4450415241817294
0.16842098300003272 0.45969711773326827 0.4382022471910112
0.16861068300022453 0.4606741573033708 0.43722520762090866
0.16880068000045867 0.46165119687347334 0.43722520762090866
0.16898932500043884 0.4606741573033708 0.43624816805080613
0.1691764699999112 0.45969711773326827 0.43429408891060084
0.16936820699993405 0.46262823644357587 0.4352711284807034
0.1695561850001468 0.4606741573033708 0.43624816805080613
0.169743756000571 0.4606741573033708 0.4382022471910112
0.16993116000048758 0.4587200781631655 0.43722520762090866
0.17011823100074253 0.46165119687347334 0.44406448461162684
0.17030509800042637 0.45969711773326827 0.4382022471910112
0.1704921500004275 0.457743038593063 0.4382022471910112
0.17068001700044988 0.45969711773326827 0.43722520762090866
0.1708705139999438 0.4557889594528579 0.4382022471910112
0.17105901100057963 0.45676599902296044 0.43917928676111373
0.17124634100036928 0.4557889594528579 0.43722520762090866
0.1714872620004826 0.45481191988275516 0.4382022471910112
0.1716769069998918 0.4528578407425501 0.4382022471910112
0.17186514400054875 0.4528578407425501 0.4382022471910112
0.17205225199995766 0.457743038593063 0.44211040547142155
0.17225389700070082 0.4557889594528579 0.44406448461162684
0.17244124500030011 0.45188080117244755 0.441133365901319
0.17262816800030123 0.45188080117244755 0.441133365901319
0.1728151280003658 0.4509037616023448 0.44406448461162684
0.17300253200028237 0.45188080117244755 0.44406448461162684
0.1731897879999451 0.4509037616023448 0.4460185637518319
0.17337702500026353 0.45188080117244755 0.4509037616023448
0.17356431799998973 0.4509037616023448 0.44992672203224227
0.17375268500018137 0.44894968246213973 0.44992672203224227
0.17394036699988646 0.44992672203224227 0.4528578407425501
0.1741280860005645 0.4479726428920372 0.4538348803126526
0.17431528599990997 0.44406448461162684 0.4538348803126526
0.17450222700063023 0.44699560332193444 0.45481191988275516
0.1746890020003775 0.44699560332193444 0.45676599902296044
0.17488846100059163 0.4460185637518319 0.457743038593063
0.17507734700029687 0.44699560332193444 0.457743038593063
0.17526502900000196 0.44699560332193444 0.457743038593063
0.1754519510004684 0.44699560332193444 0.45969711773326827
0.1756391890003215 0.44894968246213973 0.46262823644357587
0.1758258890004072 0.44894968246213973 0.46458231558378116
0.1760137190003661 0.44699560332193444 0.46458231558378116
0.17620110500047304 0.44894968246213973 0.467513434294089
0.17639756400058104 0.44699560332193444 0.4684904738641915
0.1765849680004976 0.44699560332193444 0.4665363947239862
0.17677216900028725 0.44894968246213973 0.46946751343429405
0.1769600170000558 0.44992672203224227 0.46946751343429405
0.17716710600052465 0.44992672203224227 0.4655593551538837
0.17735588100003952 0.44894968246213973 0.4655593551538837
0.17754459900061192 0.44992672203224227 0.4655593551538837
0.1777319480006554 0.44992672203224227 0.4655593551538837
0.1779186670000854 0.4479726428920372 0.4636052760136786
0.17810547800036147 0.44699560332193444 0.46458231558378116
0.1782924200006164 0.44992672203224227 0.4655593551538837
0.17847934200017335 0.4479726428920372 0.467513434294089
0.17866654299996299 0.4460185637518319 0.4655593551538837
0.17885553900032392 0.44699560332193444 0.46458231558378116
0.17904435099990224 0.4479726428920372 0.46946751343429405
0.17923203300051682 0.44992672203224227 0.4665363947239862
0.17941964000056032 0.4509037616023448 0.467513434294089
0.17960721100007504 0.44992672203224227 0.467513434294089
0.17979483700037235 0.44992672203224227 0.4665363947239862
0.17998218600041582 0.44992672203224227 0.46946751343429405
0.18016942300073424 0.45188080117244755 0.4665363947239862
0.1803569020003124 0.44894968246213973 0.4684904738641915
0.18054402800044045 0.44992672203224227 0.4665363947239862
0.18073083900071651 0.44894968246213973 0.467513434294089
0.18095113200070045 0.4479726428920372 0.46946751343429405
0.1811439800003427 0.4557889594528579 0.4636052760136786
0.18134008800006995 0.44894968246213973 0.4636052760136786
0.18154128800051694 0.44894968246213973 0.4636052760136786
0.1817425990002448 0.44894968246213973 0.4636052760136786
0.18194600300012098 0.4509037616023448 0.46262823644357587
0.1821445000005042 0.4509037616023448 0.4606741573033708
0.1823461630001475 0.4509037616023448 0.4636052760136786
0.18254730700027721 0.45188080117244755 0.45676599902296044
0.18276476600021851 0.4509037616023448 0.45676599902296044
0.1830491870005062 0.45188080117244755 0.457743038593063
0.18329503499990096 0.4528578407425501 0.4528578407425501
0.18351690100007545 0.4538348803126526 0.4538348803126526
0.18372947100033343 0.45481191988275516 0.4509037616023448
0.18392511599995487 0.45676599902296044 0.45676599902296044
0.18412657600038074 0.4606741573033708 0.44992672203224227
0.18432135000057315 0.457743038593063 0.44894968246213973
0.18452373500076646 0.45676599902296044 0.45188080117244755
0.18475232400032837 0.45676599902296044 0.44894968246213973
0.18498387500039826 0.45969711773326827 0.44894968246213973
0.18521512999996048 0.457743038593063 0.4479726428920372
0.18543483000030392 0.4587200781631655 0.44699560332193444
0.1856503260005411 0.45676599902296044 0.4450415241817294
0.185872136999933 0.4606741573033708 0.441133365901319
0.18609120700057247 0.46165119687347334 0.441133365901319
0.1863195550004093 0.46165119687347334 0.44406448461162684
0.1865388480000547 0.46165119687347334 0.44211040547142155
0.18674541800010047 0.46262823644357587 0.441133365901319
0.18702209799994307 0.4655593551538837 0.441133365901319
0.1872453169999062 0.46458231558378116 0.441133365901319
0.1874643310002284 0.46165119687347334 0.44211040547142155
0.1876933640005518 0.46262823644357587 0.44211040547142155
0.1879214900000079 0.46165119687347334 0.43917928676111373
0.1881433010003093 0.4606741573033708 0.4401563263312165
0.18836757500048407 0.45969711773326827 0.4382022471910112
0.18857070100057172 0.46165119687347334 0.4401563263312165
0.1887693640001089 0.46165119687347334 0.4382022471910112
0.1889659340004073 0.45969711773326827 0.4382022471910112
0.18915387600009126 0.46262823644357587 0.4401563263312165
0.18934076100049424 0.46165119687347334 0.43917928676111373
0.1895279610007492 0.4606741573033708 0.4382022471910112
0.18971449500077142 0.46458231558378116 0.441133365901319
0.18990071400003217 0.46262823644357587 0.441133365901319
0.19008702600058314 0.4636052760136786 0.44406448461162684
0.19027407800058427 0.457743038593063 0.44211040547142155
0.19046111200077576 0.45969711773326827 0.44211040547142155
0.19065025600048102 0.4509037616023448 0.44406448461162684
0.190846457000589 0.44992672203224227 0.44211040547142155
0.1910343980007383 0.44699560332193444 0.441133365901319
0.191221969000253 0.4479726428920372 0.44406448461162684
0.19140903900006379 0.44699560332193444 0.4450415241817294
0.1915996660000019 0.4460185637518319 0.44894968246213973
0.1917872920002992 0.44992672203224227 0.44699560332193444
0.19197408500076563 0.44894968246213973 0.4479726428920372
0.1921613040003649 0.44992672203224227 0.44894968246213973
0.1923483380005564 0.44992672203224227 0.44699560332193444
0.19253514899992297 0.44894968246213973 0.4479726428920372
0.1927222009999241 0.44992672203224227 0.4450415241817294
0.1929088650003905 0.44894968246213973 0.44406448461162684
0.19309489800070878 0.44894968246213973 0.44992672203224227
0.1932838950006044 0.44992672203224227 0.4479726428920372
0.19350913200014475 0.44894968246213973 0.44992672203224227
0.19369653600006131 0.4509037616023448 0.45188080117244755
0.19388369900025282 0.44992672203224227 0.4528578407425501
0.19406965899997886 0.44699560332193444 0.4528578407425501
0.19425650700031838 0.4479726428920372 0.4538348803126526
0.19444328200006566 0.4450415241817294 0.4557889594528579
0.19462974199996097 0.4460185637518319 0.4557889594528579
0.19484166400070535 0.4460185637518319 0.457743038593063
0.19503147500017803 0.44699560332193444 0.46165119687347334
0.1952183610001157 0.44699560332193444 0.4606741573033708
0.19540498700007447 0.4460185637518319 0.46165119687347334
0.19559231700077362 0.44699560332193444 0.4636052760136786
0.19577925800058438 0.4450415241817294 0.46262823644357587
0.195966903000226 0.44406448461162684 0.46165119687347334
0.19615365900062898 0.4460185637518319 0.4636052760136786
0.19634048900024936 0.4450415241817294 0.4655593551538837
0.19652733800012356 0.44406448461162684 0.46458231558378116
0.196716927000125 0.44406448461162684 0.46458231558378116
0.19690501600052812 0.4450415241817294 0.46458231558378116
0.19709219800006395 0.44406448461162684 0.467513434294089
0.19728152800053067 0.44211040547142155 0.4665363947239862
0.19748474700008956 0.4450415241817294 0.467513434294089
0.1976727800001754 0.44406448461162684 0.46946751343429405
0.19786033300078998 0.44699560332193444 0.4704445530043966
0.1981990300000689 0.4460185637518319 0.46946751343429405
0.1983889339999223 0.44992672203224227 0.46946751343429405
0.19857589399998687 0.44406448461162684 0.46946751343429405
0.1987641870000516 0.44211040547142155 0.47142159257449934
0.19896081300066726 0.4450415241817294 0.4733756717147044
0.19915469900024618 0.44406448461162684 0.47239863214460187
0.1993588989998898 0.44992672203224227 0.46946751343429405
0.19956191400069656 0.44894968246213973 0.4684904738641915
0.19975855800021236 0.44699560332193444 0.46946751343429405
0.1999546470005953 0.4460185637518319 0.46946751343429405
0.20014347699998325 0.44894968246213973 0.46458231558378116
0.20032973300021695 0.44894968246213973 0.46458231558378116
0.20051658200009115 0.44699560332193444 0.46165119687347334
0.2007024860004094 0.44992672203224227 0.46165119687347334
0.20089209400066466 0.44699560332193444 0.46165119687347334
0.20108827500007465 0.45188080117244755 0.46165119687347334
0.20127680900077394 0.45188080117244755 0.4606741573033708
0.2014718240006914 0.45188080117244755 0.4606741573033708
0.20170687600057136 0.44992672203224227 0.457743038593063
0.20189694600048824 0.4509037616023448 0.46262823644357587
0.20208414700027788 0.4538348803126526 0.45969711773326827
0.20227145800072321 0.4538348803126526 0.45969711773326827
0.20245814000008977 0.4538348803126526 0.457743038593063
0.20264545200006978 0.4538348803126526 0.4557889594528579
0.202839651999966 0.457743038593063 0.457743038593063
0.2030281860006653 0.45481191988275516 0.4538348803126526
0.20323440399988613 0.4587200781631655 0.4528578407425501
0.20342243800041615 0.45969711773326827 0.4538348803126526
0.2036091200006922 0.457743038593063 0.4538348803126526
0.2037957649999953 0.45676599902296044 0.4528578407425501
0.20398242800001753 0.45969711773326827 0.45188080117244755
0.20417372100018838 0.45969711773326827 0.45188080117244755
0.20436066199999914 0.45969711773326827 0.44894968246213973
0.20454689899997902 0.46165119687347334 0.44992672203224227
0.20473339599993778 0.46262823644357587 0.4430874450415241
0.2049205040002562 0.4606741573033708 0.44406448461162684
0.20510757500051113 0.45969711773326827 0.4460185637518319
0.20529688600072404 0.46165119687347334 0.44406448461162684
0.20548362400040787 0.46165119687347334 0.4430874450415241
0.20567045400002826 0.45969711773326827 0.44406448461162684
0.20585696900070616 0.46262823644357587 0.4430874450415241
0.20604420600011508 0.4606741573033708 0.4401563263312165
0.20623144399996818 0.46165119687347334 0.4401563263312165
0.2064190890005193 0.4606741573033708 0.4401563263312165
0.20660567800041463 0.46165119687347334 0.43917928676111373
0.20679293400007737 0.46262823644357587 0.4382022471910112
0.20700174500052526 0.46262823644357587 0.43917928676111373
0.20718903800025146 0.4606741573033708 0.44211040547142155
0.20737625700076023 0.46165119687347334 0.43917928676111373
0.20756362400061334 0.46165119687347334 0.4352711284807034
0.20777632400040602 0.4606741573033708 0.43624816805080613
0.20796395000070333 0.45969711773326827 0.43429408891060084
0.20815102100004879 0.46262823644357587 0.4382022471910112
0.20833879500059993 0.46262823644357587 0.4382022471910112
0.2085259590003261 0.46165119687347334 0.43722520762090866
0.2087123999999676 0.4655593551538837 0.4382022471910112
0.20889854500001093 0.4636052760136786 0.44406448461162684
0.20908631900056207 0.4606741573033708 0.43917928676111373
0.2092729820005843 0.4636052760136786 0.43624816805080613
0.209460867999951 0.457743038593063 0.43429408891060084
0.20964873499997339 0.45969711773326827 0.4382022471910112
0.20987141600016912 0.457743038593063 0.43722520762090866
0.2100603200005935 0.45969711773326827 0.43624816805080613
0.21025720600027853 0.45676599902296044 0.4382022471910112
0.21045531300023868 0.45481191988275516 0.4382022471910112
0.21065301399994496 0.45188080117244755 0.4450415241817294
0.21084826900005282 0.4509037616023448 0.4382022471910112
0.21103671099990606 0.44894968246213973 0.4401563263312165
0.2112235040003725 0.44699560332193444 0.43917928676111373
0.21141042599992943 0.44894968246213973 0.441133365901319
0.2115980890002902 0.44894968246213973 0.4401563263312165
0.21178501200029132 0.44992672203224227 0.4430874450415241
0.211971712000377 0.4509037616023448 0.44406448461162684
0.2121631170002729 0.44699560332193444 0.4509037616023448
0.21235120600067603 0.44699560332193444 0.4450415241817294
0.21253818400055025 0.4538348803126526 0.441133365901319
0.21272614400004386 0.44992672203224227 0.44211040547142155
0.21291317700070067 0.44699560332193444 0.4401563263312165
0.21310063700002502 0.4479726428920372 0.44211040547142155
0.21328817100038577 0.4479726428920372 0.4450415241817294
0.21350131500003044 0.4479726428920372 0.4479726428920372
0.21368933000030665 0.4479726428920372 0.44894968246213973
0.21387579000020196 0.4450415241817294 0.45188080117244755
0.21406425000077434 0.4460185637518319 0.4528578407425501
0.21428457900037756 0.4450415241817294 0.45676599902296044
0.21447998300027393 0.4460185637518319 0.4587200781631655
0.21467673900042428 0.4460185637518319 0.457743038593063
0.2148888280007668 0.44406448461162684 0.46165119687347334
0.2150984720001361 0.4430874450415241 0.46165119687347334
0.21529859800011764 0.4450415241817294 0.4587200781631655
0.21549398400020436 0.4430874450415241 0.45676599902296044
0.21569464700041863 0.44992672203224227 0.457743038593063
0.2159033840007396 0.4430874450415241 0.4606741573033708
0.21612319500036392 0.4430874450415241 0.46165119687347334
0.21635615300056088 0.44406448461162684 0.4655593551538837
0.21663264900053036 0.4430874450415241 0.467513434294089
0.21687531099996704 0.4430874450415241 0.46458231558378116
0.21709673300028953 0.4460185637518319 0.46458231558378116
0.21729959999993298 0.4450415241817294 0.467513434294089
0.21749728100076027 0.4450415241817294 0.4684904738641915
0.21769635200053017 0.44894968246213973 0.4655593551538837
0.21789823700055422 0.44992672203224227 0.4684904738641915
0.21810177099996508 0.44894968246213973 0.4684904738641915
0.2183291930004998 0.4479726428920372 0.47142159257449934
0.21864135400028317 0.45188080117244755 0.4704445530043966
0.2189684960003433 0.44992672203224227 0.4753297508549097
0.21926808300031553 0.44699560332193444 0.47142159257449934
0.21956267099994875 0.44699560332193444 0.4684904738641915
0.21980849999999919 0.44992672203224227 0.4665363947239862
0.22000921800008655 0.4509037616023448 0.467513434294089
0.2202052709999407 0.4509037616023448 0.467513434294089
0.22040045199992164 0.45188080117244755 0.4655593551538837
0.2206018930000937 0.4509037616023448 0.467513434294089
0.22080259300037142 0.45188080117244755 0.4636052760136786
0.22099888600041595 0.4528578407425501 0.46458231558378116
0.22120147500027088 0.45676599902296044 0.4655593551538837
0.22139649000018835 0.457743038593063 0.46458231558378116
0.22164644900021813 0.457743038593063 0.4665363947239862
0.22184300100070686 0.457743038593063 0.46165119687347334
0.22203781200005324 0.4684904738641915 0.46165119687347334
0.22226249300001655 0.45969711773326827 0.4587200781631655
0.22250426700065873 0.46262823644357587 0.45969711773326827
0.22271661500053597 0.4606741573033708 0.45676599902296044
0.22300673900008405 0.4606741573033708 0.45969711773326827
0.22324073500021768 0.4606741573033708 0.4538348803126526
0.2234299910005575 0.46165119687347334 0.4528578407425501
0.223619506000432 0.46165119687347334 0.4587200781631655
0.22380698500001017 0.45969711773326827 0.4528578407425501
0.2239985180003714 0.4587200781631655 0.4509037616023448
0.22420086600050126 0.4606741573033708 0.4509037616023448
0.22439895600018644 0.46165119687347334 0.44992672203224227
0.22459391500069614 0.46165119687347334 0.44699560332193444
0.2247883380005078 0.4606741573033708 0.4450415241817294
0.22498501900008705 0.46165119687347334 0.4450415241817294
0.22524897800030885 0.457743038593063 0.441133365901319
0.22544914100035385 0.45676599902296044 0.43917928676111373
0.2256427669999539 0.45676599902296044 0.4382022471910112
0.22583472600035748 0.457743038593063 0.44406448461162684
0.22602437100067618 0.457743038593063 0.441133365901319
0.22621668300052988 0.45969711773326827 0.44211040547142155
0.22641267900053208 0.45969711773326827 0.441133365901319
0.22662850899996556 0.4655593551538837 0.4450415241817294
0.22686519000035332 0.46165119687347334 0.43917928676111373
0.22706816800018714 0.46165119687347334 0.43917928676111373
0.2272704420001901 0.46165119687347334 0.4401563263312165
0.22747786400032055 0.46165119687347334 0.43722520762090866
0.227730915000393 0.46165119687347334 0.4352711284807034
0.22792768900035298 0.4606741573033708 0.43624816805080613
0.2281222040001012 0.4606741573033708 0.4352711284807034
0.228317516000061 0.4587200781631655 0.43624816805080613
0.2285168460002751 0.45969711773326827 0.4401563263312165
0.2287159530005738 0.45676599902296044 0.43624816805080613
0.22891843100023834 0.4587200781631655 0.43722520762090866
0.22911807600030443 0.4704445530043966 0.4401563263312165
0.22931273900030646 0.457743038593063 0.4382022471910112
0.22950125400075194 0.45676599902296044 0.4401563263312165
0.2296883250000974 0.4557889594528579 0.44406448461162684
0.22988002500005678 0.45676599902296044 0.44406448461162684
0.23007909600073617 0.45481191988275516 0.44699560332193444
0.23026703699997597 0.457743038593063 0.44699560332193444
0.23045483000078093 0.45969711773326827 0.44992672203224227
0.23064199300006294 0.45969711773326827 0.44699560332193444
0.23088935900068464 0.45481191988275516 0.4450415241817294
0.23107737400005135 0.4528578407425501 0.4430874450415241
0.23126476000015828 0.4538348803126526 0.44211040547142155
0.23145234900039213 0.45188080117244755 0.44406448461162684
0.2316391049998856 0.45481191988275516 0.44406448461162684
0.23182593500041548 0.45481191988275516 0.441133365901319
0.23201295000035316 0.457743038593063 0.441133365901319
0.23219974299991009 0.4538348803126526 0.44406448461162684
0.23239105500033475 0.4528578407425501 0.4430874450415241
0.232594828999936 0.4528578407425501 0.441133365901319
0.23279491800076357 0.4509037616023448 0.44406448461162684
0.23300308100078837 0.45188080117244755 0.44406448461162684
0.23320172600051592 0.44894968246213973 0.4450415241817294
0.2334619430002931 0.44699560332193444 0.44699560332193444
0.23365355100031593 0.4460185637518319 0.44894968246213973
0.23384001100021123 0.4460185637518319 0.4509037616023448
0.23402673000055074 0.4460185637518319 0.4538348803126526
0.2342135409999173 0.44406448461162684 0.4509037616023448
0.2343993340000452 0.44406448461162684 0.4538348803126526
0.23458607200063852 0.44211040547142155 0.45481191988275516
0.23477330900004745 0.441133365901319 0.4557889594528579
0.23497149100057868 0.4450415241817294 0.45676599902296044
0.23515963600038958 0.4460185637518319 0.4606741573033708
0.23534900300001027 0.44699560332193444 0.46262823644357587
0.23553662900030758 0.44699560332193444 0.4606741573033708
0.23572488500030886 0.44406448461162684 0.4636052760136786
0.23596451000048546 0.44406448461162684 0.46165119687347334
0.23615200700078276 0.4430874450415241 0.46165119687347334
0.2363386699998955 0.44406448461162684 0.46165119687347334
0.23652540800048882 0.4450415241817294 0.4665363947239862
0.2367250890001742 0.44406448461162684 0.4655593551538837
0.236918178000451 0.44992672203224227 0.46458231558378116
0.23710930500055838 0.4450415241817294 0.46458231558378116
0.2373112459999902 0.44699560332193444 0.4665363947239862
0.2375022420001187 0.4450415241817294 0.4684904738641915
0.2376913690004585 0.4450415241817294 0.4684904738641915
0.23787925400029053 0.4460185637518319 0.47142159257449934
0.23807075100012298 0.4450415241817294 0.46946751343429405
0.23825735800073744 0.44894968246213973 0.4704445530043966
0.2384448370003156 0.45188080117244755 0.46946751343429405
0.23863211100069748 0.4460185637518319 0.46946751343429405
0.23883860700061632 0.441133365901319 0.4665363947239862
0.23902840000027936 0.4450415241817294 0.46946751343429405
0.23921537900059775 0.4430874450415241 0.46458231558378116
0.23940267200032395 0.44211040547142155 0.4655593551538837
0.23958981600026164 0.44894968246213973 0.4655593551538837
0.23980879400005506 0.4450415241817294 0.4665363947239862
0.2399976050000987 0.44699560332193444 0.4655593551538837
0.2401854910003749 0.4479726428920372 0.46262823644357587
0.24037250600031257 0.44992672203224227 0.46458231558378116
0.24055879900060972 0.44992672203224227 0.46165119687347334
0.24074648100031482 0.44894968246213973 0.46262823644357587
0.24093388500023138 0.45188080117244755 0.4636052760136786
0.2411216600003172 0.44992672203224227 0.46262823644357587
0.24130852700000105 0.4509037616023448 0.4636052760136786
0.24149569000019255 0.4557889594528579 0.4655593551538837
0.24168240900053206 0.4528578407425501 0.46165119687347334
0.24187231300038547 0.45481191988275516 0.4665363947239862
0.24206010600028094 0.4538348803126526 0.4606741573033708
0.24224723200040899 0.4538348803126526 0.45969711773326827
0.24243426600060047 0.4528578407425501 0.46458231558378116
0.24262154100051703 0.4557889594528579 0.4655593551538837
0.24281813000015973 0.45481191988275516 0.4587200781631655
0.24300738600049954 0.45481191988275516 0.4606741573033708
0.2431949750007334 0.45676599902296044 0.46165119687347334
0.24338243400052306 0.45969711773326827 0.4587200781631655
0.24357252400022844 0.457743038593063 0.45481191988275516
0.2437862420001693 0.45969711773326827 0.45481191988275516
0.2439952570002788 0.45676599902296044 0.4528578407425501
0.24424654900030873 0.45676599902296044 0.45188080117244755
0.24445302700041793 0.45676599902296044 0.4509037616023448
0.2446434120001868 0.4528578407425501 0.44894968246213973
0.24483076100023027 0.45676599902296044 0.44894968246213973
0.24501809100001992 0.457743038593063 0.44992672203224227
0.24520540200046526 0.457743038593063 0.44992672203224227
0.2453924540004664 0.4587200781631655 0.44894968246213973
0.2455827470002987 0.45676599902296044 0.44992672203224227
0.24576944799991907 0.4557889594528579 0.44699560332193444
0.24595633300032205 0.45676599902296044 0.4460185637518319
0.2461450890004926 0.45676599902296044 0.4460185637518319
0.2463316230005148 0.45969711773326827 0.4460185637518319
0.24651900900062174 0.45969711773326827 0.4450415241817294
0.2467068570003903 0.46165119687347334 0.4450415241817294
0.24694905700016534 0.46262823644357587 0.4460185637518319
0.24713707200044155 0.46165119687347334 0.4430874450415241
0.24732538300031592 0.4606741573033708 0.44406448461162684
0.2475365830005103 0.46165119687347334 0.441133365901319
0.24773037600061798 0.46165119687347334 0.44211040547142155
0.24792572400019708 0.4606741573033708 0.43917928676111373
0.2481187030007277 0.45969711773326827 0.4401563263312165
0.248342662000141 0.45969711773326827 0.4382022471910112
0.2485426950006513 0.45969711773326827 0.4382022471910112
0.24874187700061157 0.4528578407425501 0.4382022471910112
0.24894861400025547 0.45481191988275516 0.43624816805080613
0.2491465920002156 0.45481191988275516 0.4352711284807034
0.2493449960002181 0.4528578407425501 0.4352711284807034
0.24954804800017882 0.4538348803126526 0.43722520762090866
0.24974645100064663 0.4538348803126526 0.43722520762090866
0.24995280000075581 0.4538348803126526 0.4382022471910112
0.25017924000076164 0.4509037616023448 0.4382022471910112
0.2504170320007688 0.4528578407425501 0.4401563263312165
0.25077184100064187 0.4509037616023448 0.441133365901319
0.25102900300043984 0.44992672203224227 0.4460185637518319
0.25122527700023056 0.4509037616023448 0.4460185637518319
0.2514234590007618 0.44992672203224227 0.44406448461162684
0.251619455000764 0.45188080117244755 0.44992672203224227
0.25181347000034293 0.4509037616023448 0.4479726428920372
0.2520201330007694 0.44992672203224227 0.44894968246213973
0.25223770400043577 0.44699560332193444 0.44699560332193444
0.2525020319999385 0.44699560332193444 0.4460185637518319
0.2527451949999886 0.4460185637518319 0.4479726428920372
0.25296306100062793 0.4479726428920372 0.44699560332193444
0.2532284819999404 0.44699560332193444 0.44894968246213973
0.25349316300071223 0.44699560332193444 0.4528578407425501
0.25385230500069156 0.4450415241817294 0.45481191988275516
0.25420729800043773 0.4450415241817294 0.45969711773326827
0.25448757100002695 0.4450415241817294 0.45676599902296044
0.2548413430004075 0.44406448461162684 0.4587200781631655
0.2551495040006557 0.4430874450415241 0.45969711773326827
0.25541203600005247 0.441133365901319 0.46165119687347334
0.2556286250000994 0.441133365901319 0.45969711773326827
0.25583064000056766 0.4430874450415241 0.45676599902296044
0.2560227849999137 0.44406448461162684 0.46165119687347334
0.2562104670005283 0.44406448461162684 0.46458231558378116
0.256398481999895 0.44406448461162684 0.46262823644357587
0.25658586800000194 0.44406448461162684 0.4655593551538837
0.2567748460005532 0.4430874450415241 0.467513434294089
0.2569622500004698 0.4460185637518319 0.4665363947239862
0.25715009800023836 0.44406448461162684 0.4655593551538837
0.25733870600015507 0.4430874450415241 0.46458231558378116
0.25752559200009273 0.4460185637518319 0.46262823644357587
0.2577134400007708 0.44992672203224227 0.46262823644357587
0.2579005289999259 0.4460185637518319 0.4655593551538837
0.2580883040000117 0.4460185637518319 0.46458231558378116
0.25827550400026666 0.44992672203224227 0.4655593551538837
0.25847450099990965 0.44699560332193444 0.46458231558378116
0.25866655300069397 0.44699560332193444 0.4655593551538837
0.2588686420003796 0.4460185637518319 0.4684904738641915
0.2590583790006349 0.4450415241817294 0.467513434294089
0.259247654000319 0.44894968246213973 0.47142159257449934
0.25943507600004523 0.44894968246213973 0.47142159257449934
0.2596217030004482 0.44992672203224227 0.4684904738641915
0.25980938500015327 0.44992672203224227 0.46946751343429405
0.2599971590007044 0.4509037616023448 0.47142159257449934
0.2601841740006421 0.4509037616023448 0.47239863214460187
0.26037111500045285 0.4528578407425501 0.47239863214460187
0.2605586680001579 0.4557889594528579 0.4753297508549097
0.26074714600053994 0.4538348803126526 0.4704445530043966
0.2609344200000123 0.4528578407425501 0.46946751343429405
0.26112167600058456 0.4528578407425501 0.4636052760136786
0.2613085430002684 0.45676599902296044 0.46165119687347334
0.2614952070007348 0.457743038593063 0.46165119687347334
0.2616822400004821 0.45481191988275516 0.457743038593063
0.26189184800023213 0.4587200781631655 0.45676599902296044
0.26211088099989865 0.4538348803126526 0.4587200781631655
0.26229960000000574 0.45481191988275516 0.457743038593063
0.26248748500074726 0.45676599902296044 0.4606741573033708
0.26267483399988123 0.457743038593063 0.4636052760136786
0.26286310800060164 0.457743038593063 0.46165119687347334
0.26305204900018 0.457743038593063 0.4636052760136786
0.2632389910004349 0.457743038593063 0.46165119687347334
0.2634258759999284 0.46262823644357587 0.46165119687347334
0.26361242800066975 0.45676599902296044 0.4587200781631655
0.26380129500012117 0.4587200781631655 0.45676599902296044
0.2639893290006512 0.45676599902296044 0.4538348803126526
0.2641849920000823 0.457743038593063 0.45481191988275516
0.2643712110002525 0.46262823644357587 0.4509037616023448
0.26455874500061327 0.45676599902296044 0.4479726428920372
0.2647456490003606 0.457743038593063 0.44992672203224227
0.26493259000017133 0.4587200781631655 0.4450415241817294
0.26512016100059554 0.45481191988275516 0.44406448461162684
0.26530706500034285 0.457743038593063 0.44406448461162684
0.265493802000492 0.45969711773326827 0.44406448461162684
0.2656813180001336 0.45969711773326827 0.44211040547142155
0.2658785550001994 0.457743038593063 0.44211040547142155
0.26608331100032956 0.4606741573033708 0.4401563263312165
0.2662886220005021 0.457743038593063 0.4401563263312165
0.2664977110007385 0.4587200781631655 0.43917928676111373
0.2667027630004668 0.4587200781631655 0.4382022471910112
0.26694164700074907 0.4606741573033708 0.43722520762090866
0.26713166199988336 0.45969711773326827 0.4352711284807034
0.26731882600051904 0.45969711773326827 0.43624816805080613
0.267506341000626 0.4587200781631655 0.43722520762090866
0.26769400400007726 0.45676599902296044 0.4382022471910112
0.2678811490004591 0.45676599902296044 0.4333170493404983
0.2680688119999104 0.45969711773326827 0.43429408891060084
0.26825616099995386 0.4587200781631655 0.4352711284807034
0.26844384300056845 0.4606741573033708 0.43624816805080613
0.26863087700075994 0.45969711773326827 0.4382022471910112
0.268817410000338 0.46262823644357587 0.431362970200293
0.2690047030000642 0.4606741573033708 0.43429408891060084
0.2691923299998962 0.46262823644357587 0.431362970200293
0.2693797710007857 0.46165119687347334 0.4323400097703958
0.2695663419999619 0.4587200781631655 0.43429408891060084
0.2697602640000696 0.46165119687347334 0.43429408891060084
0.26994826100053615 0.45969711773326827 0.4352711284807034
0.27019342299990967 0.457743038593063 0.4382022471910112
0.2703828829999111 0.457743038593063 0.4401563263312165
0.2705697310002506 0.4557889594528579 0.4401563263312165
0.2707566349999979 0.4528578407425501 0.43917928676111373
0.2709496500001478 0.4538348803126526 0.44211040547142155
0.27113814700078365 0.45676599902296044 0.441133365901319
0.2713263840005311 0.4538348803126526 0.44211040547142155
0.2715138070007015 0.44992672203224227 0.44211040547142155
0.27170095200017386 0.44992672203224227 0.44211040547142155
0.27188941200074623 0.44992672203224227 0.44211040547142155
0.27207657500002824 0.44699560332193444 0.441133365901319
0.2722632380000505 0.44699560332193444 0.4430874450415241
0.27245027200024197 0.44894968246213973 0.44406448461162684
0.2726378980005393 0.44406448461162684 0.44406448461162684
0.2728245060006884 0.44211040547142155 0.4430874450415241
0.2730113550005626 0.441133365901319 0.4450415241817294
0.27319853700009844 0.441133365901319 0.44894968246213973
0.27338557000075525 0.44406448461162684 0.4479726428920372
0.273572067000714 0.4430874450415241 0.4509037616023448
0.2737584340002286 0.44406448461162684 0.45188080117244755
0.27394568999989133 0.44406448461162684 0.4538348803126526
0.2741427240007397 0.44406448461162684 0.4557889594528579
0.27433012800065626 0.441133365901319 0.45969711773326827
0.2745180320007421 0.441133365901319 0.45969711773326827
0.27470652800002426 0.44406448461162684 0.4587200781631655
0.27491059900057735 0.4430874450415241 0.4606741573033708
0.2750975400003881 0.44406448461162684 0.4587200781631655
0.2752848330001143 0.4450415241817294 0.46165119687347334
0.27547197800049616 0.44211040547142155 0.46165119687347334
0.27565973400032817 0.4430874450415241 0.4606741573033708
0.2758469160007735 0.44211040547142155 0.46165119687347334
0.27604139400045824 0.44406448461162684 0.46165119687347334
0.27623318699988886 0.4430874450415241 0.46262823644357587
0.2764206830006515 0.4479726428920372 0.46165119687347334
0.27660808700056805 0.4479726428920372 0.46165119687347334
0.2767951770001673 0.4430874450415241 0.46262823644357587
0.27698197000063374 0.441133365901319 0.4636052760136786
0.27717044800010626 0.441133365901319 0.46458231558378116
0.2773569999999381 0.441133365901319 0.4655593551538837
0.27754470000036235 0.441133365901319 0.4665363947239862
0.2777365669999199 0.44211040547142155 0.4655593551538837
0.27792363800017483 0.43917928676111373 0.467513434294089
0.27811217199996463 0.441133365901319 0.4655593551538837
0.27830987200013624 0.4460185637518319 0.467513434294089
0.27849659100047575 0.44406448461162684 0.4655593551538837
0.27868416199999047 0.4450415241817294 0.46946751343429405
0.27887280600043596 0.44211040547142155 0.4655593551538837
0.27906076599992957 0.4430874450415241 0.467513434294089
0.27924668900050165 0.4450415241817294 0.4665363947239862
0.27943357399999513 0.4430874450415241 0.467513434294089
0.2796206080001866 0.4460185637518319 0.467513434294089
0.2798082710005474 0.4450415241817294 0.4665363947239862
0.27999619399997755 0.4430874450415241 0.4655593551538837
0.28018311699997867 0.4430874450415241 0.46262823644357587
0.28037059500002215 0.4430874450415241 0.4636052760136786
0.28057875800004695 0.44406448461162684 0.45969711773326827
0.28078029100015556 0.4450415241817294 0.45969711773326827
0.2809755660000519 0.4450415241817294 0.45676599902296044
0.2811686550003287 0.44894968246213973 0.45481191988275516
0.28136681800060614 0.44894968246213973 0.45676599902296044
0.2815638880001643 0.44992672203224227 0.4587200781631655
0.2817568670006949 0.4538348803126526 0.45481191988275516
0.28195275200050673 0.4528578407425501 0.4538348803126526
0.2821524340006363 0.45481191988275516 0.4528578407425501
0.2823494300000675 0.4528578407425501 0.45188080117244755
0.2825481670006411 0.4538348803126526 0.45188080117244755
0.2827434600003471 0.45969711773326827 0.4528578407425501
0.28298534500027017 0.4557889594528579 0.44992672203224227
0.28319400800046424 0.45676599902296044 0.44992672203224227
0.283402486000341 0.46458231558378116 0.44894968246213973
0.28360935199998494 0.46262823644357587 0.44894968246213973
0.2838275150006666 0.45676599902296044 0.45188080117244755
0.28405567800018616 0.4606741573033708 0.4460185637518319
0.2842794890002551 0.4606741573033708 0.4460185637518319
0.28450626199992257 0.45969711773326827 0.4450415241817294
0.28472573999988526 0.45969711773326827 0.4450415241817294
0.28495316200042 0.457743038593063 0.4450415241817294
0.28515973200046574 0.4606741573033708 0.44406448461162684
0.2853569320004681 0.4606741573033708 0.44211040547142155
0.28555629900074564 0.4606741573033708 0.441133365901319
0.2857490180003879 0.45969711773326827 0.44406448461162684
0.2859435330001361 0.4606741573033708 0.44699560332193444
0.2861395670006459 0.4606741573033708 0.44406448461162684
0.2863271559999703 0.4636052760136786 0.441133365901319
0.2865184860002046 0.4636052760136786 0.44211040547142155
0.2867303160001029 0.4636052760136786 0.4450415241817294
0.28694546000042465 0.46262823644357587 0.44211040547142155
0.28713373400023556 0.467513434294089 0.44406448461162684
0.2873206760004905 0.46262823644357587 0.43917928676111373
0.2875352830005795 0.46165119687347334 0.43917928676111373
0.28774613099994895 0.45969711773326827 0.43722520762090866
0.28799890400023287 0.4587200781631655 0.43722520762090866
0.2882448070004102 0.457743038593063 0.4382022471910112
0.2884745440005645 0.4587200781631655 0.4382022471910112
0.28870581800038053 0.457743038593063 0.43624816805080613
0.28897503500047605 0.457743038593063 0.43429408891060084
0.28924904900031834 0.4587200781631655 0.43624816805080613
0.28945995200047037 0.46165119687347334 0.4382022471910112
0.28966102300000784 0.46165119687347334 0.4382022471910112
0.2898663710002438 0.4606741573033708 0.4382022471910112
0.29009666300044046 0.46165119687347334 0.43722520762090866
0.2903298999999606 0.4587200781631655 0.4382022471910112
0.29053352600021753 0.4587200781631655 0.441133365901319
0.29072181900028227 0.45969711773326827 0.4401563263312165
0.29094909300056315 0.457743038593063 0.4430874450415241
0.29113620099997206 0.4538348803126526 0.44211040547142155
0.291323401000227 0.45481191988275516 0.44406448461162684
0.29151449000073626 0.4538348803126526 0.4450415241817294
0.2917009680004412 0.4528578407425501 0.4450415241817294
0.29188822400010395 0.45188080117244755 0.4450415241817294
0.29207570200014743 0.44992672203224227 0.44406448461162684
0.29226231000029657 0.44894968246213973 0.44406448461162684
0.29244921400004387 0.4509037616023448 0.44406448461162684
0.2926359330003834 0.44992672203224227 0.4479726428920372
0.29282237400002487 0.44992672203224227 0.4460185637518319
0.29300966700066056 0.4450415241817294 0.44699560332193444
0.29319625700009055 0.44699560332193444 0.45188080117244755
0.29338388300038787 0.44699560332193444 0.4528578407425501
0.2935710090005159 0.4460185637518319 0.4528578407425501
0.29375743200034776 0.4450415241817294 0.4557889594528579
0.29394454000066617 0.44406448461162684 0.45481191988275516
0.2941326290001598 0.4450415241817294 0.45676599902296044
0.2943194590006897 0.4450415241817294 0.457743038593063
0.29450699300014094 0.44406448461162684 0.457743038593063
0.29469384100048046 0.4430874450415241 0.4587200781631655
0.29490081900075893 0.44211040547142155 0.457743038593063
0.29510457500055054 0.44211040547142155 0.457743038593063
0.2952976080005101 0.441133365901319 0.46165119687347334
0.2955282150005587 0.441133365901319 0.4587200781631655
0.2957156380007291 0.44211040547142155 0.46165119687347334
0.2959022459999687 0.441133365901319 0.46165119687347334
0.2960890570002448 0.4401563263312165 0.4606741573033708
0.2963006280006084 0.44211040547142155 0.46165119687347334
0.2964879210003346 0.441133365901319 0.4636052760136786
0.29667589900054736 0.43917928676111373 0.46165119687347334
0.29686402500010445 0.44211040547142155 0.46262823644357587
0.2970509659999152 0.4401563263312165 0.46262823644357587
0.29723759300031816 0.43917928676111373 0.46262823644357587
0.2974275149999812 0.4382022471910112 0.46458231558378116
0.29761634500027867 0.4382022471910112 0.4665363947239862
0.2978030640006182 0.4450415241817294 0.46946751343429405
0.29799026399996364 0.441133365901319 0.4684904738641915
0.2981771690001551 0.4450415241817294 0.46946751343429405
0.2983636839999235 0.441133365901319 0.4684904738641915
0.2985503290001361 0.44211040547142155 0.46946751343429405
0.29873719600072945 0.44211040547142155 0.467513434294089
0.2989443960004792 0.44406448461162684 0.4665363947239862
0.2991317630003323 0.44406448461162684 0.4655593551538837
0.2993180740004391 0.4450415241817294 0.46458231558378116
0.2995155890002934 0.4450415241817294 0.4636052760136786
0.29970812300052785 0.44211040547142155 0.4636052760136786
0.2999167860007219 0.4450415241817294 0.467513434294089
0.3001292450007895 0.4450415241817294 0.46165119687347334
0.30032957500043267 0.44992672203224227 0.4636052760136786
0.30051757199998974 0.4460185637518319 0.46165119687347334
0.30070579099992756 0.44992672203224227 0.46165119687347334
0.300892398000542 0.45188080117244755 0.4606741573033708
0.3010787840003104 0.4509037616023448 0.4587200781631655
0.30126539200045954 0.4538348803126526 0.45676599902296044
0.30145227699995303 0.4606741573033708 0.4587200781631655
0.30163836700012325 0.4538348803126526 0.45969711773326827
0.30182514100033586 0.4538348803126526 0.46165119687347334
0.30201119299999846 0.4557889594528579 0.46165119687347334
0.3022000790006132 0.45676599902296044 0.46262823644357587
0.3023870020006143 0.4557889594528579 0.46262823644357587
0.3025728500006153 0.4557889594528579 0.4636052760136786
0.30275914300000295 0.45676599902296044 0.46165119687347334
0.30294941700049094 0.45676599902296044 0.457743038593063
0.30313659900002676 0.45676599902296044 0.4557889594528579
0.3033602069999688 0.45676599902296044 0.45676599902296044
0.3035785170004601 0.45481191988275516 0.4509037616023448
0.3037666440004614 0.45969711773326827 0.45188080117244755
0.3039536960004625 0.4587200781631655 0.44894968246213973
0.30414152600042144 0.4606741573033708 0.44992672203224227
0.3043281520003802 0.46165119687347334 0.4479726428920372
0.30451477900078316 0.46165119687347334 0.44699560332193444
0.3047016270002132 0.46165119687347334 0.4538348803126526
0.30489079100061645 0.4606741573033708 0.44992672203224227
0.30507852800019464 0.46165119687347334 0.4450415241817294
0.3052656170002592 0.45969711773326827 0.4460185637518319
0.3054525030001969 0.46262823644357587 0.4460185637518319
0.30563905500002875 0.46165119687347334 0.4450415241817294
0.3058261810001568 0.4606741573033708 0.44406448461162684
0.3060132340006021 0.4606741573033708 0.4430874450415241
0.30620030400041287 0.45969711773326827 0.44406448461162684
0.30638720900060434 0.4587200781631655 0.4450415241817294
0.30657340900052077 0.46165119687347334 0.44211040547142155
0.3067796650002492 0.4606741573033708 0.44406448461162684
0.3069709760002297 0.4636052760136786 0.44406448461162684
0.3071580650002943 0.4636052760136786 0.44211040547142155
0.30734428400046454 0.457743038593063 0.4401563263312165
0.3075324660003389 0.45969711773326827 0.4401563263312165
0.3077198520004458 0.457743038593063 0.4382022471910112
0.30790910800078564 0.46165119687347334 0.43917928676111373
0.30809621500065987 0.45969711773326827 0.43722520762090866
0.30828304500028025 0.4606741573033708 0.43624816805080613
0.3084700420004083 0.4606741573033708 0.43722520762090866
0.3086564459999863 0.4606741573033708 0.4352711284807034
0.30884310900000855 0.4606741573033708 0.43722520762090866
0.30902995799988275 0.45969711773326827 0.43722520762090866
0.3092166950000319 0.4606741573033708 0.4382022471910112
0.3094032290000541 0.45676599902296044 0.44406448461162684
0.30958994800039363 0.457743038593063 0.4382022471910112
0.30977627800075425 0.45676599902296044 0.441133365901319
0.3099626820003323 0.4557889594528579 0.44406448461162684
0.31015028999991046 0.4557889594528579 0.45188080117244755
0.3103371020006307 0.4528578407425501 0.44699560332193444
0.3105271720005476 0.457743038593063 0.4460185637518319
0.31072863200006395 0.457743038593063 0.4450415241817294
0.31094233200019517 0.4528578407425501 0.44894968246213973
0.31113975400057825 0.45188080117244755 0.4460185637518319
0.31133375100034755 0.4509037616023448 0.44699560332193444
0.31152156200005265 0.4509037616023448 0.44894968246213973
0.3117352990002473 0.4509037616023448 0.44894968246213973
0.3119247770000584 0.45188080117244755 0.44699560332193444
0.3121128660004615 0.45188080117244755 0.44699560332193444
0.3122994559998915 0.45188080117244755 0.4479726428920372
0.3124859520003156 0.44992672203224227 0.44699560332193444
0.3126728750003167 0.4509037616023448 0.44699560332193444
0.31286098300006415 0.45188080117244755 0.44992672203224227
0.31305431300006603 0.44992672203224227 0.44992672203224227
0.3132439760001944 0.44992672203224227 0.4528578407425501
0.3134310840005128 0.44894968246213973 0.45481191988275516
0.3136175990002812 0.44699560332193444 0.45481191988275516
0.3138045030000285 0.4450415241817294 0.457743038593063
0.31399107400011417 0.4450415241817294 0.45969711773326827
0.3141781260001153 0.44894968246213973 0.46165119687347334
0.3143645119998837 0.44992672203224227 0.46165119687347334
0.3145508229999905 0.4450415241817294 0.46458231558378116
0.3147373570000127 0.44406448461162684 0.4636052760136786
0.3149279650006065 0.4450415241817294 0.46165119687347334
0.3151152390000789 0.4460185637518319 0.46165119687347334
0.31530199500048184 0.4450415241817294 0.46165119687347334
0.3154911400006313 0.44699560332193444 0.46262823644357587
0.3156776740006535 0.4450415241817294 0.46458231558378116
0.31586500400044315 0.44406448461162684 0.4655593551538837
0.3160521300005712 0.4450415241817294 0.46458231558378116
0.31624127500072063 0.44211040547142155 0.46946751343429405
0.3164289380001719 0.4450415241817294 0.4665363947239862
0.3166157680007018 0.44406448461162684 0.4655593551538837
0.316801895000026 0.44406448461162684 0.46458231558378116
0.31698872500055586 0.44211040547142155 0.4655593551538837
0.3171756470001128 0.4430874450415241 0.46458231558378116
0.3173620329998812 0.4430874450415241 0.46262823644357587
0.31756269600009546 0.4430874450415241 0.46165119687347334
0.31775156300045637 0.44211040547142155 0.46165119687347334
0.31793898600062676 0.4401563263312165 0.4655593551538837
0.3181275380002262 0.4401563263312165 0.46165119687347334
0.3183145900002273 0.441133365901319 0.46262823644357587
0.31850158700035536 0.44406448461162684 0.46458231558378116
0.3186885280001661 0.44406448461162684 0.46262823644357587
0.3188759320000827 0.44406448461162684 0.4655593551538837
0.31906294700002036 0.4430874450415241 0.46458231558378116
0.31924927700038097 0.4450415241817294 0.467513434294089
0.3194359409999379 0.4450415241817294 0.4655593551538837
0.3196231970005101 0.4479726428920372 0.467513434294089
0.3198326370002178 0.44992672203224227 0.4655593551538837
0.3200191519999862 0.4509037616023448 0.4665363947239862
0.3202058710003257 0.45188080117244755 0.4655593551538837
0.32039273800000956 0.44992672203224227 0.4606741573033708
0.32057958699988376 0.4509037616023448 0.45676599902296044
0.3207669170005829 0.4509037616023448 0.4636052760136786
0.3209533030003513 0.45188080117244755 0.45969711773326827
0.32114050300060626 0.4528578407425501 0.4587200781631655
0.32132712900056504 0.45188080117244755 0.4557889594528579
0.3215140700003758 0.44992672203224227 0.45481191988275516
0.3217009930003769 0.4509037616023448 0.45481191988275516
0.3218880080003146 0.44992672203224227 0.4557889594528579
0.3220807640000203 0.45676599902296044 0.457743038593063
0.3222671130006347 0.4528578407425501 0.45676599902296044
0.3224534240007415 0.45481191988275516 0.457743038593063
0.32264016200042533 0.45481191988275516 0.45676599902296044
0.32283454700063885 0.45481191988275516 0.45481191988275516
0.3230222470001536 0.45676599902296044 0.4538348803126526
0.3232203739999022 0.45676599902296044 0.4538348803126526
0.3234102410006017 0.45969711773326827 0.45188080117244755
0.32360364500073047 0.4587200781631655 0.44894968246213973
0.3237914560004356 0.45969711773326827 0.4479726428920372
0.323978564000754 0.4606741573033708 0.4479726428920372
0.32416557900069165 0.45969711773326827 0.44699560332193444
0.3243523910005024 0.45969711773326827 0.4479726428920372
0.3245396649999748 0.46165119687347334 0.44699560332193444
0.32472644000063156 0.45969711773326827 0.44699560332193444
0.3249131030006538 0.4606741573033708 0.44894968246213973
0.32509997000033763 0.45969711773326827 0.44699560332193444
0.3252867070004868 0.45969711773326827 0.4479726428920372
0.3254737410006783 0.457743038593063 0.4460185637518319
0.3256607190005525 0.45969711773326827 0.44406448461162684
0.32584780900015176 0.4557889594528579 0.44699560332193444
0.32603487899996253 0.45969711773326827 0.44406448461162684
0.3262208210007884 0.45676599902296044 0.44406448461162684
0.32640715100023954 0.4587200781631655 0.43917928676111373
0.3265937030000714 0.4636052760136786 0.44211040547142155
0.3267807180000091 0.46165119687347334 0.4401563263312165
0.326968826000666 0.46165119687347334 0.441133365901319
0.32715528500011715 0.4636052760136786 0.4382022471910112
0.3273422450001817 0.46458231558378116 0.4382022471910112
0.3275294640006905 0.46262823644357587 0.4450415241817294
0.3277232750006078 0.4606741573033708 0.4382022471910112
0.32791008700041857 0.4587200781631655 0.4382022471910112
0.32809671300037735 0.4636052760136786 0.4382022471910112
0.3282831169999554 0.4606741573033708 0.43722520762090866
0.328469762000168 0.457743038593063 0.4382022471910112
0.32865692599989416 0.45481191988275516 0.4352711284807034
0.3288437740002337 0.457743038593063 0.4352711284807034
0.32903071500004444 0.4557889594528579 0.4352711284807034
0.3292176009999821 0.45969711773326827 0.43429408891060084
0.3294043010000678 0.4587200781631655 0.4352711284807034
0.3295912980001958 0.4557889594528579 0.43429408891060084
0.32977770200068335 0.45676599902296044 0.4333170493404983
0.3299645690003672 0.45969711773326827 0.43722520762090866
0.33015197300028376 0.4538348803126526 0.4382022471910112
0.33033843300017907 0.4528578407425501 0.43722520762090866
0.3305254300003071 0.4557889594528579 0.4430874450415241
0.3307130370003506 0.45188080117244755 0.441133365901319
0.33092727400071453 0.45188080117244755 0.4450415241817294
0.3311278820001462 0.44992672203224227 0.44211040547142155
0.33131871200021124 0.45188080117244755 0.4450415241817294
0.33151470800021343 0.4509037616023448 0.44406448461162684
0.331709520000004 0.45676599902296044 0.44406448461162684
0.3319396639999468 0.44992672203224227 0.4450415241817294
0.33213188300032925 0.44992672203224227 0.4460185637518319
0.3323333980006282 0.4509037616023448 0.4450415241817294
0.332530042000144 0.44894968246213973 0.4450415241817294
0.3327227429999766 0.45188080117244755 0.4460185637518319
0.3329183320001903 0.4460185637518319 0.44894968246213973
0.3331223470004261 0.44406448461162684 0.44992672203224227
0.33333276900066267 0.44406448461162684 0.4557889594528579
0.33354606100056117 0.44406448461162684 0.4528578407425501
0.3337626870006716 0.44406448461162684 0.4528578407425501
0.33398572000078275 0.4460185637518319 0.4557889594528579
0.3342207720006627 0.4450415241817294 0.45676599902296044
0.3345010810007807 0.4450415241817294 0.4606741573033708
0.33474159600064013 0.4450415241817294 0.45969711773326827
0.3350173690005249 0.4450415241817294 0.46165119687347334
0.33522912400076166 0.44406448461162684 0.45676599902296044
0.33543221300078585 0.4430874450415241 0.45969711773326827
0.3356323390007674 0.44406448461162684 0.4606741573033708
0.3358247060004942 0.44406448461162684 0.46165119687347334
0.33617834800043056 0.4450415241817294 0.46262823644357587
0.33646647300065524 0.4450415241817294 0.46946751343429405
0.33670017200074653 0.44406448461162684 0.4655593551538837
0.33692907500062574 0.4430874450415241 0.4636052760136786
0.33715349700014485 0.441133365901319 0.46165119687347334
0.33738206700036244 0.44406448461162684 0.46262823644357587
0.3376150260000941 0.44406448461162684 0.4636052760136786
0.3378327820000777 0.4460185637518319 0.4636052760136786
0.3380641480007398 0.4450415241817294 0.4636052760136786
0.3382826630004274 0.44699560332193444 0.467513434294089
0.33849610300057975 0.4450415241817294 0.4655593551538837
0.33870017400022334 0.4450415241817294 0.46946751343429405
0.3389944460004699 0.44894968246213973 0.4655593551538837
0.33922864600026514 0.4479726428920372 0.4665363947239862
0.33944469800007937 0.44699560332193444 0.467513434294089
0.33964082400052575 0.44894968246213973 0.4655593551538837
0.33987570899989805 0.44992672203224227 0.46458231558378116
0.3400688720003018 0.4538348803126526 0.46458231558378116
0.34025625699996453 0.45188080117244755 0.4655593551538837
0.34044338400053675 0.44992672203224227 0.46262823644357587
0.3406332320000729 0.45188080117244755 0.4636052760136786
0.34082045100058167 0.4479726428920372 0.4655593551538837
0.34100765099992714 0.45188080117244755 0.45969711773326827
0.3411944630006474 0.44894968246213973 0.45969711773326827
0.34138427400012006 0.45188080117244755 0.45969711773326827
0.3415843259999747 0.4509037616023448 0.45676599902296044
0.3417784900002516 0.45188080117244755 0.45676599902296044
0.34197457900063455 0.44992672203224227 0.457743038593063
0.3421650750005938 0.4528578407425501 0.457743038593063
0.3423518500003411 0.4538348803126526 0.4557889594528579
0.3425388470004691 0.45481191988275516 0.4557889594528579
0.3427259360005337 0.4528578407425501 0.45676599902296044
0.3429567279999901 0.45188080117244755 0.45481191988275516
0.34317259500039654 0.45481191988275516 0.45188080117244755
0.3433644800006732 0.4528578407425501 0.4509037616023448
0.3435513840004205 0.45676599902296044 0.45188080117244755
0.34373812200010434 0.4587200781631655 0.44894968246213973
0.34392452600059187 0.457743038593063 0.44992672203224227
0.3441111890006141 0.45676599902296044 0.44894968246213973
0.34429800100042485 0.46458231558378116 0.4528578407425501
0.3444846270003836 0.45676599902296044 0.45188080117244755
0.34467121600027895 0.457743038593063 0.44992672203224227
0.3448580829999628 0.4557889594528579 0.4460185637518319
0.3450464320003448 0.45481191988275516 0.4538348803126526
0.3452869650000139 0.4655593551538837 0.4450415241817294
0.34547449799993046 0.4587200781631655 0.4430874450415241
0.3456626060005874 0.45676599902296044 0.441133365901319
0.34584954700039816 0.4587200781631655 0.441133365901319
0.3460368220003147 0.45969711773326827 0.44211040547142155
0.3462244299998929 0.4606741573033708 0.44211040547142155
0.34641161099989404 0.4587200781631655 0.43917928676111373
0.34659905300031824 0.4587200781631655 0.43917928676111373
0.34678627100038284 0.457743038593063 0.43624816805080613
0.34699650800030213 0.45676599902296044 0.43429408891060084
0.3471836720000283 0.457743038593063 0.43624816805080613
0.34737742800007254 0.45969711773326827 0.43722520762090866
0.34756625800037 0.4587200781631655 0.4382022471910112
0.34775345800062496 0.45676599902296044 0.43624816805080613
0.34794056600003387 0.4655593551538837 0.4382022471910112
0.34812739600056375 0.4587200781631655 0.43722520762090866
0.3483143560006283 0.4587200781631655 0.4382022471910112
0.34850107400052366 0.4557889594528579 0.43624816805080613
0.34868812700005947 0.457743038593063 0.4352711284807034
0.3488751230006528 0.4538348803126526 0.4333170493404983
0.34906276800029445 0.4557889594528579 0.43429408891060084
0.3492584680006985 0.45188080117244755 0.43429408891060084
0.34944563200042467 0.4509037616023448 0.4333170493404983
0.34965951699996367 0.45188080117244755 0.43429408891060084
0.3498699210003906 0.4538348803126526 0.43429408891060084
0.35007162100009737 0.4509037616023448 0.43624816805080613
0.3502647650002473 0.4528578407425501 0.4333170493404983
0.35045491000073525 0.45676599902296044 0.43722520762090866
0.3506416660002287 0.44992672203224227 0.4382022471910112
0.3508470330007185 0.44894968246213973 0.43917928676111373
0.35103897400040296 0.44699560332193444 0.4401563263312165
0.35122561900061555 0.4479726428920372 0.441133365901319
0.3514163930003633 0.4450415241817294 0.44211040547142155
0.35160468600042805 0.4460185637518319 0.4460185637518319
0.35179309000068315 0.44894968246213973 0.44406448461162684
0.3519797910003035 0.4460185637518319 0.44699560332193444
0.35216671300076996 0.4460185637518319 0.4450415241817294
0.3523535250005807 0.4450415241817294 0.4450415241817294
0.3525398360006875 0.44406448461162684 0.44699560332193444
0.352725833000477 0.4450415241817294 0.44894968246213973
0.3529127560004781 0.44406448461162684 0.44992672203224227
0.3531038820001413 0.44211040547142155 0.4509037616023448
0.3532907120006712 0.44211040547142155 0.4538348803126526
0.3535022080004637 0.43917928676111373 0.4538348803126526
0.353689427000063 0.4401563263312165 0.457743038593063
0.35387597899989487 0.441133365901319 0.4587200781631655
0.3540632540007209 0.4401563263312165 0.4606741573033708
0.3542563609998979 0.441133365901319 0.45676599902296044
0.35444489500059717 0.441133365901319 0.45969711773326827
0.35463174400047137 0.44211040547142155 0.4606741573033708
0.35483188800026255 0.43917928676111373 0.4606741573033708
0.35502055200049654 0.4430874450415241 0.46262823644357587
0.35520825200001127 0.44211040547142155 0.46262823644357587
0.3553952299998855 0.44699560332193444 0.46165119687347334
0.3555824310005846 0.4430874450415241 0.46165119687347334
0.3557687420006914 0.44211040547142155 0.4636052760136786
0.3559551280004598 0.4430874450415241 0.4684904738641915
0.35614245800024946 0.4430874450415241 0.4636052760136786
0.35632871400048316 0.44406448461162684 0.46165119687347334
0.35651508099999774 0.44406448461162684 0.4655593551538837
0.35670307700002013 0.4430874450415241 0.46262823644357587
0.35688922200006346 0.441133365901319 0.467513434294089
0.35707612600072025 0.4450415241817294 0.4684904738641915
0.35726316000000224 0.44406448461162684 0.4665363947239862
0.35744961999989755 0.4450415241817294 0.4684904738641915
0.35763672800021595 0.4479726428920372 0.46946751343429405
0.3578244280006402 0.4479726428920372 0.46946751343429405
0.3580109430004086 0.44699560332193444 0.4684904738641915
0.35819810700013477 0.4450415241817294 0.4684904738641915
0.3583851399998821 0.4460185637518319 0.47239863214460187
0.3585723960004543 0.4450415241817294 0.47142159257449934
0.3587596340003074 0.4450415241817294 0.4684904738641915
0.35894816700056253 0.4479726428920372 0.46946751343429405
0.3591354970003522 0.4479726428920372 0.46946751343429405
0.35932277200026874 0.44699560332193444 0.4684904738641915
0.35950967600001604 0.4479726428920372 0.467513434294089
0.35969645000022865 0.44894968246213973 0.4665363947239862
0.3598869659999764 0.44894968246213973 0.4684904738641915
0.360074333000739 0.44992672203224227 0.4684904738641915
0.360261052000169 0.45188080117244755 0.4733756717147044
0.36044851099995867 0.4538348803126526 0.47142159257449934
0.36064236000038363 0.45188080117244755 0.46946751343429405
0.36084187500000553 0.45188080117244755 0.4704445530043966
0.3610298710000279 0.4528578407425501 0.47142159257449934
0.3612172749999445 0.4528578407425501 0.4684904738641915
0.36142710500007524 0.45188080117244755 0.4684904738641915
0.36161641600028815 0.4509037616023448 0.46946751343429405
0.3618028950004373 0.4509037616023448 0.46458231558378116
0.3619913729999098 0.45676599902296044 0.46165119687347334
0.36217870300060895 0.4528578407425501 0.45676599902296044
0.3623656250001659 0.4538348803126526 0.45969711773326827
0.36255336300018826 0.4557889594528579 0.457743038593063
0.362741026000549 0.45481191988275516 0.45676599902296044
0.362930893000339 0.45969711773326827 0.457743038593063
0.36311766800008627 0.4606741573033708 0.4557889594528579
0.36330410900063725 0.45969711773326827 0.4528578407425501
0.3634907170007864 0.45969711773326827 0.4538348803126526
0.36367732400049135 0.4587200781631655 0.45676599902296044
0.3638643210006194 0.4636052760136786 0.44992672203224227
0.3640509290007685 0.45969711773326827 0.4528578407425501
0.36424038900076994 0.46165119687347334 0.44992672203224227
0.36443705200053955 0.46262823644357587 0.44894968246213973
0.36463630700018257 0.457743038593063 0.44894968246213973
0.3648392109998895 0.4636052760136786 0.44894968246213973
0.3650390230004632 0.46165119687347334 0.4460185637518319
0.3652376670006561 0.4587200781631655 0.44699560332193444
0.36543270099991787 0.4606741573033708 0.44894968246213973
0.36564682700009143 0.45676599902296044 0.44699560332193444
0.36585560100047587 0.4606741573033708 0.4450415241817294
0.3660840040001858 0.4606741573033708 0.4430874450415241
0.36633933300072385 0.4587200781631655 0.441133365901319
0.36656542099990475 0.457743038593063 0.44211040547142155
0.3667793439999514 0.45969711773326827 0.4528578407425501
0.36701841300055094 0.4655593551538837 0.4401563263312165
0.36722146500051167 0.45969711773326827 0.4382022471910112
0.36742083200078923 0.4587200781631655 0.4333170493404983
0.36762671700034844 0.4587200781631655 0.43624816805080613
0.3678268809999281 0.45676599902296044 0.4333170493404983
0.36804904300061025 0.4606741573033708 0.43429408891060084
0.3682505400001901 0.4636052760136786 0.43624816805080613
0.36844840699995984 0.45676599902296044 0.4303859306301905
0.36865260700051294 0.4557889594528579 0.43429408891060084
0.3688724920002642 0.4606741573033708 0.43429408891060084
0.3690900800002055 0.457743038593063 0.43429408891060084
0.3693426500003625 0.457743038593063 0.4401563263312165
0.36955501700049354 0.4557889594528579 0.4401563263312165
0.3697799199999281 0.4557889594528579 0.4401563263312165
0.37006137800017314 0.4509037616023448 0.441133365901319
0.37029802200049744 0.4509037616023448 0.4401563263312165
0.3705228510007146 0.44894968246213973 0.441133365901319
0.3707437729999583 0.4509037616023448 0.44406448461162684
0.3718669019999652 0.4479726428920372 0.44699560332193444
0.3720868979999068 0.45188080117244755 0.44406448461162684
0.3723031350000383 0.45188080117244755 0.44699560332193444
0.3725526300004276 0.4479726428920372 0.4450415241817294
0.3727806820006663 0.4538348803126526 0.4460185637518319
0.37297464099992794 0.45188080117244755 0.4509037616023448
0.37316391600052157 0.44699560332193444 0.44894968246213973
0.373353190000671 0.4460185637518319 0.4528578407425501
0.37354207600037626 0.4460185637518319 0.45481191988275516
0.37372975800008135 0.4450415241817294 0.45676599902296044
0.3739174020001883 0.4450415241817294 0.4587200781631655
0.37410623200048576 0.4460185637518319 0.457743038593063
0.3742934880001485 0.4430874450415241 0.46262823644357587
0.37448420700002316 0.4450415241817294 0.457743038593063
0.3746716480000032 0.4430874450415241 0.45676599902296044
0.3748688300001959 0.44406448461162684 0.45676599902296044
0.3750593270005993 0.4401563263312165 0.4587200781631655
0.37527513800068846 0.4430874450415241 0.457743038593063
0.3754630230005205 0.4430874450415241 0.4587200781631655
0.37565089000054286 0.4450415241817294 0.45676599902296044
0.37583942400033266 0.4430874450415241 0.45676599902296044
0.37602731000060885 0.441133365901319 0.45969711773326827
0.37624313900050765 0.4460185637518319 0.467513434294089
0.3764356540004883 0.4450415241817294 0.46262823644357587
0.376623503000701 0.4460185637518319 0.46458231558378116
0.3768118699999832 0.4450415241817294 0.46458231558378116
0.3770003290001114 0.44699560332193444 0.46458231558378116
0.37718962200051465 0.4460185637518319 0.46458231558378116
0.37737672999992355 0.4450415241817294 0.4665363947239862
0.37756389300011506 0.44699560332193444 0.467513434294089
0.37775113099996815 0.4460185637518319 0.4655593551538837
0.37793849800073076 0.4450415241817294 0.4655593551538837
0.37812566100001277 0.4450415241817294 0.46946751343429405
0.37831375099995057 0.4460185637518319 0.46946751343429405
0.37850095100020553 0.4450415241817294 0.46946751343429405
0.3786879660001432 0.4450415241817294 0.46946751343429405
0.37887542600037705 0.4450415241817294 0.47142159257449934
0.37906323700008215 0.44406448461162684 0.46946751343429405
0.37925130800067564 0.44211040547142155 0.4684904738641915
0.3794493230006992 0.441133365901319 0.46946751343429405
0.3796595050007454 0.441133365901319 0.4655593551538837
0.3798479639999641 0.4450415241817294 0.4665363947239862
0.3800352389998807 0.44699560332193444 0.467513434294089
0.3802218280006855 0.4460185637518319 0.4655593551538837
0.3804090470002848 0.4479726428920372 0.46458231558378116
0.38059639499988407 0.44992672203224227 0.45969711773326827
0.38079163300062646 0.45188080117244755 0.45676599902296044
0.3809794260005219 0.4528578407425501 0.45676599902296044
0.38116718200035393 0.45481191988275516 0.45969711773326827
0.38135454900020704 0.4538348803126526 0.4606741573033708
0.38154178600052546 0.45188080117244755 0.457743038593063
0.3817288570007804 0.45188080117244755 0.457743038593063
0.3819158720007181 0.4528578407425501 0.457743038593063
0.3821036280005501 0.4528578407425501 0.457743038593063
0.3822908840002128 0.45481191988275516 0.457743038593063
0.38247902900002373 0.4528578407425501 0.4587200781631655
0.38266606200068054 0.45481191988275516 0.4538348803126526
0.38285946599989984 0.45676599902296044 0.4528578407425501
0.38305042600040906 0.4587200781631655 0.4557889594528579
0.38325434800026414 0.46458231558378116 0.4509037616023448
0.3834563260006689 0.457743038593063 0.4528578407425501
0.3836619890007569 0.45481191988275516 0.4538348803126526
0.3838673000000199 0.457743038593063 0.44894968246213973
0.3840693709998959 0.45969711773326827 0.44699560332193444
0.384267701000681 0.4587200781631655 0.44699560332193444
0.38445653100006894 0.4587200781631655 0.44894968246213973
0.3846436760004508 0.45969711773326827 0.45188080117244755
0.3848300610006845 0.45969711773326827 0.45188080117244755
0.385016817000178 0.4606741573033708 0.4538348803126526
0.38520662900009484 0.45969711773326827 0.45188080117244755
0.3853935510005613 0.4606741573033708 0.44894968246213973
0.3855805290004355 0.45969711773326827 0.4538348803126526
0.3857674520004366 0.457743038593063 0.4430874450415241
0.3859682629999952 0.45969711773326827 0.441133365901319
0.38616085200010275 0.46165119687347334 0.4401563263312165
0.38634762700075953 0.45969711773326827 0.4401563263312165
0.38653421600065485 0.4587200781631655 0.43917928676111373
0.38672217600014847 0.4606741573033708 0.441133365901319
0.38693278300070233 0.45676599902296044 0.4382022471910112
0.38712016899989976 0.457743038593063 0.43624816805080613
0.3873080540006413 0.457743038593063 0.43429408891060084
0.38751601400053914 0.45481191988275516 0.4333170493404983
0.38771512099992833 0.45481191988275516 0.431362970200293
0.3879052110005432 0.4528578407425501 0.431362970200293
0.38809565200062934 0.45481191988275516 0.4333170493404983
0.3882823700005247 0.457743038593063 0.43624816805080613
0.3884702190007374 0.45969711773326827 0.43722520762090866
0.3886577530001887 0.457743038593063 0.43917928676111373
0.3888449900005071 0.45676599902296044 0.43917928676111373
0.3890324310004871 0.45676599902296044 0.44211040547142155
0.38921987200046715 0.4557889594528579 0.43917928676111373
0.3894072580005741 0.4528578407425501 0.4352711284807034
0.3895943840007021 0.4557889594528579 0.43624816805080613
0.38978143700023793 0.4538348803126526 0.43429408891060084
0.38996834099998523 0.4528578407425501 0.4333170493404983
0.3901555410002402 0.4557889594528579 0.43624816805080613
0.39034294500015676 0.4538348803126526 0.4479726428920372
0.39056373800030997 0.4538348803126526 0.4382022471910112
0.39075186400077655 0.45481191988275516 0.43917928676111373
0.39094376800039754 0.45676599902296044 0.441133365901319
0.39113111599999684 0.4538348803126526 0.441133365901319
0.3913181870002518 0.4538348803126526 0.44406448461162684
0.3915053690006971 0.45188080117244755 0.44406448461162684
0.3916922180005713 0.4528578407425501 0.44406448461162684
0.39187914000012825 0.44992672203224227 0.4450415241817294
0.39206800700048916 0.45188080117244755 0.4479726428920372
0.3922648190000473 0.44894968246213973 0.44699560332193444
0.39245727800062014 0.4479726428920372 0.44894968246213973
0.3926514410004529 0.44699560332193444 0.4538348803126526
0.39284066000072926 0.44406448461162684 0.45188080117244755
0.3930278420002651 0.4460185637518319 0.44699560332193444
0.39321844999994937 0.44211040547142155 0.45188080117244755
0.39343127900065156 0.4430874450415241 0.4528578407425501
0.39366088600036164 0.4430874450415241 0.4557889594528579
0.39387569700011227 0.4509037616023448 0.457743038593063
0.39407795300030557 0.4430874450415241 0.45969711773326827
0.3942860240003938 0.441133365901319 0.4587200781631655
0.39449472400065133 0.4479726428920372 0.45969711773326827
0.39469547899989266 0.4450415241817294 0.46165119687347334
0.3949418450001758 0.4479726428920372 0.4636052760136786
0.39513974900000903 0.441133365901319 0.46458231558378116
0.3953312640005606 0.44406448461162684 0.4684904738641915
0.39553398299995024 0.4430874450415241 0.4655593551538837
0.39573260900033347 0.44406448461162684 0.46946751343429405
0.39595688300050824 0.4450415241817294 0.4636052760136786
0.3961551390002569 0.4430874450415241 0.4665363947239862
0.3963625980004508 0.4430874450415241 0.45969711773326827
0.39662911200048256 0.4450415241817294 0.45969711773326827
0.3968316450000202 0.43917928676111373 0.4587200781631655
0.39702741900055116 0.44211040547142155 0.46262823644357587
0.3972249340004055 0.44406448461162684 0.46165119687347334
0.39742093099994236 0.441133365901319 0.46262823644357587
0.3976251500007493 0.44894968246213973 0.467513434294089
0.3978198130007513 0.4460185637518319 0.467513434294089
0.39801675400030945 0.441133365901319 0.467513434294089
0.398223787000461 0.44211040547142155 0.4655593551538837
0.3984223209999982 0.44211040547142155 0.467513434294089
0.39861853900038113 0.44211040547142155 0.467513434294089
0.39886696100074914 0.44699560332193444 0.4655593551538837
0.3999498860002859 0.44699560332193444 0.46458231558378116
0.40039458200044464 0.4450415241817294 0.4655593551538837
0.400673077000647 0.45188080117244755 0.4636052760136786
0.4009095540004637 0.44992672203224227 0.45969711773326827
0.4011239210003623 0.4479726428920372 0.45969711773326827
0.40135584300060145 0.45188080117244755 0.457743038593063
0.4016498560004038 0.4528578407425501 0.45676599902296044
0.4018850370002838 0.4528578407425501 0.45969711773326827
0.40211410700067063 0.4538348803126526 0.46165119687347334
0.40240243500011275 0.4557889594528579 0.46165119687347334
0.4026496530004806 0.457743038593063 0.4557889594528579
0.4028935010001078 0.45676599902296044 0.4528578407425501
0.4031070710007043 0.46165119687347334 0.4538348803126526
0.40333319700039283 0.45969711773326827 0.45188080117244755
0.4035559710000598 0.45969711773326827 0.45188080117244755
0.4037730410000222 0.46262823644357587 0.45188080117244755
0.40396459300063725 0.4587200781631655 0.45188080117244755
0.4041525160000674 0.46262823644357587 0.44894968246213973
0.4043403830000898 0.46165119687347334 0.44992672203224227
0.4045281940007044 0.46165119687347334 0.44992672203224227
0.4047174690003885 0.46165119687347334 0.45188080117244755
0.40490457600026275 0.46165119687347334 0.44992672203224227
0.40509259200007364 0.46262823644357587 0.44699560332193444
0.40528034799990564 0.4606741573033708 0.4479726428920372
0.40546823300064716 0.4636052760136786 0.4479726428920372
0.4056558040001619 0.46262823644357587 0.45188080117244755
0.40584652300003654 0.46165119687347334 0.4450415241817294
0.40607685200029664 0.46165119687347334 0.4430874450415241
0.40627949600002466 0.46165119687347334 0.4460185637518319
0.40646717800063925 0.45969711773326827 0.44211040547142155
0.4066550080005982 0.457743038593063 0.4430874450415241
