0 0.46262823644357587 0.4587200781631655
0.00032575400018686196 0.46165119687347334 0.4587200781631655
0.0005344170003809268 0.45676599902296044 0.4606741573033708
0.0007335620002777432 0.45481191988275516 0.4587200781631655
0.0009506880005574203 0.4538348803126526 0.457743038593063
0.0011510180002005654 0.45188080117244755 0.4557889594528579
0.0013451439999698778 0.44992672203224227 0.45188080117244755
0.0015354560000560014 0.44992672203224227 0.4460185637518319
0.0017253600008189096 0.4528578407425501 0.4401563263312165
0.0019162080006935867 0.4479726428920372 0.43722520762090866
0.002125001000422344 0.44699560332193444 0.43722520762090866
0.002316275000339374 0.4479726428920372 0.43722520762090866
0.0025064200008273474 0.44699560332193444 0.441133365901319
0.0026954730001307325 0.44699560332193444 0.4450415241817294
0.0028839320002589375 0.45188080117244755 0.45188080117244755
0.0030725770002391073 0.4538348803126526 0.4557889594528579
0.0032619810008327477 0.4538348803126526 0.4606741573033708
0.0034529230006228318 0.4538348803126526 0.4636052760136786
0.003642012000454997 0.457743038593063 0.46458231558378116
0.003830083000138984 0.457743038593063 0.4636052760136786
0.0040201910005635 0.45969711773326827 0.47239863214460187
0.004215687000396429 0.46165119687347334 0.46165119687347334
0.004404517000693886 0.46262823644357587 0.457743038593063
0.004592347000652808 0.46262823644357587 0.45676599902296044
0.004780252000273322 0.46262823644357587 0.4538348803126526
0.004968137000105344 0.46165119687347334 0.45676599902296044
0.00515654200080462 0.4606741573033708 0.45188080117244755
0.00534468600017135 0.46165119687347334 0.4509037616023448
0.005536609000046155 0.46165119687347334 0.44992672203224227
0.0057249760002378025 0.4587200781631655 0.4528578407425501
0.005913695000344887 0.45676599902296044 0.4606741573033708
0.006109747000664356 0.45676599902296044 0.4557889594528579
0.006299485000454297 0.4509037616023448 0.4528578407425501
0.0064926850000119884 0.44894968246213973 0.44992672203224227
0.006681515000309446 0.4479726428920372 0.44211040547142155
0.0068691970000145375 0.44406448461162684 0.43429408891060084
0.0070568240007560235 0.4450415241817294 0.42256961406936977
0.0072444870002073 0.44406448461162684 0.4157303370786516
0.007432169000821887 0.4430874450415241 0.41182217879824123
0.007619925000653893 0.441133365901319 0.4059599413776258
0.007807663000676257 0.44211040547142155 0.403028822667318
0.008005474000128743 0.4382022471910112 0.4010747435271129
0.008195008000257076 0.4382022471910112 0.4059599413776258
0.008382190000702394 0.43722520762090866 0.40693698094772834
0.008570483000767126 0.4401563263312165 0.4137762579384465
0.008758313000726048 0.43917928676111373 0.4186614557889594
0.008946699000262015 0.44406448461162684 0.42256961406936977
0.0091354730002422 0.4401563263312165 0.42745481191988266
0.009335118000308285 0.44211040547142155 0.4284318514899854
0.009524263000457722 0.44406448461162684 0.42940889106008795
0.009711723000691563 0.44406448461162684 0.431362970200293
0.009899145000417775 0.4430874450415241 0.4352711284807034
0.010107475000040722 0.4450415241817294 0.43722520762090866
0.010298287000296114 0.44894968246213973 0.43917928676111373
0.010486765000678133 0.44699560332193444 0.44211040547142155
0.01067518700074288 0.44699560332193444 0.44699560332193444
0.010863647000405763 0.44894968246213973 0.4430874450415241
0.011051366000174312 0.44699560332193444 0.441133365901319
0.011239510999985214 0.44894968246213973 0.44211040547142155
0.011426656000367075 0.4479726428920372 0.44211040547142155
0.01161476400011452 0.4479726428920372 0.4450415241817294
0.011802779000390728 0.45481191988275516 0.4509037616023448
0.01199055400047655 0.44992672203224227 0.4538348803126526
0.012178384000435472 0.44992672203224227 0.45676599902296044
0.012368473000606173 0.44699560332193444 0.45969711773326827
0.012558859000819211 0.44894968246213973 0.457743038593063
0.012746762999995553 0.4460185637518319 0.457743038593063
0.012934482000673597 0.4450415241817294 0.45969711773326827
0.013121868000780523 0.44699560332193444 0.46165119687347334
0.01330869800040091 0.4479726428920372 0.46165119687347334
0.013495935000719328 0.44406448461162684 0.45969711773326827
0.013683357999980217 0.4460185637518319 0.4587200781631655
0.013870873000087158 0.44699560332193444 0.46262823644357587
0.01405879600042681 0.4479726428920372 0.4665363947239862
0.014248552000026393 0.44406448461162684 0.467513434294089
0.014436734000810247 0.4450415241817294 0.467513434294089
0.014624268000261509 0.4460185637518319 0.4655593551538837
0.0148138940003264 0.44699560332193444 0.46262823644357587
0.015002353999989282 0.4430874450415241 0.46165119687347334
0.015189962000476953 0.44406448461162684 0.45676599902296044
0.015377532999991672 0.44406448461162684 0.4557889594528579
0.015564678000373533 0.44211040547142155 0.4528578407425501
0.015751822000311222 0.44894968246213973 0.45676599902296044
0.01593902300010086 0.4460185637518319 0.4557889594528579
0.016126927000186697 0.4479726428920372 0.457743038593063
0.016314516000420554 0.4460185637518319 0.4587200781631655
0.01650212399999873 0.44699560332193444 0.4587200781631655
0.016689380000570964 0.4479726428920372 0.46165119687347334
0.01687667300029716 0.4479726428920372 0.4655593551538837
0.017064743999981147 0.45188080117244755 0.46946751343429405
0.01725272300063807 0.45188080117244755 0.4704445530043966
0.01744362700083002 0.45188080117244755 0.4733756717147044
0.01763295700038725 0.45676599902296044 0.4763067904250122
0.01782212000034633 0.45481191988275516 0.4782608695652173
0.018010098000559083 0.45481191988275516 0.47728382999511476
0.018202169000687718 0.45481191988275516 0.47728382999511476
0.018389222000223526 0.4528578407425501 0.4763067904250122
0.01857762600047863 0.4509037616023448 0.47239863214460187
0.018765771000289533 0.4538348803126526 0.47142159257449934
0.018953860000692657 0.45188080117244755 0.46946751343429405
0.019141837999995914 0.45188080117244755 0.467513434294089
0.019329502000800858 0.44992672203224227 0.4665363947239862
0.019517591000294487 0.4509037616023448 0.4655593551538837
0.019705551000697596 0.44894968246213973 0.46458231558378116
0.019893122000212315 0.44894968246213973 0.47142159257449934
0.02008074800050963 0.4479726428920372 0.46946751343429405
0.02026856000065891 0.44992672203224227 0.4733756717147044
0.020457001000067976 0.44992672203224227 0.47923790913532005
0.020646201000090514 0.4509037616023448 0.48216902784562765
0.020834902000387956 0.4509037616023448 0.48412310698583294
0.021022880000600708 0.4528578407425501 0.48412310698583294
0.021216192000792944 0.4538348803126526 0.48412310698583294
0.0214042249999693 0.4557889594528579 0.4811919882755251
0.021591796000393515 0.457743038593063 0.4753297508549097
0.02177970000047935 0.45969711773326827 0.46946751343429405
0.021967493000374816 0.45969711773326827 0.45969711773326827
0.022157731000334024 0.45969711773326827 0.4557889594528579
0.022346987000673835 0.45676599902296044 0.4538348803126526
0.022535521000463632 0.45969711773326827 0.4450415241817294
0.02272348000042257 0.45969711773326827 0.441133365901319
0.022911459000169998 0.45969711773326827 0.4401563263312165
0.023099030000594212 0.45969711773326827 0.4382022471910112
0.023286767000172404 0.46165119687347334 0.4382022471910112
0.023474745000385155 0.46262823644357587 0.441133365901319
0.023662427000090247 0.46262823644357587 0.43917928676111373
0.023849813000197173 0.46165119687347334 0.441133365901319
0.024037773000600282 0.4606741573033708 0.441133365901319
0.024225288000707224 0.4587200781631655 0.44211040547142155
0.024416118000772258 0.45969711773326827 0.4401563263312165
0.024604763000752428 0.45969711773326827 0.43624816805080613
0.024792741000055685 0.45969711773326827 0.43722520762090866
0.024980201000289526 0.4557889594528579 0.43429408891060084
0.02516782700058684 0.4538348803126526 0.4323400097703958
0.025361750000229222 0.4557889594528579 0.43624816805080613
0.025550006000230496 0.4538348803126526 0.43624816805080613
0.025737447000210523 0.4528578407425501 0.43722520762090866
0.02592514800016943 0.45481191988275516 0.43722520762090866
0.026114570000572712 0.4538348803126526 0.441133365901319
0.026304012000764487 0.4509037616023448 0.43917928676111373
0.026492138000321575 0.45188080117244755 0.4382022471910112
0.02667987500080926 0.45188080117244755 0.431362970200293
0.026867687000049045 0.4509037616023448 0.42745481191988266
0.027056258000811795 0.44699560332193444 0.4235466536394723
0.02724432900049578 0.44699560332193444 0.41963849535906195
0.027432029000010516 0.44406448461162684 0.42256961406936977
0.027619359000709665 0.4479726428920372 0.4206155349291647
0.027807078000478214 0.4460185637518319 0.4255007327796776
0.02799492700069095 0.44992672203224227 0.42745481191988266
0.028182368000670976 0.4509037616023448 0.431362970200293
0.0283714390006935 0.45188080117244755 0.43624816805080613
0.02855980599997565 0.44894968246213973 0.43624816805080613
0.02874785800031532 0.44992672203224227 0.43624816805080613
0.028935522000210767 0.4460185637518319 0.43429408891060084
0.02912344500055042 0.44699560332193444 0.43429408891060084
0.029313182000805682 0.4460185637518319 0.43429408891060084
0.029500994000045466 0.4460185637518319 0.4460185637518319
0.029690027000469854 0.44406448461162684 0.4352711284807034
0.02987732000019605 0.44211040547142155 0.4382022471910112
0.030065317000662617 0.44211040547142155 0.4382022471910112
0.030274851000285707 0.4382022471910112 0.4382022471910112
0.03046816200003377 0.4401563263312165 0.44211040547142155
0.03066065900020476 0.43917928676111373 0.441133365901319
0.030852156000037212 0.4382022471910112 0.44406448461162684
0.031044189000567712 0.4401563263312165 0.4460185637518319
0.03123598199999833 0.4401563263312165 0.4479726428920372
0.03142777500033844 0.441133365901319 0.44894968246213973
0.03161925400036125 0.4430874450415241 0.45188080117244755
0.03181030600080703 0.4460185637518319 0.4538348803126526
0.03200163600013184 0.4450415241817294 0.457743038593063
0.0321936510008527 0.44699560332193444 0.45969711773326827
0.0323853700001564 0.44699560332193444 0.4606741573033708
0.03257655200013687 0.44992672203224227 0.46262823644357587
0.03276864100007515 0.45188080117244755 0.4606741573033708
0.03296097100064799 0.45188080117244755 0.46458231558378116
0.0331531530000575 0.4538348803126526 0.4636052760136786
0.0333572980007375 0.45481191988275516 0.4587200781631655
0.033549313000548864 0.4538348803126526 0.46165119687347334
0.033740958000635146 0.4557889594528579 0.4655593551538837
0.033932547000404156 0.45481191988275516 0.46165119687347334
0.03412491400013096 0.4538348803126526 0.46262823644357587
0.034315707000132534 0.45188080117244755 0.46458231558378116
0.034507037000366836 0.45188080117244755 0.46262823644357587
0.034698108000156935 0.4538348803126526 0.46262823644357587
0.034889327000200865 0.4479726428920372 0.4587200781631655
0.035080379000646644 0.4450415241817294 0.4587200781631655
0.035271543000817474 0.4430874450415241 0.46262823644357587
0.03546213200024795 0.44211040547142155 0.45676599902296044
0.035652776999995694 0.4460185637518319 0.45676599902296044
0.03584403300010308 0.4382022471910112 0.457743038593063
0.03603575200031628 0.43722520762090866 0.457743038593063
0.03622734100008529 0.4401563263312165 0.4606741573033708
0.03641804100061563 0.4382022471910112 0.46165119687347334
0.036609168000723 0.4382022471910112 0.4655593551538837
0.03679972000009002 0.4401563263312165 0.4665363947239862
0.036990865000007034 0.44406448461162684 0.46946751343429405
0.037181102000431565 0.4450415241817294 0.4733756717147044
0.03737289500077168 0.4450415241817294 0.47142159257449934
0.03756398500081559 0.44699560332193444 0.48412310698583294
0.03775500000028842 0.44894968246213973 0.4753297508549097
0.037946256000395806 0.45188080117244755 0.47728382999511476
0.03813873400031298 0.45188080117244755 0.4782608695652173
0.03833037900039926 0.45188080117244755 0.4811919882755251
0.03852198700042209 0.4538348803126526 0.4811919882755251
0.0387131870002122 0.4538348803126526 0.4811919882755251
0.0389036650003618 0.45481191988275516 0.47923790913532005
0.039094255000236444 0.4557889594528579 0.4802149487054226
0.03928447400085133 0.457743038593063 0.4782608695652173
0.03947567400064145 0.45969711773326827 0.47435271128480694
0.039666689000114275 0.4606741573033708 0.47239863214460187
0.039857853000285104 0.46165119687347334 0.47142159257449934
0.04004853500009631 0.4655593551538837 0.4704445530043966
0.04023955000047863 0.46165119687347334 0.4704445530043966
0.040431306000755285 0.467513434294089 0.4704445530043966
0.040622599000016635 0.46165119687347334 0.4704445530043966
0.040813596000589314 0.45969711773326827 0.4684904738641915
0.041004555000654364 0.45969711773326827 0.4684904738641915
0.04119557000012719 0.4606741573033708 0.4684904738641915
0.04138651200082677 0.45969711773326827 0.46946751343429405
0.04159023000011075 0.45969711773326827 0.467513434294089
0.04178159700040851 0.4587200781631655 0.4655593551538837
0.04197265000038897 0.45481191988275516 0.46165119687347334
0.04217423900081485 0.4557889594528579 0.4538348803126526
0.04236664300060511 0.4528578407425501 0.4479726428920372
0.04255754700079706 0.4509037616023448 0.44894968246213973
0.042748507000396785 0.4509037616023448 0.4401563263312165
0.04294000300069456 0.44992672203224227 0.43722520762090866
0.04313179600012518 0.4509037616023448 0.4352711284807034
0.04332323800008453 0.44211040547142155 0.4303859306301905
0.04351501200017083 0.4401563263312165 0.42745481191988266
0.04370615700008784 0.43722520762090866 0.4264777723497801
0.04389743100000487 0.4323400097703958 0.4186614557889594
0.04408883600081026 0.4303859306301905 0.4157303370786516
0.0442799800002831 0.42940889106008795 0.4186614557889594
0.044472125000538654 0.431362970200293 0.42256961406936977
0.044663159000265296 0.4352711284807034 0.42452369320957506
0.044855156000267016 0.43722520762090866 0.4303859306301905
0.04504626400012057 0.44211040547142155 0.4333170493404983
0.045237594000354875 0.44211040547142155 0.43429408891060084
0.045429237999996985 0.4430874450415241 0.43722520762090866
0.04562479100059136 0.44211040547142155 0.43722520762090866
0.04581602800044493 0.44211040547142155 0.44211040547142155
0.04600787700019282 0.44211040547142155 0.43722520762090866
0.04620092900040618 0.44406448461162684 0.4352711284807034
0.04639242600023863 0.4450415241817294 0.4352711284807034
0.046583552000811324 0.4450415241817294 0.4333170493404983
0.04677419700055907 0.44992672203224227 0.4333170493404983
0.046965416000603 0.44992672203224227 0.4303859306301905
0.04715685700011818 0.44894968246213973 0.4303859306301905
0.04734790900056396 0.4557889594528579 0.42940889106008795
0.047538869000163686 0.457743038593063 0.42745481191988266
0.04772973600029218 0.457743038593063 0.431362970200293
0.047920159000568674 0.47142159257449934 0.431362970200293
0.04811121100010496 0.4655593551538837 0.431362970200293
0.04830248500002199 0.46165119687347334 0.4352711284807034
0.04849361200012936 0.4636052760136786 0.43722520762090866
0.04868770100074471 0.457743038593063 0.44211040547142155
0.04887958700055606 0.45481191988275516 0.4450415241817294
0.04907025000011345 0.4509037616023448 0.4479726428920372
0.0492614130007496 0.44699560332193444 0.45188080117244755
0.04945244700047624 0.44894968246213973 0.4557889594528579
0.04964370300058363 0.44699560332193444 0.457743038593063
0.04984358900037478 0.44699560332193444 0.45676599902296044
0.05003534500065143 0.44992672203224227 0.4538348803126526
0.05022793400075898 0.4509037616023448 0.4528578407425501
0.050420282000231964 0.45188080117244755 0.45188080117244755
0.05061144600040279 0.45188080117244755 0.45188080117244755
0.05080305400042562 0.4528578407425501 0.4528578407425501
0.05099429100027919 0.45188080117244755 0.45676599902296044
0.05118538000078843 0.4509037616023448 0.45676599902296044
0.05137658100011322 0.44992672203224227 0.457743038593063
0.051573281000855786 0.4509037616023448 0.46165119687347334
0.05176533300073061 0.4460185637518319 0.4587200781631655
0.05195646000083798 0.44992672203224227 0.457743038593063
0.052151179000247794 0.4509037616023448 0.4655593551538837
0.0523428230007994 0.44992672203224227 0.457743038593063
0.05253322800035676 0.4509037616023448 0.45676599902296044
0.05272476100071799 0.44992672203224227 0.45676599902296044
0.05291596200004278 0.44992672203224227 0.45676599902296044
0.053107144000023254 0.44992672203224227 0.4587200781631655
0.053298214000278676 0.45188080117244755 0.4587200781631655
0.05348871100068209 0.4528578407425501 0.4606741573033708
0.05367968900009146 0.4538348803126526 0.46165119687347334
0.0538722230003259 0.45481191988275516 0.467513434294089
0.05406342300011602 0.45481191988275516 0.467513434294089
0.05425473500054068 0.45481191988275516 0.47142159257449934
0.0544461389999924 0.4509037616023448 0.47239863214460187
0.05463739500009979 0.45481191988275516 0.4753297508549097
0.05482846600079938 0.4528578407425501 0.47239863214460187
0.05501968500084331 0.4509037616023448 0.4831460674157304
0.05521040400071797 0.4479726428920372 0.4655593551538837
0.05540153000038117 0.4460185637518319 0.45969711773326827
0.05559345300025598 0.4450415241817294 0.4528578407425501
0.055785079000088444 0.4460185637518319 0.4460185637518319
0.05597716800002672 0.44406448461162684 0.4460185637518319
0.056167534999985946 0.44406448461162684 0.4479726428920372
0.05636505100028444 0.4401563263312165 0.44699560332193444
0.05656491800073127 0.4401563263312165 0.45188080117244755
0.056756396000309906 0.4430874450415241 0.4557889594528579
0.056948911000290536 0.4450415241817294 0.4587200781631655
0.057140333999996074 0.44992672203224227 0.4655593551538837
0.05733177500042075 0.45188080117244755 0.46946751343429405
0.05752260500048578 0.4538348803126526 0.4733756717147044
0.05771449000076245 0.45188080117244755 0.47728382999511476
0.0579227650005123 0.4538348803126526 0.4851001465559355
0.05811903900030302 0.4538348803126526 0.48998534440644836
0.05830964699998731 0.4460185637518319 0.4880312652662433
0.0585005140001158 0.44406448461162684 0.4880312652662433
0.058691548000751936 0.4401563263312165 0.48705422569614076
0.058882063000055496 0.441133365901319 0.4851001465559355
0.05907541100077651 0.43917928676111373 0.47142159257449934
0.05952642200008995 0.441133365901319 0.46458231558378116
0.05972182599998632 0.44211040547142155 0.46262823644357587
0.05991389700011496 0.44406448461162684 0.45676599902296044
0.06010533800053963 0.4450415241817294 0.4528578407425501
0.060297353000350995 0.44406448461162684 0.44992672203224227
0.0604880350001622 0.4479726428920372 0.4479726428920372
0.060678773000290676 0.4479726428920372 0.44992672203224227
0.060869992000334605 0.4479726428920372 0.44992672203224227
0.06106063700008235 0.44992672203224227 0.4509037616023448
0.0612515960001474 0.4460185637518319 0.4528578407425501
0.06144296300044516 0.4450415241817294 0.45481191988275516
0.06163403400023526 0.4460185637518319 0.45481191988275516
0.06182475300010992 0.4460185637518319 0.44992672203224227
0.06201476800015371 0.44699560332193444 0.44894968246213973
0.06221093200019823 0.44894968246213973 0.4479726428920372
0.06240250200062292 0.45188080117244755 0.44406448461162684
0.06259394400058227 0.45481191988275516 0.441133365901319
0.06278579200079548 0.457743038593063 0.4430874450415241
0.06297703000018373 0.457743038593063 0.44406448461162684
0.06316771100046026 0.457743038593063 0.4460185637518319
0.06335843000033492 0.457743038593063 0.4450415241817294
0.063549372000125 0.457743038593063 0.44699560332193444
0.06374066500029585 0.46165119687347334 0.4450415241817294
0.06393132800076273 0.4587200781631655 0.441133365901319
0.06412221400023554 0.457743038593063 0.43722520762090866
0.06431345100008912 0.45481191988275516 0.4323400097703958
0.06450413300080982 0.45481191988275516 0.4284318514899854
0.0646954440007903 0.4538348803126526 0.4235466536394723
0.06488644100045349 0.45188080117244755 0.4176844162188569
0.06507771600081469 0.45188080117244755 0.412799218368344
0.0652701570006684 0.44894968246213973 0.412799218368344
0.06546185700062779 0.4528578407425501 0.4137762579384465
0.06565250200037553 0.4509037616023448 0.4176844162188569
0.06584366500010219 0.45481191988275516 0.4235466536394723
0.06603503300084412 0.4538348803126526 0.42940889106008795
0.06623689900061436 0.4528578407425501 0.4333170493404983
0.06642854400070064 0.4538348803126526 0.4352711284807034
0.06662007800059655 0.4528578407425501 0.43429408891060084
0.06681139000011171 0.44894968246213973 0.43624816805080613
0.0670024970004306 0.45188080117244755 0.4382022471910112
0.06719362400053797 0.44894968246213973 0.43917928676111373
0.06738469500032807 0.44894968246213973 0.4382022471910112
0.06757608000043547 0.44894968246213973 0.4352711284807034
0.06776778100083902 0.44894968246213973 0.43624816805080613
0.06795907400010037 0.44894968246213973 0.4284318514899854
0.06814986700010195 0.44894968246213973 0.4284318514899854
0.06834075200004008 0.44992672203224227 0.4264777723497801
0.0685317120005493 0.45188080117244755 0.4284318514899854
0.06872272700002213 0.45188080117244755 0.4303859306301905
0.06891324200023519 0.4528578407425501 0.43429408891060084
0.06910431300002529 0.45481191988275516 0.43624816805080613
0.06929534700066142 0.4557889594528579 0.4382022471910112
0.06948612100040918 0.4538348803126526 0.44406448461162684
0.06967730300038966 0.45481191988275516 0.44406448461162684
0.06986813300045469 0.4509037616023448 0.4450415241817294
0.0700587600003928 0.4509037616023448 0.44992672203224227
0.07025551600054314 0.4538348803126526 0.4538348803126526
0.07044662299995252 0.44699560332193444 0.4557889594528579
0.07063804600056756 0.4509037616023448 0.45676599902296044
0.0708297280007173 0.45188080117244755 0.46165119687347334
0.07102091000069777 0.4538348803126526 0.4665363947239862
0.0712129810008264 0.4557889594528579 0.4733756717147044
0.07140414400055306 0.4557889594528579 0.47923790913532005
0.07159558500006824 0.4587200781631655 0.4831460674157304
0.07178711899996415 0.45969711773326827 0.486077186126038
0.07197820800047339 0.4606741573033708 0.486077186126038
0.07217440900058136 0.45969711773326827 0.48998534440644836
0.0723703680005201 0.45969711773326827 0.48900830483634583
0.07256177199997182 0.4557889594528579 0.48900830483634583
0.07275301000026957 0.4587200781631655 0.4929164631167562
0.07294413600084226 0.44894968246213973 0.4948705422569615
0.07313452200014581 0.4460185637518319 0.4909623839765511
0.07332614799997828 0.4460185637518319 0.4948705422569615
0.07351720000042405 0.4460185637518319 0.4909623839765511
0.07370749300025636 0.44406448461162684 0.4851001465559355
0.07389839700044831 0.4450415241817294 0.4763067904250122
0.0741047460005575 0.44406448461162684 0.467513434294089
0.07429850200060173 0.44211040547142155 0.457743038593063
0.07449557200015988 0.4430874450415241 0.4538348803126526
0.07468716200037306 0.4460185637518319 0.4509037616023448
0.07487806600056501 0.44406448461162684 0.44699560332193444
0.07506895100050315 0.4430874450415241 0.43722520762090866
0.07526055900052597 0.441133365901319 0.4284318514899854
0.07546105600067676 0.441133365901319 0.4235466536394723
0.07565618200078461 0.4430874450415241 0.41670737664875435
0.0758497160004481 0.4430874450415241 0.4137762579384465
0.07604102700042858 0.44699560332193444 0.4137762579384465
0.0762321720003456 0.44699560332193444 0.4186614557889594
0.07642352100083372 0.44992672203224227 0.4255007327796776
0.07661731400003191 0.4509037616023448 0.43429408891060084
0.07681319900075323 0.45188080117244755 0.44211040547142155
0.0770064550006282 0.45188080117244755 0.4509037616023448
0.0771990260000166 0.44992672203224227 0.4528578407425501
0.07738996700027201 0.45188080117244755 0.45676599902296044
0.07758107500012557 0.45188080117244755 0.4587200781631655
0.07777197900031751 0.44699560332193444 0.45676599902296044
0.07796282800063636 0.4528578407425501 0.4606741573033708
0.07815760200082877 0.45188080117244755 0.4587200781631655
0.07834995100074593 0.44992672203224227 0.46262823644357587
0.07854120700085332 0.44992672203224227 0.46458231558378116
0.07873233300051652 0.44992672203224227 0.46458231558378116
0.07892394100053934 0.44894968246213973 0.4636052760136786
0.07911540000077366 0.4479726428920372 0.4606741573033708
0.07930684200073301 0.4450415241817294 0.4587200781631655
0.07949770899995201 0.44211040547142155 0.467513434294089
0.07968865000020742 0.4430874450415241 0.45676599902296044
0.07987968400084355 0.441133365901319 0.45676599902296044
0.08007119900048565 0.44211040547142155 0.4557889594528579
0.08026219600014883 0.44406448461162684 0.45676599902296044
0.08045313700040424 0.44699560332193444 0.45481191988275516
0.08064379999996163 0.4509037616023448 0.45188080117244755
0.08083487100066122 0.45481191988275516 0.44992672203224227
0.08102688600047259 0.45481191988275516 0.45188080117244755
0.08121808700070687 0.4587200781631655 0.4538348803126526
0.08140988000013749 0.46262823644357587 0.45676599902296044
0.0816008210003929 0.46458231558378116 0.4538348803126526
0.08179166900026758 0.46165119687347334 0.4528578407425501
0.08198220300073444 0.45676599902296044 0.44992672203224227
0.08219084800020937 0.45676599902296044 0.45188080117244755
0.08238247400004184 0.45188080117244755 0.4430874450415241
0.08258395200027735 0.44992672203224227 0.4401563263312165
0.08278263400006836 0.4528578407425501 0.4401563263312165
0.08297394500004884 0.4509037616023448 0.43429408891060084
0.08316551600000821 0.4509037616023448 0.43624816805080613
0.08335758700013685 0.4538348803126526 0.43722520762090866
0.08356408300005569 0.4538348803126526 0.43624816805080613
0.08377839400054654 0.45481191988275516 0.441133365901319
0.08398294600010558 0.45676599902296044 0.441133365901319
0.08418785000048956 0.457743038593063 0.44406448461162684
0.08439599500070472 0.457743038593063 0.44406448461162684
0.08459719500024221 0.4557889594528579 0.44894968246213973
0.08479543200064654 0.45676599902296044 0.4509037616023448
0.08499633600058587 0.4587200781631655 0.4509037616023448
0.0851978330001657 0.4587200781631655 0.4528578407425501
0.08539453299999877 0.457743038593063 0.457743038593063
0.08558560400069837 0.45676599902296044 0.4606741573033708
0.08578063799996016 0.45481191988275516 0.4587200781631655
0.08597961600025883 0.45481191988275516 0.45969711773326827
0.08621179700003267 0.4509037616023448 0.4587200781631655
0.08641642300062813 0.4509037616023448 0.45481191988275516
0.08661864200075797 0.44894968246213973 0.4479726428920372
0.0868173980006759 0.44894968246213973 0.43917928676111373
0.08701233900046645 0.44992672203224227 0.43429408891060084
0.08721063200027857 0.44992672203224227 0.42745481191988266
0.08740792500066163 0.44992672203224227 0.4284318514899854
0.08760353200068494 0.44894968246213973 0.42745481191988266
0.08782826900005603 0.4479726428920372 0.4284318514899854
0.08806120999997802 0.4460185637518319 0.431362970200293
0.08825633600008587 0.44211040547142155 0.4303859306301905
0.08844835100080672 0.4430874450415241 0.4303859306301905
0.08863814400046977 0.43917928676111373 0.4333170493404983
0.08882766000078846 0.441133365901319 0.4323400097703958
0.08902087800015579 0.4401563263312165 0.4333170493404983
0.08925146700039477 0.44211040547142155 0.43624816805080613
0.08948342600069736 0.4382022471910112 0.43722520762090866
0.08971412600021722 0.44211040547142155 0.441133365901319
0.08995143600077427 0.441133365901319 0.44699560332193444
0.0901735990000816 0.44406448461162684 0.44894968246213973
0.09040070700029901 0.4430874450415241 0.45188080117244755
0.090638962000412 0.4460185637518319 0.4528578407425501
0.0908727350006302 0.44699560332193444 0.4557889594528579
0.09112391600046976 0.44699560332193444 0.46165119687347334
0.09138300400081789 0.44699560332193444 0.4606741573033708
0.09164005599996017 0.44894968246213973 0.4587200781631655
0.09184934800032352 0.4509037616023448 0.4557889594528579
0.09206365900081437 0.44894968246213973 0.457743038593063
0.09229341500031296 0.4509037616023448 0.457743038593063
0.09253757700025744 0.45481191988275516 0.46165119687347334
0.09278255500066734 0.4538348803126526 0.4636052760136786
0.09302197600027284 0.4538348803126526 0.4665363947239862
0.09323456500078464 0.4538348803126526 0.467513434294089
0.09344383900042885 0.4528578407425501 0.4655593551538837
0.09366474300077243 0.4538348803126526 0.46165119687347334
0.09391083100035758 0.4538348803126526 0.46262823644357587
0.09414123500027927 0.45481191988275516 0.46165119687347334
0.09434393500032456 0.45188080117244755 0.4587200781631655
0.09454456100047537 0.45481191988275516 0.45969711773326827
0.09474570600013976 0.4509037616023448 0.46165119687347334
0.0949474620001638 0.44894968246213973 0.46262823644357587
0.09517101300025388 0.44894968246213973 0.4636052760136786
0.09538638000049104 0.44894968246213973 0.4655593551538837
0.09558811700026126 0.44894968246213973 0.4655593551538837
0.09579146600026434 0.44992672203224227 0.4684904738641915
0.09599170300043625 0.4509037616023448 0.47142159257449934
0.09620171799997479 0.45188080117244755 0.47239863214460187
0.09639456700006122 0.45188080117244755 0.4704445530043966
0.09658563700031664 0.45188080117244755 0.46946751343429405
0.09677706000002217 0.4528578407425501 0.46946751343429405
0.09696777900080633 0.45188080117244755 0.4704445530043966
0.09715951600082917 0.45188080117244755 0.46946751343429405
0.09735049500068271 0.4538348803126526 0.4665363947239862
0.09754128800068429 0.4528578407425501 0.467513434294089
0.0977329320003264 0.4509037616023448 0.467513434294089
0.09792463300072995 0.4528578407425501 0.4655593551538837
0.09819012800016935 0.4557889594528579 0.467513434294089
0.09839582800032076 0.45676599902296044 0.4684904738641915
0.09862443600013648 0.4528578407425501 0.467513434294089
0.09883245100081695 0.4557889594528579 0.4636052760136786
0.09903435500018531 0.4557889594528579 0.46165119687347334
0.09922922200075845 0.457743038593063 0.45676599902296044
0.09943031100010558 0.45481191988275516 0.4528578407425501
0.09963988100025745 0.4528578407425501 0.44894968246213973
0.09987587700015865 0.45188080117244755 0.44406448461162684
0.10007909600062703 0.44992672203224227 0.4450415241817294
0.10028016600062983 0.4509037616023448 0.441133365901319
0.10051242200006527 0.45188080117244755 0.441133365901319
0.10070969600019453 0.44992672203224227 0.4401563263312165
0.10090384100021765 0.4587200781631655 0.4382022471910112
0.10110448600062227 0.44992672203224227 0.441133365901319
0.10133075900012045 0.44992672203224227 0.43917928676111373
0.10155212600056984 0.4460185637518319 0.4430874450415241
0.10176178900019295 0.4460185637518319 0.44699560332193444
0.10196521200032294 0.4460185637518319 0.45188080117244755
0.10215694900034578 0.4460185637518319 0.45481191988275516
0.10234676100026263 0.44699560332193444 0.457743038593063
0.10253509100039082 0.44992672203224227 0.45969711773326827
0.10272308700041322 0.4509037616023448 0.4606741573033708
0.10291134300041449 0.4538348803126526 0.4606741573033708
0.10309976600001391 0.4557889594528579 0.46165119687347334
0.1032884300002479 0.45676599902296044 0.45969711773326827
0.10349822200078052 0.4587200781631655 0.45481191988275516
0.10368953400029568 0.45676599902296044 0.45188080117244755
0.10387725300006423 0.45676599902296044 0.4528578407425501
0.1040652500005308 0.4557889594528579 0.44992672203224227
0.10425465400021494 0.45481191988275516 0.44992672203224227
0.10444200200072373 0.4528578407425501 0.4509037616023448
0.10462924000057683 0.45188080117244755 0.45188080117244755
0.10481725500085304 0.45188080117244755 0.4538348803126526
0.10500508500081196 0.44992672203224227 0.4538348803126526
0.10519386000032682 0.44992672203224227 0.457743038593063
0.10538187500060303 0.44992672203224227 0.457743038593063
0.10556998300035048 0.4479726428920372 0.457743038593063
0.10576403499999287 0.4460185637518319 0.457743038593063
0.10596256900043954 0.44406448461162684 0.45969711773326827
0.10616106500037858 0.4430874450415241 0.46165119687347334
0.1063644320001913 0.4460185637518319 0.4665363947239862
0.10656400300013047 0.4450415241817294 0.4636052760136786
0.10676946200055681 0.44699560332193444 0.46262823644357587
0.10697984800026461 0.4450415241817294 0.4557889594528579
0.10720173300069291 0.4450415241817294 0.44894968246213973
0.10743276600078389 0.44406448461162684 0.4430874450415241
0.1076591320006628 0.441133365901319 0.44406448461162684
0.10791060900010052 0.44406448461162684 0.44211040547142155
0.108157587000278 0.44211040547142155 0.4382022471910112
0.10839982300058182 0.44406448461162684 0.43429408891060084
0.10869559599996137 0.4479726428920372 0.42940889106008795
0.10896185100045841 0.4450415241817294 0.4333170493404983
0.10919571700014785 0.4430874450415241 0.4333170493404983
0.10945184200045333 0.44406448461162684 0.43722520762090866
0.10965441300049861 0.441133365901319 0.441133365901319
0.10987535300046147 0.441133365901319 0.4479726428920372
0.11017451500083553 0.44211040547142155 0.4528578407425501
0.11042886200084467 0.4460185637518319 0.4538348803126526
0.11065997000059724 0.4460185637518319 0.45188080117244755
0.11089776200060442 0.44992672203224227 0.44894968246213973
0.11112812800001848 0.45188080117244755 0.44406448461162684
0.11135273500076437 0.44992672203224227 0.43917928676111373
0.11157976900085487 0.44992672203224227 0.43722520762090866
0.11179730200001359 0.45188080117244755 0.4333170493404983
0.11201211300067371 0.4538348803126526 0.43429408891060084
0.11221592400033842 0.45481191988275516 0.441133365901319
0.11241912500008766 0.4538348803126526 0.4460185637518319
0.11261834300057671 0.4538348803126526 0.45188080117244755
0.11285643200062623 0.4538348803126526 0.4587200781631655
0.11306187300033343 0.4509037616023448 0.46165119687347334
0.11326068400012446 0.45188080117244755 0.46946751343429405
0.11345723600061319 0.45481191988275516 0.4763067904250122
0.11365752900019288 0.46165119687347334 0.4802149487054226
0.11385789600080898 0.45676599902296044 0.4851001465559355
0.1140543740002613 0.45676599902296044 0.4909623839765511
0.11430422200010071 0.45676599902296044 0.486077186126038
0.11453734700080531 0.4557889594528579 0.4851001465559355
0.11475269600032334 0.45481191988275516 0.4851001465559355
0.11497226600022259 0.4538348803126526 0.4831460674157304
0.11519428100018558 0.4528578407425501 0.48216902784562765
0.11539549900044221 0.45188080117244755 0.47728382999511476
0.11559501400006411 0.44699560332193444 0.48216902784562765
0.11578930700034107 0.4450415241817294 0.4753297508549097
0.11598823000076663 0.44406448461162684 0.4753297508549097
0.11617848600053549 0.44211040547142155 0.47923790913532005
0.11637146400062193 0.4430874450415241 0.47728382999511476
0.11655992400028481 0.441133365901319 0.4763067904250122
0.11675303200081544 0.4401563263312165 0.4753297508549097
0.11694338000052085 0.4382022471910112 0.4733756717147044
0.11713258100007806 0.43429408891060084 0.46946751343429405
0.11732159600069281 0.43429408891060084 0.46946751343429405
0.11750920400027098 0.4284318514899854 0.4655593551538837
0.11769690400069521 0.4303859306301905 0.46262823644357587
0.11788464200071758 0.4333170493404983 0.45969711773326827
0.11812082300002658 0.42745481191988266 0.4538348803126526
0.11831048600015492 0.4284318514899854 0.44894968246213973
0.11853489000077388 0.4284318514899854 0.44211040547142155
0.11872629400022561 0.4323400097703958 0.43624816805080613
0.11896843800059287 0.42940889106008795 0.42940889106008795
0.11917604500013113 0.4333170493404983 0.42452369320957506
0.11936624600002688 0.4323400097703958 0.42256961406936977
0.11955440900055692 0.4323400097703958 0.42256961406936977
0.11974244300017745 0.43429408891060084 0.4264777723497801
0.1199303660005171 0.4352711284807034 0.42452369320957506
0.12011728900051821 0.43624816805080613 0.4284318514899854
0.12030519300060405 0.43624816805080613 0.4284318514899854
0.1204923190007321 0.43722520762090866 0.4284318514899854
0.12067950100026792 0.43722520762090866 0.4284318514899854
0.12086699800056522 0.4382022471910112 0.4284318514899854
0.12105499500012229 0.43917928676111373 0.42745481191988266
0.121242417000758 0.441133365901319 0.4255007327796776
0.12142956200023036 0.44406448461162684 0.42745481191988266
0.1216169670005911 0.4460185637518319 0.4303859306301905
0.12180577800063475 0.44992672203224227 0.4284318514899854
0.12199346000033984 0.44992672203224227 0.4284318514899854
0.12220036400049139 0.44699560332193444 0.4323400097703958
0.12240162000034616 0.44894968246213973 0.4333170493404983
0.12258976500015706 0.4450415241817294 0.4401563263312165
0.12277739100045437 0.4479726428920372 0.44406448461162684
0.12296486900049786 0.44992672203224227 0.4479726428920372
0.12315245900026639 0.44992672203224227 0.45188080117244755
0.12334502900012012 0.44894968246213973 0.45188080117244755
0.1235499330005041 0.4509037616023448 0.44992672203224227
0.12375772600080381 0.4528578407425501 0.44894968246213973
0.12396748200080765 0.4557889594528579 0.44894968246213973
0.12416736700015463 0.45481191988275516 0.43917928676111373
0.12436927100043249 0.457743038593063 0.43722520762090866
0.12457152700062579 0.457743038593063 0.4382022471910112
0.12477178300014202 0.45969711773326827 0.43429408891060084
0.12500829700002214 0.45481191988275516 0.43722520762090866
0.12523209000028146 0.4528578407425501 0.44406448461162684
0.12543275300049572 0.4538348803126526 0.441133365901319
0.12564424900028826 0.4538348803126526 0.441133365901319
0.12586926400035736 0.4538348803126526 0.44406448461162684
0.12606474200038065 0.45188080117244755 0.44699560332193444
0.12631277500076976 0.45481191988275516 0.4479726428920372
0.1265413820001413 0.4538348803126526 0.4509037616023448
0.12675215600029333 0.4557889594528579 0.44992672203224227
0.12699324500044895 0.457743038593063 0.44992672203224227
0.12718896300066262 0.457743038593063 0.4538348803126526
0.1273805529999663 0.45676599902296044 0.45188080117244755
0.1275842710001598 0.45969711773326827 0.44992672203224227
0.12778499000069132 0.45676599902296044 0.4460185637518319
0.1279793020003126 0.45676599902296044 0.4430874450415241
0.12817472400001861 0.457743038593063 0.43917928676111373
0.12837459100046544 0.45188080117244755 0.43917928676111373
0.12857925400021486 0.44992672203224227 0.43722520762090866
0.1287746400003016 0.4509037616023448 0.4382022471910112
0.128980784000305 0.45188080117244755 0.4352711284807034
0.12918020699999033 0.44894968246213973 0.43624816805080613
0.12937744400005613 0.44992672203224227 0.43624816805080613
0.1295722000004389 0.45481191988275516 0.4382022471910112
0.12977373400008219 0.4479726428920372 0.43917928676111373
0.12997015600012674 0.44699560332193444 0.4460185637518319
0.13021168900013436 0.4479726428920372 0.44894968246213973
0.13044103700030973 0.44699560332193444 0.4528578407425501
0.13062962599997263 0.4479726428920372 0.4538348803126526
0.13081879000037588 0.45969711773326827 0.457743038593063
0.13100799000039842 0.4460185637518319 0.457743038593063
0.13119615400046314 0.4430874450415241 0.46262823644357587
0.13138915000035922 0.441133365901319 0.4636052760136786
0.13158864700017148 0.441133365901319 0.47923790913532005
0.13178627300021617 0.4382022471910112 0.47142159257449934
0.1319943440003044 0.4382022471910112 0.4763067904250122
0.1322010070007309 0.43722520762090866 0.47728382999511476
0.1323957810000138 0.44211040547142155 0.47239863214460187
0.13259050000033312 0.44211040547142155 0.4665363947239862
0.13278671900025074 0.4430874450415241 0.46165119687347334
0.13298886400025367 0.441133365901319 0.4557889594528579
0.13321321200055536 0.4450415241817294 0.4528578407425501
0.13340935600081139 0.4430874450415241 0.4528578407425501
0.13361314900066645 0.4450415241817294 0.4509037616023448
0.1338417010001649 0.44699560332193444 0.4528578407425501
0.13405590100046538 0.44406448461162684 0.4509037616023448
0.13426343400078622 0.4430874450415241 0.44992672203224227
0.13446126400049252 0.4382022471910112 0.44699560332193444
0.13465926100070646 0.43624816805080613 0.4460185637518319
0.13486066500081506 0.43624816805080613 0.44406448461162684
0.13511386400023184 0.43722520762090866 0.4450415241817294
0.1353073240006779 0.43722520762090866 0.4509037616023448
0.13553565300026094 0.43722520762090866 0.44894968246213973
0.13573779800026387 0.4382022471910112 0.45188080117244755
0.1359422760006055 0.43917928676111373 0.4528578407425501
0.13615358700008073 0.44406448461162684 0.45676599902296044
0.1363649910008462 0.441133365901319 0.457743038593063
0.13658483900053398 0.44211040547142155 0.4606741573033708
0.1368088720000742 0.4430874450415241 0.46458231558378116
0.1370303130006505 0.44894968246213973 0.4636052760136786
0.13723597600073845 0.4509037616023448 0.46165119687347334
0.13745526800084917 0.45188080117244755 0.4606741573033708
0.1376734130008117 0.45481191988275516 0.4587200781631655
0.13789668700064794 0.45969711773326827 0.457743038593063
0.13816655300070124 0.4606741573033708 0.45481191988275516
0.13837795600011304 0.46165119687347334 0.45676599902296044
0.13865184000042063 0.46458231558378116 0.457743038593063
0.13886650300082692 0.4704445530043966 0.4606741573033708
0.13909833300022 0.47728382999511476 0.4636052760136786
0.13931707000028837 0.4782608695652173 0.4636052760136786
0.13951936300054513 0.4851001465559355 0.467513434294089
0.13971998900069593 0.4782608695652173 0.4684904738641915
0.1399161710005501 0.47728382999511476 0.47239863214460187
0.14011140800084831 0.47239863214460187 0.4753297508549097
0.14030309000008856 0.4704445530043966 0.4753297508549097
0.14050351200057776 0.467513434294089 0.4684904738641915
0.14069945300070685 0.46165119687347334 0.45969711773326827
0.14090130200020212 0.4587200781631655 0.4538348803126526
0.14109542799997143 0.4587200781631655 0.44699560332193444
0.14129327700084104 0.4587200781631655 0.4430874450415241
0.141490366000653 0.457743038593063 0.4450415241817294
0.14168999200046528 0.4587200781631655 0.44699560332193444
0.1418893960008063 0.4606741573033708 0.4509037616023448
0.14219472400054656 0.467513434294089 0.457743038593063
0.14240314600010606 0.46458231558378116 0.46165119687347334
0.1426054950006801 0.46458231558378116 0.46262823644357587
0.14279912100028014 0.46262823644357587 0.46165119687347334
0.14299356200081093 0.46262823644357587 0.45969711773326827
0.14318463300060102 0.46165119687347334 0.4557889594528579
0.14337363000049663 0.4587200781631655 0.4509037616023448
0.14356164500077284 0.45676599902296044 0.44699560332193444
0.14374932700047793 0.4557889594528579 0.4479726428920372
0.1439394720000564 0.4538348803126526 0.44406448461162684
0.1441275430006499 0.45188080117244755 0.44406448461162684
0.14431602100012242 0.44992672203224227 0.44211040547142155
0.14453027700074017 0.4479726428920372 0.44211040547142155
0.14471773600052984 0.44992672203224227 0.44406448461162684
0.14490590000059456 0.4509037616023448 0.4460185637518319
0.14509335900038423 0.4509037616023448 0.4430874450415241
0.14528056000017386 0.45188080117244755 0.44406448461162684
0.1454763900001126 0.4528578407425501 0.44406448461162684
0.14566766400002962 0.4509037616023448 0.4401563263312165
0.14585532800083456 0.45188080117244755 0.43917928676111373
0.14604384300037054 0.44894968246213973 0.441133365901319
0.14623593200030882 0.45188080117244755 0.441133365901319
0.14642342900060612 0.45188080117244755 0.4450415241817294
0.14661185200020554 0.44894968246213973 0.4460185637518319
0.1467992560001221 0.45188080117244755 0.4479726428920372
0.14698708600008104 0.44992672203224227 0.44894968246213973
0.14717510100035724 0.4479726428920372 0.44699560332193444
0.14736295000056998 0.4460185637518319 0.44211040547142155
0.14755420600067737 0.44211040547142155 0.43624816805080613
0.14774190700063627 0.44211040547142155 0.4284318514899854
0.14793073700002424 0.4401563263312165 0.42256961406936977
0.148117956000533 0.43722520762090866 0.42159257449926724
0.14830602600068232 0.43429408891060084 0.4206155349291647
0.14850487500007148 0.43624816805080613 0.4186614557889594
0.14869276100034767 0.43624816805080613 0.4206155349291647
0.14887990600072953 0.43624816805080613 0.42452369320957506
0.14906808700015972 0.43624816805080613 0.4284318514899854
0.1492554360002032 0.43722520762090866 0.4323400097703958
0.1494438590007121 0.4401563263312165 0.4382022471910112
0.14963105900005758 0.441133365901319 0.441133365901319
0.14981926000018575 0.441133365901319 0.44699560332193444
0.1500104230008219 0.4450415241817294 0.45676599902296044
0.15020917900073982 0.44406448461162684 0.46165119687347334
0.15039669400084676 0.44992672203224227 0.46262823644357587
0.15058552400023473 0.4538348803126526 0.46262823644357587
0.15078042799996183 0.45188080117244755 0.45969711773326827
0.15096829600042838 0.4538348803126526 0.45481191988275516
0.1511560520002604 0.4528578407425501 0.45188080117244755
0.1513436040004308 0.45481191988275516 0.44992672203224227
0.15153124900007242 0.4528578407425501 0.4479726428920372
0.15171882000049663 0.45188080117244755 0.4450415241817294
0.1519062050001594 0.45188080117244755 0.441133365901319
0.15209433200016065 0.45188080117244755 0.4401563263312165
0.15228429100079666 0.4479726428920372 0.4401563263312165
0.152482233000228 0.4450415241817294 0.4401563263312165
0.15272363600070094 0.44406448461162684 0.44211040547142155
0.15292620600030205 0.44406448461162684 0.44211040547142155
0.1531247210004949 0.44406448461162684 0.44406448461162684
0.15332540300005348 0.44211040547142155 0.4479726428920372
0.15352534400062723 0.4430874450415241 0.4479726428920372
0.15372587800084148 0.44211040547142155 0.44992672203224227
0.15392439300012484 0.44406448461162684 0.45188080117244755
0.15425129499999457 0.4430874450415241 0.4528578407425501
0.15447405000031722 0.44699560332193444 0.4528578407425501
0.15470297200045025 0.44699560332193444 0.4528578407425501
0.15491685699998925 0.45188080117244755 0.4509037616023448
0.15513578000081907 0.44699560332193444 0.44992672203224227
0.1553847940003834 0.44699560332193444 0.4509037616023448
0.15560260500024015 0.4460185637518319 0.4509037616023448
0.15583137900011934 0.4450415241817294 0.45188080117244755
0.156059004000781 0.44406448461162684 0.4557889594528579
0.1564062390007166 0.4460185637518319 0.4557889594528579
0.15664491999996244 0.4450415241817294 0.4587200781631655
0.15685828700043203 0.4450415241817294 0.46262823644357587
0.1570570060002865 0.4450415241817294 0.46262823644357587
0.15726789100062888 0.4479726428920372 0.4636052760136786
0.15746253600082127 0.44699560332193444 0.46458231558378116
0.15766631000042253 0.44894968246213973 0.4684904738641915
0.15789095400032238 0.44992672203224227 0.4704445530043966
0.15815637600007904 0.4509037616023448 0.4753297508549097
0.158384613000635 0.4528578407425501 0.4733756717147044
0.15860631200030184 0.4538348803126526 0.47142159257449934
0.15883347500039235 0.45188080117244755 0.4684904738641915
0.15904617500018503 0.45481191988275516 0.467513434294089
0.15925857900037954 0.44992672203224227 0.4665363947239862
0.1594571130008262 0.45188080117244755 0.4704445530043966
0.1596547200006171 0.4528578407425501 0.467513434294089
0.15985440200074663 0.4538348803126526 0.4684904738641915
0.16004938000060065 0.45481191988275516 0.4684904738641915
0.16025058100058232 0.4528578407425501 0.4704445530043966
0.16044646600039414 0.4509037616023448 0.47142159257449934
0.16064600000026985 0.4557889594528579 0.467513434294089
0.16083660700041946 0.45481191988275516 0.467513434294089
0.16102430800037837 0.4538348803126526 0.46165119687347334
0.16121171200029494 0.45481191988275516 0.45969711773326827
0.16139948700038076 0.4538348803126526 0.45188080117244755
0.16158805800023401 0.45481191988275516 0.45188080117244755
0.16180709100081003 0.457743038593063 0.44406448461162684
0.16199843900085398 0.45969711773326827 0.43917928676111373
0.1622102139999697 0.4606741573033708 0.441133365901319
0.1623978210000132 0.46165119687347334 0.441133365901319
0.16258528100024705 0.46165119687347334 0.441133365901319
0.1627730000000156 0.45676599902296044 0.4450415241817294
0.16296170100031304 0.4636052760136786 0.44699560332193444
0.16315010500056815 0.4636052760136786 0.4538348803126526
0.16333780500008288 0.46262823644357587 0.4587200781631655
0.16352559799997834 0.46458231558378116 0.4665363947239862
0.16371320600046602 0.4636052760136786 0.467513434294089
0.1639014810007211 0.46946751343429405 0.467513434294089
0.16409857000053307 0.467513434294089 0.467513434294089
0.16429008500017517 0.46946751343429405 0.4655593551538837
0.16447815600076865 0.46458231558378116 0.46262823644357587
0.16466681900055846 0.46458231558378116 0.4636052760136786
0.1648549270003059 0.46262823644357587 0.45969711773326827
0.1650434060002226 0.4636052760136786 0.4587200781631655
0.16523131000030844 0.4606741573033708 0.457743038593063
0.16541938099999243 0.457743038593063 0.45969711773326827
0.165607063000607 0.457743038593063 0.45969711773326827
0.1657949300006294 0.4557889594528579 0.45676599902296044
0.16598288900058833 0.46165119687347334 0.4538348803126526
0.16619562699997914 0.457743038593063 0.44992672203224227
0.16638390100069955 0.4557889594528579 0.4460185637518319
0.16657095300070068 0.4557889594528579 0.44406448461162684
0.16675909800051159 0.4557889594528579 0.441133365901319
0.16694604000076652 0.457743038593063 0.4401563263312165
0.16713398100000632 0.45481191988275516 0.43917928676111373
0.16732240300007106 0.457743038593063 0.43624816805080613
0.16751030800060107 0.457743038593063 0.4382022471910112
0.16769997100072942 0.4557889594528579 0.42940889106008795
0.16788756000005378 0.45481191988275516 0.4303859306301905
0.1680764460006685 0.4538348803126526 0.4352711284807034
0.16826449800009868 0.4509037616023448 0.43917928676111373
0.16845236600056523 0.44699560332193444 0.4401563263312165
0.16864054699999542 0.44211040547142155 0.44211040547142155
0.16882802600048308 0.4382022471910112 0.44211040547142155
0.16901528200014582 0.4352711284807034 0.44211040547142155
0.16920735300027445 0.4352711284807034 0.44406448461162684
0.16940479400000186 0.43429408891060084 0.44406448461162684
0.1696049199999834 0.431362970200293 0.44894968246213973
0.16992124800071906 0.42940889106008795 0.4430874450415241
0.17014904000006936 0.4303859306301905 0.441133365901319
0.17037479500049812 0.4303859306301905 0.43917928676111373
0.17058755100060807 0.4303859306301905 0.4401563263312165
0.17085162100011075 0.431362970200293 0.4382022471910112
0.17109367200009729 0.43429408891060084 0.43624816805080613
0.1713396310005919 0.4333170493404983 0.43624816805080613
0.17156433100080903 0.43624816805080613 0.43722520762090866
0.1717684380000719 0.4382022471910112 0.4382022471910112
0.17198065700085863 0.4382022471910112 0.44699560332193444
0.1722019860008004 0.4382022471910112 0.44894968246213973
0.17240511199997854 0.4430874450415241 0.4460185637518319
0.17260731300029875 0.4450415241817294 0.4509037616023448
0.17280579100042814 0.4479726428920372 0.4538348803126526
0.17301219500041043 0.44699560332193444 0.4557889594528579
0.17321865400026581 0.44406448461162684 0.45969711773326827
0.17341505800050072 0.44699560332193444 0.4606741573033708
0.17360262900001544 0.4450415241817294 0.4636052760136786
0.17379151500063017 0.44406448461162684 0.4665363947239862
0.17398014100035653 0.44894968246213973 0.4704445530043966
0.1742081930005952 0.44699560332193444 0.47728382999511476
0.17442498500076908 0.44699560332193444 0.4811919882755251
0.17466225900079735 0.44894968246213973 0.4831460674157304
0.17485045900048135 0.4479726428920372 0.4851001465559355
0.1750392890007788 0.4450415241817294 0.4831460674157304
0.1752273790007166 0.4460185637518319 0.4802149487054226
0.17541598700063332 0.4460185637518319 0.47239863214460187
0.17560459400010586 0.44699560332193444 0.4684904738641915
0.17579277599998022 0.4430874450415241 0.46262823644357587
0.17598279200046818 0.4430874450415241 0.4587200781631655
0.176171011000406 0.441133365901319 0.46165119687347334
0.17636080400006904 0.44211040547142155 0.46165119687347334
0.1765489860008529 0.4430874450415241 0.4665363947239862
0.17673689000002923 0.44699560332193444 0.4684904738641915
0.1769244790002631 0.4479726428920372 0.47142159257449934
0.17711188300017966 0.4509037616023448 0.4704445530043966
0.17729963900001167 0.4509037616023448 0.4684904738641915
0.17748724700049934 0.4557889594528579 0.4684904738641915
0.17767530000037368 0.457743038593063 0.4655593551538837
0.1778840550005043 0.45676599902296044 0.4655593551538837
0.17812594000042736 0.45676599902296044 0.4655593551538837
0.17831704800028092 0.45481191988275516 0.4655593551538837
0.17850680400079 0.4528578407425501 0.467513434294089
0.1787151520002226 0.4538348803126526 0.4655593551538837
0.17890346400054113 0.45188080117244755 0.46165119687347334
0.1790911269999924 0.45188080117244755 0.46165119687347334
0.1792795870005648 0.44894968246213973 0.46165119687347334
0.17946758400012186 0.44992672203224227 0.46262823644357587
0.17965504300082102 0.45188080117244755 0.46458231558378116
0.17984294800044154 0.4538348803126526 0.4636052760136786
0.18003133300044283 0.45188080117244755 0.46165119687347334
0.1802194600004441 0.457743038593063 0.45969711773326827
0.1804076790003819 0.4538348803126526 0.45969711773326827
0.1805948420005734 0.4538348803126526 0.4509037616023448
0.18078267200053233 0.4528578407425501 0.44699560332193444
0.18097520600076678 0.45188080117244755 0.441133365901319
0.18117464700026176 0.44992672203224227 0.43624816805080613
0.18141212400041695 0.44992672203224227 0.4333170493404983
0.18164760200033925 0.45188080117244755 0.43624816805080613
0.18186070900082996 0.4538348803126526 0.4382022471910112
0.1820673540005373 0.45676599902296044 0.4450415241817294
0.18234838600074 0.45676599902296044 0.4450415241817294
0.18253938300040318 0.457743038593063 0.4460185637518319
0.18273947200032126 0.4665363947239862 0.4479726428920372
0.18293606099996396 0.46165119687347334 0.4509037616023448
0.18312591000085376 0.4606741573033708 0.4479726428920372
0.18331312900045305 0.46165119687347334 0.45676599902296044
0.18350177400043322 0.46458231558378116 0.4450415241817294
0.18368993700005376 0.4655593551538837 0.44406448461162684
0.18387728600009723 0.4655593551538837 0.43917928676111373
0.18406419000075402 0.45969711773326827 0.44211040547142155
0.18425379800009978 0.45969711773326827 0.441133365901319
0.18448499700025422 0.457743038593063 0.4450415241817294
0.18467471600069985 0.4557889594528579 0.44699560332193444
0.18486226900040492 0.45188080117244755 0.44699560332193444
0.185050265999962 0.44406448461162684 0.45188080117244755
0.18523752200053423 0.441133365901319 0.4509037616023448
0.18542461100059882 0.43624816805080613 0.4528578407425501
0.185612219000177 0.431362970200293 0.4528578407425501
0.18579964200034738 0.431362970200293 0.45481191988275516
0.18598691600072925 0.4303859306301905 0.4538348803126526
0.18619452400071168 0.4284318514899854 0.45481191988275516
0.18638218700016296 0.4303859306301905 0.4557889594528579
0.1865706840007988 0.4333170493404983 0.4538348803126526
0.1867598660001022 0.43722520762090866 0.45969711773326827
0.1869693990001906 0.44211040547142155 0.45969711773326827
0.18716698800017184 0.44211040547142155 0.4606741573033708
0.18738663300064218 0.44406448461162684 0.457743038593063
0.1875856290007505 0.44406448461162684 0.45676599902296044
0.18778212600045663 0.4460185637518319 0.4528578407425501
0.1879830480002056 0.4430874450415241 0.44894968246213973
0.18818611900042015 0.44894968246213973 0.44894968246213973
0.18838006000078167 0.44992672203224227 0.44406448461162684
0.18858035300036136 0.4528578407425501 0.4450415241817294
0.1887880900003438 0.46165119687347334 0.44211040547142155
0.18898497600002884 0.4587200781631655 0.4401563263312165
0.1892709890007609 0.4606741573033708 0.4382022471910112
0.18949143000008917 0.457743038593063 0.4352711284807034
0.18972875899999053 0.457743038593063 0.4333170493404983
0.18997445900004095 0.45481191988275516 0.4333170493404983
0.19028343500031042 0.4528578407425501 0.43917928676111373
0.19051367200063396 0.4509037616023448 0.4479726428920372
0.19074120500044955 0.4509037616023448 0.45188080117244755
0.1909711080006673 0.45188080117244755 0.45188080117244755
0.1911868080005661 0.4538348803126526 0.4509037616023448
0.19138745300006121 0.4509037616023448 0.45188080117244755
0.1915968380008053 0.4528578407425501 0.44894968246213973
0.19179661300040607 0.45188080117244755 0.44406448461162684
0.19199535000007018 0.4509037616023448 0.441133365901319
0.19220182800017938 0.44992672203224227 0.4401563263312165
0.1923900470001172 0.4479726428920372 0.43624816805080613
0.19257841400030884 0.4479726428920372 0.43624816805080613
0.19276611400073307 0.4460185637518319 0.43429408891060084
0.1929593520007984 0.4460185637518319 0.4352711284807034
0.19314688600024965 0.44699560332193444 0.4401563263312165
0.1933364190008433 0.4479726428920372 0.441133365901319
0.1935241200008022 0.45188080117244755 0.441133365901319
0.19371320900063438 0.45481191988275516 0.4430874450415241
0.1939056690007419 0.4538348803126526 0.44406448461162684
0.19414170200070657 0.45188080117244755 0.44699560332193444
0.1943344760002219 0.44699560332193444 0.4460185637518319
0.19452110300062486 0.4450415241817294 0.4460185637518319
0.19470967400047812 0.4430874450415241 0.4430874450415241
0.1948965040000985 0.44211040547142155 0.44211040547142155
0.19508366700029 0.43917928676111373 0.4382022471910112
0.19527084900073532 0.4450415241817294 0.43722520762090866
0.1954589200004193 0.44699560332193444 0.43624816805080613
0.19570174900036363 0.4430874450415241 0.4333170493404983
0.19594765200054098 0.44211040547142155 0.431362970200293
0.19615150100071332 0.4450415241817294 0.4352711284807034
0.19635271900006046 0.4450415241817294 0.43429408891060084
0.19656177100023342 0.4479726428920372 0.43429408891060084
0.19676347200038435 0.4430874450415241 0.4333170493404983
0.19696115300030215 0.4450415241817294 0.43624816805080613
0.19715581700074836 0.4450415241817294 0.441133365901319
0.19734881300064444 0.4460185637518319 0.4460185637518319
0.1975543660000767 0.44699560332193444 0.45676599902296044
0.19778389900056936 0.4509037616023448 0.4684904738641915
0.1980002840000452 0.457743038593063 0.4763067904250122
0.19824403900020116 0.45676599902296044 0.47728382999511476
0.19845486900067044 0.45481191988275516 0.47728382999511476
0.19868366100035928 0.4557889594528579 0.4811919882755251
0.1988821580007425 0.4538348803126526 0.47728382999511476
0.1990783580004063 0.4538348803126526 0.4763067904250122
0.19927698400078953 0.45188080117244755 0.4782608695652173
0.1994761660007498 0.4528578407425501 0.47728382999511476
0.1996689770003286 0.4557889594528579 0.4753297508549097
0.19985643700056244 0.45481191988275516 0.4763067904250122
0.20004415600033099 0.45969711773326827 0.4704445530043966
0.20024854100029188 0.4587200781631655 0.47239863214460187
0.20043672300016624 0.46165119687347334 0.47142159257449934
0.20062403500014625 0.45969711773326827 0.46946751343429405
0.20090636300028564 0.46165119687347334 0.46946751343429405
0.20109636000051978 0.4655593551538837 0.46946751343429405
0.2012846530005845 0.4655593551538837 0.46946751343429405
0.20147472400003608 0.467513434294089 0.467513434294089
0.20166273900031229 0.467513434294089 0.4665363947239862
0.201852384000631 0.4684904738641915 0.46458231558378116
0.20204017700052646 0.4684904738641915 0.4655593551538837
0.20223306300067634 0.47142159257449934 0.46458231558378116
0.2024207820004449 0.467513434294089 0.45969711773326827
0.2026085380002769 0.4655593551538837 0.457743038593063
0.20279618300082802 0.46165119687347334 0.4528578407425501
0.20298395700046967 0.45969711773326827 0.44992672203224227
0.20317210200028057 0.45676599902296044 0.4479726428920372
0.20337039500009269 0.4557889594528579 0.4528578407425501
0.2035597809999672 0.45481191988275516 0.44406448461162684
0.20375766600045608 0.45188080117244755 0.4460185637518319
0.2039475150004364 0.4528578407425501 0.4460185637518319
0.20414921500014316 0.44992672203224227 0.4479726428920372
0.2043615630000204 0.4479726428920372 0.4479726428920372
0.20454893100031768 0.4479726428920372 0.44894968246213973
0.20473670499995933 0.4460185637518319 0.44992672203224227
0.20492409100006626 0.4460185637518319 0.44992672203224227
0.20511201299996173 0.4460185637518319 0.44992672203224227
0.20529941800032248 0.4460185637518319 0.441133365901319
0.20548676600083127 0.4479726428920372 0.43917928676111373
0.2056742070008113 0.44406448461162684 0.43722520762090866
0.2058619080007702 0.4460185637518319 0.43722520762090866
0.20604975700007344 0.4460185637518319 0.4323400097703958
0.20623953100039216 0.4450415241817294 0.4323400097703958
0.20643697200011957 0.4450415241817294 0.43429408891060084
0.20664189500075736 0.4450415241817294 0.4323400097703958
0.20686800200019206 0.4450415241817294 0.4333170493404983
0.20709055400038778 0.44894968246213973 0.4382022471910112
0.2072872720000305 0.4479726428920372 0.4401563263312165
0.2074855099999695 0.45188080117244755 0.43917928676111373
0.2076829320003526 0.4528578407425501 0.43917928676111373
0.2078771880005661 0.4538348803126526 0.4352711284807034
0.20810390600036044 0.4557889594528579 0.43917928676111373
0.20833371700064163 0.4509037616023448 0.44211040547142155
0.20854965800026548 0.45188080117244755 0.441133365901319
0.2087485440006276 0.4557889594528579 0.441133365901319
0.20893698500003666 0.45481191988275516 0.4430874450415241
0.20912563000001683 0.45676599902296044 0.44211040547142155
0.20931345999997575 0.45676599902296044 0.43624816805080613
0.20950201200048468 0.4557889594528579 0.43429408891060084
0.20969141600016883 0.4538348803126526 0.4333170493404983
0.20987891300046613 0.4557889594528579 0.4303859306301905
0.21006813200074248 0.457743038593063 0.42940889106008795
0.21029355400060012 0.45188080117244755 0.4323400097703958
0.2104818100006014 0.4528578407425501 0.4333170493404983
0.21066945500024303 0.45188080117244755 0.4352711284807034
0.2108569890006038 0.44992672203224227 0.43917928676111373
0.21104459700018197 0.45188080117244755 0.43917928676111373
0.21123207500022545 0.44894968246213973 0.4479726428920372
0.21142647900069278 0.4479726428920372 0.44992672203224227
0.21161506800035568 0.44894968246213973 0.44992672203224227
0.2118027129999973 0.44894968246213973 0.45188080117244755
0.2119899510007599 0.4479726428920372 0.45481191988275516
0.21217722500023228 0.4509037616023448 0.45188080117244755
0.21236581500033935 0.4479726428920372 0.4528578407425501
0.21255581100012932 0.44992672203224227 0.4538348803126526
0.21278801100015698 0.45188080117244755 0.457743038593063
0.21297743400009495 0.4509037616023448 0.45676599902296044
0.21316609700079425 0.45188080117244755 0.4655593551538837
0.21335468699999183 0.4528578407425501 0.46262823644357587
0.21354259100007766 0.45481191988275516 0.46165119687347334
0.21373051400041732 0.4557889594528579 0.46262823644357587
0.21391836200018588 0.45676599902296044 0.46165119687347334
0.21411752500080183 0.45481191988275516 0.46165119687347334
0.21430665200023213 0.45676599902296044 0.46165119687347334
0.21449481500076217 0.4587200781631655 0.4606741573033708
0.21468614500008698 0.46165119687347334 0.46165119687347334
0.21487486400019407 0.46165119687347334 0.46262823644357587
0.2150626390002799 0.4636052760136786 0.46262823644357587
0.21525178400042932 0.46165119687347334 0.4704445530043966
0.21544035500028258 0.45969711773326827 0.4704445530043966
0.21562812900083372 0.457743038593063 0.4763067904250122
0.21581645900005242 0.457743038593063 0.4782608695652173
0.2160046600001806 0.457743038593063 0.4802149487054226
0.2161926010003299 0.45481191988275516 0.47923790913532005
0.21638046800035227 0.457743038593063 0.4831460674157304
0.21656911300033244 0.45188080117244755 0.48216902784562765
0.2167570360006721 0.4528578407425501 0.48705422569614076
0.21694495800056757 0.45188080117244755 0.48216902784562765
0.21713197400003992 0.4538348803126526 0.4851001465559355
0.21731985900078143 0.45481191988275516 0.48412310698583294
0.21750704100031726 0.45481191988275516 0.4802149487054226
0.21769503800078382 0.4538348803126526 0.48216902784562765
0.21788240500063694 0.4538348803126526 0.4802149487054226
0.21811458600041078 0.4538348803126526 0.4782608695652173
0.2183087310004339 0.4538348803126526 0.47923790913532005
0.21849730200028716 0.4479726428920372 0.47728382999511476
0.21868518800056336 0.44699560332193444 0.4763067904250122
0.21887259200047993 0.44211040547142155 0.4704445530043966
0.2190646070002913 0.43624816805080613 0.4655593551538837
0.21925315900080022 0.4303859306301905 0.46165119687347334
0.21944147100020928 0.4303859306301905 0.45969711773326827
0.21962869000071805 0.4303859306301905 0.45969711773326827
0.21981600200069806 0.431362970200293 0.45676599902296044
0.2200031840002339 0.43429408891060084 0.457743038593063
0.220190680000087 0.4352711284807034 0.45676599902296044
0.2203789550003421 0.4382022471910112 0.45481191988275516
0.2205676740004492 0.4352711284807034 0.45676599902296044
0.2207556890007254 0.4401563263312165 0.4528578407425501
0.22096098200017877 0.4382022471910112 0.4557889594528579
0.22115216400015925 0.43722520762090866 0.45188080117244755
0.22134004899999127 0.43624816805080613 0.4538348803126526
0.22152856499997142 0.441133365901319 0.4528578407425501
0.2217166360005649 0.441133365901319 0.4509037616023448
0.22190450300058728 0.43917928676111373 0.45188080117244755
0.22210664700014604 0.43722520762090866 0.44992672203224227
0.2222958110005493 0.43917928676111373 0.4430874450415241
0.22248358500019094 0.4401563263312165 0.4401563263312165
0.22267182300038257 0.43722520762090866 0.43624816805080613
0.2228649120006594 0.43917928676111373 0.431362970200293
0.22305433500059735 0.43624816805080613 0.431362970200293
0.22324177600057737 0.4401563263312165 0.4264777723497801
0.22342945800028247 0.43917928676111373 0.4235466536394723
0.22361739900043176 0.44406448461162684 0.4264777723497801
0.22380432200043288 0.4479726428920372 0.42745481191988266
0.22399120800037053 0.4538348803126526 0.4303859306301905
0.22417876000054093 0.45481191988275516 0.43722520762090866
0.22436664600081713 0.457743038593063 0.44211040547142155
0.22455408700079715 0.46165119687347334 0.44894968246213973
0.2247521389999747 0.4636052760136786 0.45188080117244755
0.22494004300006054 0.46262823644357587 0.45481191988275516
0.22512733600069623 0.4655593551538837 0.45969711773326827
0.22531564800010528 0.46165119687347334 0.45676599902296044
0.2255073110000012 0.46458231558378116 0.4587200781631655
0.22569758600002388 0.46262823644357587 0.4587200781631655
0.22588556400023663 0.46458231558378116 0.4538348803126526
0.22607439400053408 0.46458231558378116 0.4528578407425501
0.2262828350003474 0.46165119687347334 0.45188080117244755
0.22647035000045435 0.46165119687347334 0.4509037616023448
0.22665764300018054 0.4606741573033708 0.4450415241817294
0.22684486200068932 0.4587200781631655 0.43917928676111373
0.2270325440003944 0.457743038593063 0.4323400097703958
0.22722020800028986 0.4557889594528579 0.431362970200293
0.22740853800041805 0.4528578407425501 0.42940889106008795
0.22759609000058845 0.45188080117244755 0.4323400097703958
0.22778393900080118 0.45481191988275516 0.4323400097703958
0.22797128700040048 0.45188080117244755 0.4352711284807034
0.22815876599997864 0.4509037616023448 0.4303859306301905
0.22834683600012795 0.45188080117244755 0.4284318514899854
0.22853440700055216 0.44699560332193444 0.4235466536394723
0.22872201500013034 0.44699560332193444 0.4176844162188569
0.22892090100049245 0.4430874450415241 0.4157303370786516
0.2291093970006841 0.44406448461162684 0.41670737664875435
0.22929756100074883 0.44211040547142155 0.4157303370786516
0.22948448400074994 0.44406448461162684 0.42256961406936977
0.22967214700020122 0.4450415241817294 0.42745481191988266
0.2298598290008158 0.44992672203224227 0.43429408891060084
0.23004827000022487 0.4528578407425501 0.4333170493404983
0.23023776700028975 0.4528578407425501 0.4382022471910112
0.23042611600067175 0.4587200781631655 0.43917928676111373
0.23061361200052488 0.4557889594528579 0.4450415241817294
0.2308013130004838 0.45481191988275516 0.45188080117244755
0.2309903650002525 0.4557889594528579 0.45676599902296044
0.23121019500013062 0.45676599902296044 0.4538348803126526
0.23139867300051264 0.4528578407425501 0.4606741573033708
0.23158650300047157 0.45481191988275516 0.4538348803126526
0.23178361100053735 0.4538348803126526 0.45676599902296044
0.23199086600016017 0.44699560332193444 0.45481191988275516
0.23218032600016159 0.4479726428920372 0.4528578407425501
0.23236869300035323 0.4450415241817294 0.4528578407425501
0.23255644900018524 0.44211040547142155 0.4538348803126526
0.23274420500001725 0.44406448461162684 0.457743038593063
0.23293222100073763 0.4430874450415241 0.45969711773326827
0.2331204580004851 0.44992672203224227 0.46262823644357587
0.2333089359999576 0.44699560332193444 0.467513434294089
0.23349711800074147 0.44699560332193444 0.4665363947239862
0.23368780000055267 0.44699560332193444 0.46458231558378116
0.23387624099996174 0.44992672203224227 0.4606741573033708
0.23406512700057647 0.44894968246213973 0.46262823644357587
0.23426758700043138 0.45188080117244755 0.457743038593063
0.23445519400047488 0.44894968246213973 0.4557889594528579
0.2346431730002223 0.44992672203224227 0.45481191988275516
0.23483122500056197 0.44406448461162684 0.4538348803126526
0.235018666000542 0.4401563263312165 0.45188080117244755
0.2352069960006702 0.43429408891060084 0.4509037616023448
0.23539517800054455 0.4303859306301905 0.4479726428920372
0.23558302700075728 0.42745481191988266 0.4479726428920372
0.23577074600052583 0.4284318514899854 0.4509037616023448
0.23595876100080204 0.42940889106008795 0.45481191988275516
0.23614681400067639 0.431362970200293 0.46165119687347334
0.23633584700019128 0.4333170493404983 0.4636052760136786
0.23652391800078476 0.4382022471910112 0.4655593551538837
0.23671297000055347 0.4352711284807034 0.4704445530043966
0.23691976300051465 0.4401563263312165 0.4733756717147044
0.2371074270004101 0.4401563263312165 0.4733756717147044
0.23729444200034777 0.4460185637518319 0.47239863214460187
0.23748940200039215 0.4430874450415241 0.47142159257449934
0.23768578700037324 0.44406448461162684 0.46946751343429405
0.23788400600005843 0.4460185637518319 0.4655593551538837
0.23812987200017233 0.44992672203224227 0.46458231558378116
0.2383377020005355 0.4509037616023448 0.46165119687347334
0.23853414300083386 0.4538348803126526 0.46262823644357587
0.2387415470002452 0.45481191988275516 0.46458231558378116
0.23895345100027043 0.457743038593063 0.467513434294089
0.23917876100040303 0.46165119687347334 0.4684904738641915
0.23940333200062014 0.46165119687347334 0.4733756717147044
0.23964210500071204 0.4606741573033708 0.4763067904250122
0.23985376800010272 0.4636052760136786 0.4763067904250122
0.24008095000044705 0.46458231558378116 0.4733756717147044
0.24030535300062184 0.467513434294089 0.47142159257449934
0.2405432750001637 0.4665363947239862 0.46946751343429405
0.2407499380005902 0.4655593551538837 0.4655593551538837
0.24095397200017032 0.467513434294089 0.4636052760136786
0.24116287600008945 0.4655593551538837 0.46458231558378116
0.24135763100002805 0.4655593551538837 0.4636052760136786
0.2415544610003053 0.467513434294089 0.4636052760136786
0.24177273500026786 0.4665363947239862 0.45969711773326827
0.24197851000008086 0.46946751343429405 0.45676599902296044
0.24224341300032393 0.4704445530043966 0.457743038593063
0.24245074200007366 0.46946751343429405 0.4528578407425501
0.24266353500024707 0.46946751343429405 0.4538348803126526
0.2428832900004636 0.4684904738641915 0.4538348803126526
0.24313967500074796 0.46458231558378116 0.4509037616023448
0.24336856000081752 0.4684904738641915 0.44699560332193444
0.24357933400006004 0.46458231558378116 0.4430874450415241
0.2438028860005943 0.467513434294089 0.4333170493404983
0.24402621500030364 0.46262823644357587 0.42940889106008795
0.24427795200062974 0.45481191988275516 0.4284318514899854
0.24451426200084825 0.44992672203224227 0.42256961406936977
0.24475105500005157 0.44699560332193444 0.4186614557889594
0.24499112500052433 0.44211040547142155 0.4157303370786516
0.24521586100036075 0.441133365901319 0.41475329750854906
0.2454485800008115 0.44211040547142155 0.4176844162188569
0.24567987200043717 0.441133365901319 0.42159257449926724
0.2459256460006145 0.4430874450415241 0.42256961406936977
0.2461534379999648 0.4450415241817294 0.4255007327796776
0.24640154500048084 0.44992672203224227 0.4235466536394723
0.24660796700027277 0.44894968246213973 0.4284318514899854
0.24680251900008443 0.4509037616023448 0.431362970200293
0.24700305300029868 0.4538348803126526 0.4352711284807034
0.24720093800078757 0.4538348803126526 0.4352711284807034
0.2473994540005151 0.45188080117244755 0.43624816805080613
0.24759515400000964 0.44992672203224227 0.4382022471910112
0.24785213100039982 0.44992672203224227 0.43917928676111373
0.24808509000013146 0.45188080117244755 0.4382022471910112
0.24830319700049586 0.4509037616023448 0.43624816805080613
0.248523156000374 0.44894968246213973 0.4352711284807034
0.24871744900065096 0.4479726428920372 0.4382022471910112
0.2489114280006106 0.4450415241817294 0.441133365901319
0.2491041650000625 0.4430874450415241 0.4450415241817294
0.24929421700016974 0.441133365901319 0.4509037616023448
0.24948388100074226 0.44406448461162684 0.45676599902296044
0.2496837480002796 0.4450415241817294 0.457743038593063
0.2498909480000293 0.4509037616023448 0.4587200781631655
0.2501478510002926 0.4509037616023448 0.4538348803126526
0.250374773000658 0.44992672203224227 0.4528578407425501
0.2505719550008507 0.45188080117244755 0.45676599902296044
0.25079774700043345 0.4528578407425501 0.45969711773326827
0.25101670599997306 0.457743038593063 0.45969711773326827
0.2512105920004615 0.45481191988275516 0.4606741573033708
0.251433458000065 0.457743038593063 0.4587200781631655
0.2516719909999665 0.45481191988275516 0.4587200781631655
0.251903580000544 0.4538348803126526 0.457743038593063
0.25212353900042217 0.45188080117244755 0.45676599902296044
0.252332387000024 0.44699560332193444 0.4587200781631655
0.2525514760000078 0.44699560332193444 0.457743038593063
0.25277843500043673 0.4450415241817294 0.4538348803126526
0.25300419100040017 0.441133365901319 0.4557889594528579
0.2532201870008066 0.441133365901319 0.4538348803126526
0.25344262800081196 0.4430874450415241 0.4538348803126526
0.2536709380001412 0.43917928676111373 0.44894968246213973
0.25391380500059313 0.441133365901319 0.44894968246213973
0.2542026890005218 0.44406448461162684 0.4528578407425501
0.25446531400029926 0.4430874450415241 0.4606741573033708
0.25470123600007355 0.4430874450415241 0.46458231558378116
0.25492545400084055 0.4450415241817294 0.4665363947239862
0.25514343200029543 0.4460185637518319 0.4704445530043966
0.25535952000063844 0.4460185637518319 0.4733756717147044
0.25556472100015526 0.4479726428920372 0.47435271128480694
0.2558383089999552 0.4538348803126526 0.47923790913532005
0.2560413420005716 0.45481191988275516 0.47728382999511476
0.25624993100063875 0.457743038593063 0.47728382999511476
0.2564597420005157 0.45969711773326827 0.4684904738641915
0.25665748000028543 0.45676599902296044 0.4606741573033708
0.25687319799999386 0.45481191988275516 0.46262823644357587
0.25708382400080154 0.45481191988275516 0.457743038593063
0.257289765000678 0.457743038593063 0.45481191988275516
0.25750692800011166 0.45969711773326827 0.45481191988275516
0.2577262390004762 0.45969711773326827 0.4665363947239862
0.25792892100071185 0.46262823644357587 0.4606741573033708
0.25813839900001767 0.4606741573033708 0.4606741573033708
0.2583303400006116 0.4655593551538837 0.46262823644357587
0.2585191330008456 0.46458231558378116 0.4636052760136786
0.2587655180004731 0.46262823644357587 0.4587200781631655
0.2589537370004109 0.46262823644357587 0.45481191988275516
0.2591420480002853 0.46262823644357587 0.4509037616023448
0.2593312300004982 0.4606741573033708 0.4509037616023448
0.2595188750001398 0.4587200781631655 0.4557889594528579
0.25970626100024674 0.4606741573033708 0.45188080117244755
0.2598942390004595 0.4606741573033708 0.45676599902296044
0.26008131000071444 0.46165119687347334 0.45969711773326827
0.2602685290003137 0.4606741573033708 0.46165119687347334
0.2604575630002728 0.46262823644357587 0.46262823644357587
0.2606455220002317 0.4655593551538837 0.46262823644357587
0.26083609300076205 0.4636052760136786 0.4636052760136786
0.2610235530000864 0.4587200781631655 0.4655593551538837
0.26121077200059517 0.46262823644357587 0.46458231558378116
0.2613983430001099 0.4587200781631655 0.4704445530043966
0.2615863580003861 0.4606741573033708 0.4704445530043966
0.2617737990003661 0.45676599902296044 0.4733756717147044
0.2619616850006423 0.4587200781631655 0.4636052760136786
0.26215108900032646 0.4606741573033708 0.45676599902296044
0.26233941900045465 0.4538348803126526 0.45481191988275516
0.2625272490004136 0.4538348803126526 0.45188080117244755
0.2627147460007109 0.45188080117244755 0.44992672203224227
0.26290207600050053 0.45481191988275516 0.4538348803126526
0.2630896650007344 0.4509037616023448 0.4538348803126526
0.26331116200071847 0.4538348803126526 0.45481191988275516
0.26349910299995827 0.45676599902296044 0.45969711773326827
0.2636868220006363 0.46165119687347334 0.4557889594528579
0.2638759850005954 0.4528578407425501 0.4528578407425501
0.2641099070006021 0.4538348803126526 0.44992672203224227
0.2643003110006248 0.45188080117244755 0.4450415241817294
0.26448980800068966 0.4509037616023448 0.441133365901319
0.26467741600026784 0.44699560332193444 0.43917928676111373
0.2648655980001422 0.44894968246213973 0.43624816805080613
0.2650540210006511 0.44992672203224227 0.42745481191988266
0.26524144300037733 0.441133365901319 0.42256961406936977
0.26542882900048426 0.441133365901319 0.41963849535906195
0.265616399999999 0.44406448461162684 0.42452369320957506
0.26580463700065593 0.4460185637518319 0.4264777723497801
0.26599252300002263 0.44699560332193444 0.43429408891060084
0.26620000100047037 0.4538348803126526 0.44211040547142155
0.266387960999964 0.4509037616023448 0.4430874450415241
0.266576124000494 0.45188080117244755 0.44992672203224227
0.26676395400045294 0.4509037616023448 0.4509037616023448
0.26695126600043295 0.44406448461162684 0.44992672203224227
0.26713887400001113 0.4430874450415241 0.4479726428920372
0.26732657400043536 0.4382022471910112 0.44406448461162684
0.2675143120004577 0.4333170493404983 0.43917928676111373
0.26770364200001495 0.4303859306301905 0.43722520762090866
0.26789139800075645 0.4284318514899854 0.4352711284807034
0.2680851170007372 0.42745481191988266 0.4323400097703958
0.26829609500055085 0.4235466536394723 0.43429408891060084
0.26850418400044873 0.42452369320957506 0.4382022471910112
0.268704254000113 0.4264777723497801 0.43917928676111373
0.26894515700041666 0.4284318514899854 0.44406448461162684
0.26913583900022786 0.4352711284807034 0.4450415241817294
0.26932305800073664 0.431362970200293 0.4479726428920372
0.2695111850007379 0.4323400097703958 0.44992672203224227
0.26969942200048536 0.4323400097703958 0.44992672203224227
0.269887345000825 0.43429408891060084 0.44699560332193444
0.2700756200001706 0.4323400097703958 0.4430874450415241
0.2702861710004072 0.4284318514899854 0.44406448461162684
0.2704734830003872 0.4352711284807034 0.44699560332193444
0.2706622020004943 0.4284318514899854 0.441133365901319
0.27085677300055977 0.4284318514899854 0.441133365901319
0.2710538430001179 0.42745481191988266 0.43722520762090866
0.2712571730007767 0.42940889106008795 0.4352711284807034
0.27145409600052517 0.4401563263312165 0.43624816805080613
0.2716536480002105 0.43917928676111373 0.43429408891060084
0.2718542000002344 0.44406448461162684 0.43624816805080613
0.27205886299998383 0.4460185637518319 0.43917928676111373
0.2723433400005888 0.4557889594528579 0.4450415241817294
0.2725479290002113 0.45969711773326827 0.4509037616023448
0.2727468510001927 0.467513434294089 0.45676599902296044
0.27294662600070296 0.47142159257449934 0.46458231558378116
0.2731435670002611 0.47435271128480694 0.47142159257449934
0.27334928500022215 0.47435271128480694 0.4733756717147044
0.2735715960006928 0.47435271128480694 0.4733756717147044
0.27379774100063514 0.4733756717147044 0.4684904738641915
0.27401092200034327 0.4684904738641915 0.4665363947239862
0.2742906210005458 0.46262823644357587 0.46262823644357587
0.2744980810002744 0.4557889594528579 0.4606741573033708
0.2746918740003821 0.4509037616023448 0.45676599902296044
0.2748932770000465 0.4460185637518319 0.45676599902296044
0.27509844100040937 0.4450415241817294 0.4587200781631655
0.27529834500001016 0.43917928676111373 0.45969711773326827
0.2754965080002876 0.44211040547142155 0.46262823644357587
0.2756961710001633 0.4382022471910112 0.4684904738641915
0.27589820499997586 0.4450415241817294 0.4684904738641915
0.276105923000614 0.441133365901319 0.467513434294089
0.2763084570005958 0.441133365901319 0.4665363947239862
0.2765196200007267 0.4401563263312165 0.46458231558378116
0.2768596700007038 0.4401563263312165 0.46458231558378116
0.2771263690001433 0.44406448461162684 0.46458231558378116
0.27737382700070157 0.44699560332193444 0.47239863214460187
0.27761612000085734 0.44992672203224227 0.4753297508549097
0.27784476400029234 0.4538348803126526 0.47239863214460187
0.27814083300017955 0.457743038593063 0.46946751343429405
0.2784112360004656 0.4606741573033708 0.4655593551538837
0.2786602870000934 0.46262823644357587 0.46262823644357587
0.2789060230006726 0.4636052760136786 0.45676599902296044
0.2791540010002791 0.467513434294089 0.45481191988275516
0.2793695520003894 0.467513434294089 0.457743038593063
0.2795940670002892 0.47435271128480694 0.46262823644357587
0.2798318780005502 0.4733756717147044 0.467513434294089
0.28010307700060366 0.4733756717147044 0.47142159257449934
0.28036162800071907 0.4704445530043966 0.47142159257449934
0.28065071600030933 0.46946751343429405 0.46262823644357587
0.2810027840005205 0.46946751343429405 0.4538348803126526
0.2813524260000122 0.4665363947239862 0.44894968246213973
0.28164592100074515 0.467513434294089 0.44699560332193444
0.281877379999969 0.4684904738641915 0.44992672203224227
0.282173041000533 0.4655593551538837 0.45188080117244755
0.2824378520008395 0.4665363947239862 0.45188080117244755
0.28266581100069743 0.47239863214460187 0.4528578407425501
0.2828553440003816 0.47142159257449934 0.4509037616023448
0.2830429890000232 0.46946751343429405 0.45188080117244755
0.2832310050007436 0.47239863214460187 0.44992672203224227
0.2834189270006391 0.467513434294089 0.44992672203224227
0.2836067020007249 0.467513434294089 0.4479726428920372
0.2837949580007262 0.4665363947239862 0.4450415241817294
0.2839829730000929 0.46458231558378116 0.4450415241817294
0.28417330299998866 0.46458231558378116 0.4450415241817294
0.2843608930006667 0.467513434294089 0.44211040547142155
0.2845490930003507 0.4655593551538837 0.4430874450415241
0.28473727500022505 0.4655593551538837 0.4450415241817294
0.2849251980005647 0.467513434294089 0.4382022471910112
0.28511338000043907 0.46165119687347334 0.44211040547142155
0.28530113600027107 0.46262823644357587 0.4401563263312165
0.28548913200029347 0.457743038593063 0.4460185637518319
0.28570314700027666 0.4538348803126526 0.4460185637518319
0.2858917740004472 0.45188080117244755 0.4479726428920372
0.28607969600034266 0.45188080117244755 0.4479726428920372
0.28630248900026345 0.4509037616023448 0.4450415241817294
0.28648991200043383 0.4509037616023448 0.44406448461162684
0.2866777790004562 0.4509037616023448 0.441133365901319
0.28686607200052094 0.4509037616023448 0.4382022471910112
0.28705429100045876 0.44992672203224227 0.4382022471910112
0.28724658400005865 0.45676599902296044 0.4333170493404983
0.287435488000483 0.4528578407425501 0.42940889106008795
0.2876240770001459 0.44894968246213973 0.4255007327796776
0.2878119440001683 0.44699560332193444 0.42452369320957506
0.2879990710007405 0.44992672203224227 0.42159257449926724
0.2881877710005938 0.44894968246213973 0.42452369320957506
0.28837563800061616 0.44699560332193444 0.42452369320957506
0.28856363500017324 0.44992672203224227 0.42452369320957506
0.2887519650003014 0.44699560332193444 0.42745481191988266
0.2889443140002186 0.4509037616023448 0.4303859306301905
0.28913319900038914 0.45481191988275516 0.4255007327796776
0.2893205670006864 0.44894968246213973 0.4284318514899854
0.28951021200009563 0.45188080117244755 0.4323400097703958
0.2897082080007749 0.4450415241817294 0.431362970200293
0.28991613000016514 0.44406448461162684 0.4323400097703958
0.29015753400017275 0.4382022471910112 0.4333170493404983
0.2903659380008321 0.4382022471910112 0.441133365901319
0.2905719340005817 0.441133365901319 0.4450415241817294
0.2908032080003977 0.44211040547142155 0.4460185637518319
0.2910063710005488 0.44211040547142155 0.44894968246213973
0.29119544200057135 0.4401563263312165 0.4557889594528579
0.2913834390001284 0.43917928676111373 0.4528578407425501
0.291572009000447 0.4401563263312165 0.45969711773326827
0.2917599880001944 0.4401563263312165 0.46262823644357587
0.29194937300053425 0.44211040547142155 0.4655593551538837
0.2921375000005355 0.43917928676111373 0.46946751343429405
0.2923286450004525 0.4401563263312165 0.47142159257449934
0.2925167520006653 0.441133365901319 0.4733756717147044
0.2927051200003916 0.4382022471910112 0.4733756717147044
0.29289269000037166 0.43917928676111373 0.47435271128480694
0.2930802800001402 0.43722520762090866 0.47239863214460187
0.29326814700016257 0.4382022471910112 0.4733756717147044
0.2934560700005022 0.4352711284807034 0.47435271128480694
0.2936460110004191 0.4382022471910112 0.4811919882755251
0.29383380400031456 0.4382022471910112 0.47728382999511476
0.29402215300069656 0.4460185637518319 0.47239863214460187
0.29421468600048684 0.441133365901319 0.4753297508549097
0.29440257200076303 0.4450415241817294 0.47239863214460187
0.29458988400074304 0.4479726428920372 0.47142159257449934
0.2947778060006385 0.44699560332193444 0.4704445530043966
0.2949667290004072 0.44699560332193444 0.467513434294089
0.29515541100045084 0.44894968246213973 0.46458231558378116
0.2953484820000085 0.44894968246213973 0.4655593551538837
0.29553916300028504 0.44894968246213973 0.46262823644357587
0.29572725300022285 0.45676599902296044 0.46165119687347334
0.2959151009999914 0.4538348803126526 0.46458231558378116
0.29610354300075414 0.45481191988275516 0.46262823644357587
0.2962911880003958 0.45969711773326827 0.4655593551538837
0.29647885100075655 0.45676599902296044 0.4636052760136786
0.2966661810005462 0.45969711773326827 0.46262823644357587
0.29685345600046276 0.45969711773326827 0.4655593551538837
0.2970410269999775 0.46165119687347334 0.467513434294089
0.2972281340007612 0.4587200781631655 0.46165119687347334
0.29741637200004334 0.457743038593063 0.46458231558378116
0.2976040350004041 0.457743038593063 0.45969711773326827
0.2977918470005534 0.457743038593063 0.45676599902296044
0.297979936000047 0.4538348803126526 0.457743038593063
0.29820250700049655 0.4528578407425501 0.45481191988275516
0.2983899110004131 0.4538348803126526 0.45481191988275516
0.2985770000004777 0.4538348803126526 0.44699560332193444
0.29876547800085973 0.4528578407425501 0.4450415241817294
0.29896441900018544 0.45188080117244755 0.4401563263312165
0.2991533790000176 0.45481191988275516 0.43722520762090866
0.2993410610006322 0.44699560332193444 0.43429408891060084
0.29952892800065456 0.44699560332193444 0.42745481191988266
0.29971753600057127 0.44406448461162684 0.42745481191988266
0.2999087550006152 0.44894968246213973 0.42256961406936977
0.30009797399998206 0.4479726428920372 0.42452369320957506
0.30028676700021606 0.44894968246213973 0.4284318514899854
0.3004750600002808 0.45188080117244755 0.431362970200293
0.3006631500002186 0.4557889594528579 0.4352711284807034
0.300851146000241 0.4528578407425501 0.4333170493404983
0.3010388280008556 0.45969711773326827 0.44211040547142155
0.301226936000603 0.457743038593063 0.441133365901319
0.3014186550008162 0.4538348803126526 0.4450415241817294
0.30162287400071364 0.4528578407425501 0.44894968246213973
0.30182837000029394 0.4528578407425501 0.44894968246213973
0.3020174600005703 0.45188080117244755 0.44894968246213973
0.302232326000194 0.45188080117244755 0.4557889594528579
0.30242063800051255 0.45188080117244755 0.4528578407425501
0.3026080420004291 0.4450415241817294 0.44699560332193444
0.30279561300085334 0.4479726428920372 0.45188080117244755
0.3030050540000957 0.44699560332193444 0.4430874450415241
0.30319301300005463 0.4479726428920372 0.4460185637518319
0.3033823810001195 0.4450415241817294 0.4450415241817294
0.303570137000861 0.44992672203224227 0.4450415241817294
0.3037576890001219 0.4538348803126526 0.44894968246213973
0.3039467970002079 0.44894968246213973 0.45188080117244755
0.30415727500076173 0.4509037616023448 0.4538348803126526
0.30434953100029816 0.44992672203224227 0.457743038593063
0.30454599000040616 0.4538348803126526 0.457743038593063
0.30474804200002836 0.44992672203224227 0.457743038593063
0.30495022400009475 0.44894968246213973 0.4538348803126526
0.3051429430006465 0.44699560332193444 0.44992672203224227
0.30534705100035353 0.45188080117244755 0.44699560332193444
0.3055460840005253 0.44992672203224227 0.44894968246213973
0.3057994320006401 0.45188080117244755 0.45188080117244755
0.3060389460006263 0.45188080117244755 0.45676599902296044
0.3063017190006576 0.4509037616023448 0.457743038593063
0.3065525110005183 0.44992672203224227 0.45188080117244755
0.3067968960003782 0.4460185637518319 0.4479726428920372
0.3070332990000679 0.44992672203224227 0.4430874450415241
0.3072496470003898 0.4479726428920372 0.4382022471910112
0.30747642100050143 0.4509037616023448 0.4333170493404983
0.30767841800025053 0.44992672203224227 0.43429408891060084
0.30787645200052793 0.4538348803126526 0.43624816805080613
0.3080745780007419 0.45481191988275516 0.4450415241817294
0.30828085200028 0.457743038593063 0.4401563263312165
0.30851875500047754 0.4587200781631655 0.4460185637518319
0.30876823300059186 0.4538348803126526 0.44406448461162684
0.30899959900034446 0.45481191988275516 0.441133365901319
0.3092272250005408 0.4509037616023448 0.4460185637518319
0.3094611470005475 0.44992672203224227 0.4450415241817294
0.3096823089999816 0.45676599902296044 0.44894968246213973
0.3098866580003232 0.4528578407425501 0.44894968246213973
0.3101131540006463 0.44992672203224227 0.45676599902296044
0.3103514090007593 0.4538348803126526 0.45969711773326827
0.31058288700023695 0.4528578407425501 0.46165119687347334
0.3108508820005227 0.4557889594528579 0.467513434294089
0.3111410250003246 0.4538348803126526 0.46946751343429405
0.31139759500001674 0.45481191988275516 0.47142159257449934
0.31158931400022993 0.457743038593063 0.47142159257449934
0.31177751400082343 0.457743038593063 0.4753297508549097
0.3119654179999998 0.4587200781631655 0.4763067904250122
0.3121565820001706 0.46458231558378116 0.4665363947239862
0.3123449860004257 0.4655593551538837 0.4636052760136786
0.31253483399996185 0.46165119687347334 0.45969711773326827
0.3127222200000688 0.4636052760136786 0.45969711773326827
0.3129103840001335 0.46458231558378116 0.4538348803126526
0.31309880600019824 0.46165119687347334 0.4538348803126526
0.3132866180003475 0.4587200781631655 0.4538348803126526
0.3134744290000526 0.4587200781631655 0.4538348803126526
0.313662574000773 0.45969711773326827 0.45188080117244755
0.31387733000065055 0.4587200781631655 0.44894968246213973
0.3140673820007578 0.45969711773326827 0.4460185637518319
0.3143130820008082 0.4538348803126526 0.44211040547142155
0.31450104100076715 0.45676599902296044 0.4430874450415241
0.31468872300047224 0.45188080117244755 0.4430874450415241
0.3149029600008362 0.4538348803126526 0.441133365901319
0.3150937160007743 0.45481191988275516 0.441133365901319
0.31528171300033137 0.44992672203224227 0.44699560332193444
0.3154698210000788 0.4479726428920372 0.43917928676111373
0.31565767000029155 0.4450415241817294 0.43624816805080613
0.3158466110007794 0.4430874450415241 0.43429408891060084
0.3160341630000403 0.44406448461162684 0.4352711284807034
0.31622273400080303 0.441133365901319 0.43624816805080613
0.3164570630005983 0.44211040547142155 0.43722520762090866
0.3166478190005364 0.44406448461162684 0.4430874450415241
0.31683579800028383 0.44406448461162684 0.44699560332193444
0.31702360899998894 0.441133365901319 0.45188080117244755
0.3172115130000748 0.44699560332193444 0.4557889594528579
0.3173993810005413 0.4460185637518319 0.4606741573033708
0.3175969330004591 0.44894968246213973 0.4655593551538837
0.3177880030007145 0.44894968246213973 0.46946751343429405
0.3179758710002716 0.44992672203224227 0.47435271128480694
0.3182074590004049 0.44992672203224227 0.4763067904250122
0.3183961970007658 0.44699560332193444 0.4763067904250122
0.3185843420005767 0.4479726428920372 0.4811919882755251
0.3187722640004722 0.44699560332193444 0.47239863214460187
0.3189599650004311 0.4479726428920372 0.47728382999511476
0.31914831300036894 0.44699560332193444 0.4753297508549097
0.3193362920001164 0.4460185637518319 0.467513434294089
0.3195248250003715 0.45188080117244755 0.467513434294089
0.31971261900071113 0.4479726428920372 0.4655593551538837
0.31990037500054314 0.4450415241817294 0.45969711773326827
0.3200881680004386 0.44406448461162684 0.4528578407425501
0.32027681300041877 0.4382022471910112 0.4509037616023448
0.32046525400073733 0.4352711284807034 0.4479726428920372
0.32065686200076016 0.4333170493404983 0.44699560332193444
0.3208452290000423 0.43429408891060084 0.4479726428920372
0.3210325770005511 0.4333170493404983 0.4430874450415241
0.32122027800051 0.43429408891060084 0.44699560332193444
0.3214076450003631 0.43722520762090866 0.4450415241817294
0.3215955860005124 0.4382022471910112 0.4460185637518319
0.3217830640005559 0.4460185637518319 0.44406448461162684
0.3219909870003903 0.44699560332193444 0.44406448461162684
0.32219333500052016 0.45188080117244755 0.4460185637518319
0.32238883200079727 0.45676599902296044 0.44992672203224227
0.3225920690001658 0.45676599902296044 0.4509037616023448
0.3227989360002539 0.46262823644357587 0.45676599902296044
0.32300552500055346 0.4665363947239862 0.45969711773326827
0.3231998549999844 0.467513434294089 0.457743038593063
0.32338901800085296 0.4704445530043966 0.4538348803126526
0.32357892200070637 0.4704445530043966 0.4450415241817294
0.3237665860006018 0.4665363947239862 0.44406448461162684
0.32395573100075126 0.46458231558378116 0.44992672203224227
0.3241433200000756 0.4606741573033708 0.4460185637518319
0.3243325580006058 0.45676599902296044 0.4479726428920372
0.3245211660005225 0.45676599902296044 0.4528578407425501
0.3247427910000624 0.4557889594528579 0.457743038593063
0.3249313070000426 0.4538348803126526 0.457743038593063
0.3251189330003399 0.4509037616023448 0.4528578407425501
0.3253124850007225 0.4509037616023448 0.4479726428920372
0.32550266700036445 0.44992672203224227 0.44992672203224227
0.32569107100061956 0.4528578407425501 0.44992672203224227
0.32588064200081135 0.44992672203224227 0.44406448461162684
0.326068287000453 0.4460185637518319 0.43917928676111373
0.32629119100056414 0.4460185637518319 0.43429408891060084
0.3264793540001847 0.4460185637518319 0.42940889106008795
0.3266664810007569 0.44406448461162684 0.4264777723497801
0.3268548850001025 0.4430874450415241 0.42745481191988266
0.32704364100027306 0.4430874450415241 0.42256961406936977
0.32723121200069727 0.44406448461162684 0.4264777723497801
0.3274177450002753 0.4430874450415241 0.4235466536394723
0.32760448299995915 0.44406448461162684 0.4303859306301905
0.32779198000025644 0.44699560332193444 0.4352711284807034
0.3279802170000039 0.44699560332193444 0.43624816805080613
0.32816806600021664 0.45676599902296044 0.441133365901319
0.32835674800026027 0.4479726428920372 0.44211040547142155
0.32855872600066505 0.4509037616023448 0.44406448461162684
0.3287485190003281 0.45188080117244755 0.44992672203224227
0.32893618200068886 0.44894968246213973 0.44699560332193444
0.32912404900071124 0.44894968246213973 0.44992672203224227
0.3293113980007547 0.44992672203224227 0.457743038593063
0.3294993580002483 0.44894968246213973 0.45676599902296044
0.3296869470004822 0.45188080117244755 0.45969711773326827
0.32987416600008146 0.4509037616023448 0.4587200781631655
0.33006242200008273 0.44894968246213973 0.45969711773326827
0.33025401100076124 0.44699560332193444 0.4587200781631655
0.33044158200027596 0.4479726428920372 0.45969711773326827
0.3306300240001292 0.44992672203224227 0.457743038593063
0.33081878000029974 0.44406448461162684 0.4587200781631655
0.33100666500013176 0.44406448461162684 0.46165119687347334
0.33119416200042906 0.44699560332193444 0.4665363947239862
0.33138125100049365 0.44211040547142155 0.4733756717147044
0.33156939600030455 0.4430874450415241 0.4704445530043966
0.33178752200001327 0.4460185637518319 0.467513434294089
0.33197676000054344 0.4460185637518319 0.46458231558378116
0.3321648310002274 0.4460185637518319 0.45969711773326827
0.33235186399997474 0.44211040547142155 0.4606741573033708
0.3325394910007162 0.441133365901319 0.44894968246213973
0.3327370980005071 0.4382022471910112 0.4450415241817294
0.3329248730005929 0.43722520762090866 0.4401563263312165
0.33311283300008654 0.43917928676111373 0.4323400097703958
0.33330045900038385 0.43722520762090866 0.4303859306301905
0.33348821500021586 0.43917928676111373 0.42940889106008795
0.33367610100049205 0.4430874450415241 0.4264777723497801
0.33386528300070495 0.4430874450415241 0.4255007327796776
0.33405296500041004 0.44406448461162684 0.42745481191988266
0.3342430910006442 0.4460185637518319 0.431362970200293
0.33443153200005327 0.44894968246213973 0.4382022471910112
0.33461934400020255 0.45188080117244755 0.43917928676111373
0.33480743300060567 0.457743038593063 0.4479726428920372
0.3350117820000378 0.457743038593063 0.45188080117244755
0.33521829700021044 0.457743038593063 0.4557889594528579
0.3354072010006348 0.45969711773326827 0.4587200781631655
0.3355956420000439 0.45481191988275516 0.4606741573033708
0.33578343500084884 0.45481191988275516 0.4655593551538837
0.3359718950005117 0.4528578407425501 0.46946751343429405
0.33616089099996316 0.4528578407425501 0.4704445530043966
0.3363825540000107 0.44894968246213973 0.4753297508549097
0.3365724580007736 0.44992672203224227 0.47435271128480694
0.3367626220006059 0.4430874450415241 0.4763067904250122
0.3369509520007341 0.4430874450415241 0.47239863214460187
0.33713937500033353 0.441133365901319 0.4665363947239862
0.33732822300044063 0.43917928676111373 0.4684904738641915
0.3375313120004648 0.43722520762090866 0.46946751343429405
0.33772642000076303 0.43624816805080613 0.4704445530043966
0.33792563900078676 0.43917928676111373 0.47239863214460187
0.3381617830000323 0.43429408891060084 0.47435271128480694
0.3383694460007973 0.4333170493404983 0.47239863214460187
0.33856872000069416 0.43722520762090866 0.4733756717147044
0.33876416200018866 0.441133365901319 0.46946751343429405
0.33897926900044695 0.44211040547142155 0.4753297508549097
0.33918380300019635 0.43917928676111373 0.46262823644357587
0.33938202100034687 0.44211040547142155 0.467513434294089
0.3395895180001389 0.44211040547142155 0.4606741573033708
0.3397868660003951 0.44211040547142155 0.46262823644357587
0.3399823630006722 0.44699560332193444 0.45969711773326827
0.3401788410001245 0.44894968246213973 0.457743038593063
0.3403923930000019 0.4538348803126526 0.45481191988275516
0.34060890800083143 0.4528578407425501 0.44992672203224227
0.34109956600059377 0.45676599902296044 0.45188080117244755
0.3414149489999545 0.45676599902296044 0.4509037616023448
0.34163379700021324 0.4606741573033708 0.4557889594528579
0.3418360160003431 0.46165119687347334 0.45188080117244755
0.3420344020005359 0.4655593551538837 0.4509037616023448
0.34224426800028596 0.4665363947239862 0.4509037616023448
0.3424456350003311 0.4655593551538837 0.44992672203224227
0.3426616130000184 0.46458231558378116 0.45188080117244755
0.3428651650001484 0.4665363947239862 0.45188080117244755
0.34310853100032546 0.4636052760136786 0.4509037616023448
0.3433526010003334 0.4665363947239862 0.4509037616023448
0.3435847820001072 0.457743038593063 0.4430874450415241
0.34383600000001024 0.45481191988275516 0.43429408891060084
0.34407897800065257 0.4557889594528579 0.42256961406936977
0.3443761020007514 0.45188080117244755 0.42256961406936977
0.3446644310006377 0.45676599902296044 0.42452369320957506
0.34488835299998755 0.4538348803126526 0.4264777723497801
0.34508877500047674 0.457743038593063 0.4284318514899854
0.3452899380008603 0.457743038593063 0.4303859306301905
0.34548684200035495 0.4606741573033708 0.431362970200293
0.34569695000027423 0.46458231558378116 0.4352711284807034
0.3459115940004267 0.4587200781631655 0.43429408891060084
0.3461743120005849 0.4557889594528579 0.43429408891060084
0.34641391900004237 0.45676599902296044 0.43429408891060084
0.34663156300030096 0.45969711773326827 0.43917928676111373
0.3468202080002811 0.457743038593063 0.43917928676111373
0.3470076870007688 0.4538348803126526 0.44211040547142155
0.34719710900026257 0.4606741573033708 0.44211040547142155
0.34738531000039075 0.45969711773326827 0.4401563263312165
0.34757430700028635 0.46262823644357587 0.441133365901319
0.34776230300030875 0.4587200781631655 0.44406448461162684
0.34795044800011965 0.4587200781631655 0.44211040547142155
0.3481384260003324 0.457743038593063 0.441133365901319
0.3483263120006086 0.4528578407425501 0.441133365901319
0.34851664200050436 0.45188080117244755 0.4430874450415241
0.34870452800078056 0.4509037616023448 0.4430874450415241
0.34889233900048566 0.44992672203224227 0.44699560332193444
0.3490810210005293 0.4460185637518319 0.45188080117244755
0.3492687770003613 0.4450415241817294 0.4538348803126526
0.34945670000070095 0.44699560332193444 0.4538348803126526
0.3496442340001522 0.4430874450415241 0.4606741573033708
0.34983162000025914 0.43917928676111373 0.4655593551538837
0.3500190050008314 0.4401563263312165 0.46946751343429405
0.3502142060006008 0.4450415241817294 0.46946751343429405
0.3504351650008175 0.44406448461162684 0.46946751343429405
0.3506234210008188 0.44699560332193444 0.47142159257449934
0.3508206770002289 0.4460185637518319 0.46946751343429405
0.35101156200016703 0.44699560332193444 0.4684904738641915
0.35120024400021066 0.44406448461162684 0.46946751343429405
0.35138818500035995 0.4460185637518319 0.46946751343429405
0.3515762380002343 0.44894968246213973 0.4655593551538837
0.35176421600044705 0.44406448461162684 0.4665363947239862
0.3519519540004694 0.4450415241817294 0.46458231558378116
0.3521402100004707 0.4460185637518319 0.46165119687347334
0.3523280400004296 0.4450415241817294 0.45676599902296044
0.3525154990002193 0.4460185637518319 0.4528578407425501
0.35270318100083387 0.4460185637518319 0.45188080117244755
0.35289047400056006 0.4479726428920372 0.4450415241817294
0.35307828600070934 0.4460185637518319 0.441133365901319
0.35326585700022406 0.44406448461162684 0.43917928676111373
0.3534535759999926 0.4450415241817294 0.42940889106008795
0.353642036000565 0.4450415241817294 0.4284318514899854
0.35383112500039715 0.44699560332193444 0.4303859306301905
0.3540540290005083 0.4450415241817294 0.4303859306301905
0.3542643950004276 0.4479726428920372 0.4323400097703958
0.3544620960001339 0.44406448461162684 0.4303859306301905
0.35465070300051593 0.44406448461162684 0.4323400097703958
0.35483979300079227 0.44406448461162684 0.4284318514899854
0.3550277530002859 0.4382022471910112 0.4264777723497801
0.3552164160000757 0.4333170493404983 0.4255007327796776
0.35540467200007697 0.431362970200293 0.4255007327796776
0.35559929800001555 0.431362970200293 0.42745481191988266
0.35581527600061236 0.42940889106008795 0.42940889106008795
0.35602323500006605 0.4284318514899854 0.4333170493404983
0.3562297690004925 0.42940889106008795 0.44211040547142155
0.35643585800062283 0.43429408891060084 0.43917928676111373
0.3566271690006033 0.4333170493404983 0.44699560332193444
0.3568158880007104 0.43917928676111373 0.4528578407425501
0.3570044220005002 0.441133365901319 0.4636052760136786
0.35719232600058604 0.44406448461162684 0.46262823644357587
0.35738036000020657 0.441133365901319 0.47142159257449934
0.35756876400046167 0.4479726428920372 0.47923790913532005
0.3577572800004418 0.45188080117244755 0.4753297508549097
0.3579455360004431 0.4509037616023448 0.47728382999511476
0.3581525320005312 0.45188080117244755 0.4763067904250122
0.3583474360002583 0.45188080117244755 0.47239863214460187
0.358536359000027 0.45188080117244755 0.4665363947239862
0.3587568740003917 0.4557889594528579 0.467513434294089
0.3589475370008586 0.45676599902296044 0.4655593551538837
0.3591363490004369 0.4606741573033708 0.4606741573033708
0.3593259380004383 0.46262823644357587 0.45969711773326827
0.35951389800084144 0.46458231558378116 0.46262823644357587
0.3597016910007369 0.4655593551538837 0.4665363947239862
0.35988946500037855 0.467513434294089 0.4684904738641915
0.3600774989999991 0.4704445530043966 0.4704445530043966
0.3602653850002753 0.47239863214460187 0.4753297508549097
0.3604534740006784 0.4704445530043966 0.47728382999511476
0.36064178600008745 0.47142159257449934 0.4733756717147044
0.3608297640003002 0.4684904738641915 0.47142159257449934
0.3610175760004495 0.46946751343429405 0.4684904738641915
0.3612050720003026 0.467513434294089 0.467513434294089
0.36139255100079026 0.4665363947239862 0.46458231558378116
0.3615798810005799 0.4655593551538837 0.46262823644357587
0.36176765500022157 0.46458231558378116 0.4606741573033708
0.3619557820002228 0.4753297508549097 0.46165119687347334
0.36218144400027086 0.46458231558378116 0.457743038593063
0.36237271900063206 0.467513434294089 0.4538348803126526
0.3625608080001257 0.4655593551538837 0.45676599902296044
0.3627483790005499 0.4606741573033708 0.4538348803126526
0.36293589400065684 0.45676599902296044 0.4557889594528579
0.36312398400059465 0.4538348803126526 0.4538348803126526
0.3633120730000883 0.45188080117244755 0.4557889594528579
0.3634999770001741 0.45188080117244755 0.44992672203224227
0.36368819600011193 0.44992672203224227 0.4528578407425501
0.36387617500076885 0.4509037616023448 0.44894968246213973
0.36406359700049507 0.4538348803126526 0.4479726428920372
0.3642515010005809 0.4528578407425501 0.44992672203224227
0.36443896100081474 0.4587200781631655 0.4460185637518319
0.36462736500016035 0.46262823644357587 0.44699560332193444
0.36481488100071147 0.4636052760136786 0.44406448461162684
0.3650026920004166 0.46946751343429405 0.44406448461162684
0.3651910590006082 0.46262823644357587 0.4430874450415241
0.3653789270001653 0.46458231558378116 0.43917928676111373
0.3655667380007799 0.4606741573033708 0.4401563263312165
0.3657537160006541 0.4606741573033708 0.44406448461162684
0.365941102000761 0.4606741573033708 0.44406448461162684
0.3661300800004028 0.4587200781631655 0.44699560332193444
0.3663185590003195 0.45676599902296044 0.4450415241817294
0.3665068330001304 0.4528578407425501 0.4430874450415241
0.36671695900076884 0.44699560332193444 0.4382022471910112
0.3669063080005799 0.44699560332193444 0.4333170493404983
0.3670948600001793 0.4450415241817294 0.4255007327796776
0.36728326400043443 0.43722520762090866 0.42159257449926724
0.3674711500007106 0.431362970200293 0.42745481191988266
0.3676586280007541 0.4323400097703958 0.42940889106008795
0.3678464030008399 0.431362970200293 0.4352711284807034
0.36803345500084106 0.42940889106008795 0.4382022471910112
0.36822121100067307 0.4235466536394723 0.4401563263312165
0.3684335780008041 0.41963849535906195 0.4430874450415241
0.3686230560006152 0.4176844162188569 0.4401563263312165
0.368810831000701 0.42159257449926724 0.4352711284807034
0.36899855000046955 0.4206155349291647 0.43624816805080613
0.3691866389999632 0.41963849535906195 0.43624816805080613
0.36937424700045085 0.4264777723497801 0.43429408891060084
0.36956231800013484 0.42940889106008795 0.4333170493404983
0.3697497220000514 0.4303859306301905 0.43624816805080613
0.3699374590005391 0.4333170493404983 0.43624816805080613
0.370125160000498 0.4401563263312165 0.4401563263312165
0.3703143420007109 0.441133365901319 0.4460185637518319
0.3705034680006065 0.44211040547142155 0.44992672203224227
0.37071698300042044 0.4430874450415241 0.4528578407425501
0.3709134800001266 0.44699560332193444 0.4587200781631655
0.3711116980002771 0.4479726428920372 0.46165119687347334
0.37130706500011 0.45188080117244755 0.46165119687347334
0.3715094510007475 0.45676599902296044 0.46458231558378116
0.371708299000602 0.4557889594528579 0.46458231558378116
0.37191081400033 0.457743038593063 0.4655593551538837
0.3721244590005881 0.4606741573033708 0.4655593551538837
0.3723649730000034 0.46165119687347334 0.46165119687347334
0.3726365060001626 0.4655593551538837 0.4655593551538837
0.37290689000019484 0.46458231558378116 0.46458231558378116
0.3731549410003936 0.4587200781631655 0.4636052760136786
0.37350019400037127 0.4655593551538837 0.46262823644357587
0.37377850400025636 0.4528578407425501 0.4655593551538837
0.37401190800028417 0.45481191988275516 0.4665363947239862
0.37433245800002624 0.45676599902296044 0.4665363947239862
0.3745411019999665 0.4557889594528579 0.4655593551538837
0.37474113600001147 0.4557889594528579 0.46165119687347334
0.37494148400037375 0.4557889594528579 0.45676599902296044
0.3751347590005025 0.45188080117244755 0.45969711773326827
0.37532429300063086 0.45188080117244755 0.46262823644357587
0.3755531780007004 0.45188080117244755 0.46458231558378116
0.3757422860007864 0.4509037616023448 0.46165119687347334
0.3759309490005762 0.4509037616023448 0.46262823644357587
0.3761234460007472 0.4509037616023448 0.45676599902296044
0.37631123900064267 0.44992672203224227 0.46165119687347334
0.37649908700041124 0.4557889594528579 0.46458231558378116
0.37668706600015867 0.44699560332193444 0.4665363947239862
0.37687413599996944 0.44406448461162684 0.4655593551538837
0.3770625410006687 0.4430874450415241 0.4684904738641915
0.37725090800086036 0.441133365901319 0.4684904738641915
0.37743981200037524 0.4401563263312165 0.46946751343429405
0.37762847500016505 0.43917928676111373 0.4704445530043966
0.3778170460000183 0.4401563263312165 0.467513434294089
0.3780046730007598 0.43917928676111373 0.46946751343429405
0.37822994600082893 0.43917928676111373 0.4704445530043966
0.3784192400007669 0.44406448461162684 0.4684904738641915
0.3786084400007894 0.4450415241817294 0.47142159257449934
0.378796844000135 0.4460185637518319 0.4704445530043966
0.3789846370000305 0.4479726428920372 0.4684904738641915
0.3791742080002223 0.44992672203224227 0.4665363947239862
0.3793624460004139 0.44699560332193444 0.4684904738641915
0.3795666270007132 0.45188080117244755 0.46262823644357587
0.3797816240003158 0.45188080117244755 0.457743038593063
0.38002091600083077 0.45188080117244755 0.45188080117244755
0.3802665600005639 0.44992672203224227 0.4538348803126526
0.38049750000027416 0.45188080117244755 0.45188080117244755
0.3807358660005775 0.4557889594528579 0.4528578407425501
0.3809697510005208 0.4538348803126526 0.45969711773326827
0.3811820250002711 0.4587200781631655 0.45676599902296044
0.38138596600038 0.46165119687347334 0.4557889594528579
0.38158800000019255 0.46165119687347334 0.457743038593063
0.3817924960003438 0.4606741573033708 0.4606741573033708
0.3819916780003041 0.45969711773326827 0.45188080117244755
0.3822884690007413 0.4587200781631655 0.4460185637518319
0.3825954460007779 0.4557889594528579 0.4401563263312165
0.3829041070002859 0.45188080117244755 0.4352711284807034
0.3831260660008411 0.4538348803126526 0.4352711284807034
0.3833164150000812 0.45188080117244755 0.4323400097703958
0.3835050229999979 0.45188080117244755 0.43429408891060084
0.3836981670001478 0.4538348803126526 0.4352711284807034
0.38388562700038165 0.4538348803126526 0.4323400097703958
0.3840742720003618 0.4538348803126526 0.43624816805080613
0.3842632690002574 0.45676599902296044 0.4333170493404983
0.38447250600074767 0.4557889594528579 0.43429408891060084
0.38466044699998747 0.45969711773326827 0.4284318514899854
0.38485162899996794 0.46165119687347334 0.4284318514899854
0.3850392920003287 0.46458231558378116 0.4284318514899854
0.3852272890007953 0.46262823644357587 0.4235466536394723
0.38541484200050036 0.46165119687347334 0.4235466536394723
0.38560185700043803 0.457743038593063 0.4235466536394723
0.3857897050002066 0.45481191988275516 0.42159257449926724
0.3859771470006308 0.4538348803126526 0.4264777723497801
0.386197476000234 0.457743038593063 0.4284318514899854
0.3863859170005526 0.45188080117244755 0.4284318514899854
0.38657234000038443 0.45188080117244755 0.4352711284807034
0.3867595780002375 0.4557889594528579 0.4382022471910112
0.3869465930001752 0.4538348803126526 0.43722520762090866
0.3871346640007687 0.45481191988275516 0.441133365901319
0.3873880110004393 0.4538348803126526 0.4430874450415241
0.3875770080003349 0.45188080117244755 0.44211040547142155
0.3877649490004842 0.4509037616023448 0.4450415241817294
0.3879547050000838 0.44894968246213973 0.4479726428920372
0.38814244300010614 0.44894968246213973 0.44894968246213973
0.38833047700063617 0.4460185637518319 0.4528578407425501
0.3885180470006162 0.4479726428920372 0.4655593551538837
0.38870591500017326 0.44894968246213973 0.45969711773326827
0.3888934110000264 0.44894968246213973 0.4606741573033708
0.3890813160005564 0.44992672203224227 0.46262823644357587
0.38926909000019805 0.44894968246213973 0.4636052760136786
0.3894563650001146 0.45188080117244755 0.467513434294089
0.38964336100070796 0.4509037616023448 0.46946751343429405
0.3898308400002861 0.46165119687347334 0.4704445530043966
0.39002037400041445 0.45676599902296044 0.46946751343429405
0.39023262900082045 0.45481191988275516 0.47142159257449934
0.39043579200006207 0.45676599902296044 0.4753297508549097
0.3906710100000055 0.457743038593063 0.47435271128480694
0.3908896730008564 0.4538348803126526 0.4704445530043966
0.39108642900009727 0.45188080117244755 0.47239863214460187
0.3912744819999716 0.45188080117244755 0.46946751343429405
0.39146283000081894 0.44992672203224227 0.4665363947239862
0.3916510310000376 0.44699560332193444 0.4665363947239862
0.3918394720003562 0.44894968246213973 0.467513434294089
0.39202708000084385 0.4479726428920372 0.4665363947239862
0.3922141510001893 0.4479726428920372 0.47142159257449934
0.39240225900084624 0.44992672203224227 0.4665363947239862
0.3926122730008501 0.44894968246213973 0.4733756717147044
0.39281197400032397 0.44699560332193444 0.4684904738641915
0.3930009700006849 0.4479726428920372 0.4655593551538837
0.39318868900045345 0.44406448461162684 0.46262823644357587
0.3933765570000105 0.44699560332193444 0.45969711773326827
0.3935646270001598 0.4450415241817294 0.4538348803126526
0.3937526429999707 0.4430874450415241 0.4509037616023448
0.39394130600067 0.4430874450415241 0.4479726428920372
0.39413280300050246 0.44406448461162684 0.441133365901319
0.39432157700048265 0.44699560332193444 0.44211040547142155
0.3945098700005474 0.4450415241817294 0.4479726428920372
0.39469805200042174 0.4430874450415241 0.4509037616023448
0.39488601200082485 0.4401563263312165 0.4606741573033708
0.3950732870007414 0.43917928676111373 0.4684904738641915
0.3952917830001752 0.43722520762090866 0.46946751343429405
0.39548028000081104 0.43722520762090866 0.47435271128480694
0.3956689800006643 0.43722520762090866 0.4655593551538837
0.39585734700085595 0.431362970200293 0.4606741573033708
0.3960459920008361 0.4284318514899854 0.44992672203224227
0.3962340820007739 0.42745481191988266 0.44406448461162684
0.3964217450002252 0.4264777723497801 0.43917928676111373
0.39660953800012066 0.4255007327796776 0.4382022471910112
0.3967975720006507 0.431362970200293 0.44406448461162684
0.39698464299999614 0.4352711284807034 0.44894968246213973
0.3971727140005896 0.44406448461162684 0.4538348803126526
0.39736002500012546 0.44699560332193444 0.45969711773326827
0.3975477440008035 0.45188080117244755 0.46262823644357587
0.39773616700040293 0.4528578407425501 0.467513434294089
0.39792379300070024 0.4587200781631655 0.46458231558378116
0.3981184750000466 0.45481191988275516 0.46262823644357587
0.3983087680007884 0.4538348803126526 0.4557889594528579
0.3984987090007053 0.45481191988275516 0.44992672203224227
0.39868807600032596 0.4538348803126526 0.43722520762090866
0.3988765920003061 0.457743038593063 0.431362970200293
0.3990639960002227 0.45481191988275516 0.42940889106008795
0.3992516960006469 0.45676599902296044 0.43429408891060084
0.3994389890003731 0.4528578407425501 0.4323400097703958
0.39962800500052253 0.45676599902296044 0.43429408891060084
0.39981629800058727 0.4557889594528579 0.43624816805080613
0.40000385000075767 0.45481191988275516 0.43917928676111373
0.4001916800007166 0.4538348803126526 0.441133365901319
0.4003792510002313 0.4557889594528579 0.4460185637518319
0.4005670630003806 0.4538348803126526 0.44992672203224227
0.40076980000048934 0.45188080117244755 0.45188080117244755
0.4009582410008079 0.4528578407425501 0.45481191988275516
0.40114549700047064 0.4528578407425501 0.45676599902296044
0.40133371600040846 0.4538348803126526 0.457743038593063
0.4015263800001776 0.4557889594528579 0.45676599902296044
0.4017359870003929 0.4636052760136786 0.457743038593063
0.4019353540006705 0.45676599902296044 0.46165119687347334
0.402127221000228 0.45969711773326827 0.4655593551538837
0.4023170330001449 0.45969711773326827 0.4655593551538837
0.4025051779999558 0.4587200781631655 0.4655593551538837
0.40269348900073965 0.45676599902296044 0.4606741573033708
0.402880949000064 0.4538348803126526 0.45969711773326827
0.40306959400004416 0.4538348803126526 0.457743038593063
0.40325812800074345 0.4528578407425501 0.45481191988275516
0.40344943900072394 0.4538348803126526 0.4528578407425501
0.4036396950004928 0.4509037616023448 0.4509037616023448
0.40382721000059973 0.45188080117244755 0.4509037616023448
0.40401667000060115 0.44992672203224227 0.44699560332193444
0.40420414800064464 0.44699560332193444 0.4509037616023448
0.4043914970006881 0.4538348803126526 0.45188080117244755
0.404579642000499 0.4528578407425501 0.44699560332193444
0.4047811010004807 0.4479726428920372 0.44992672203224227
0.4049754679999751 0.44894968246213973 0.4479726428920372
0.4051633170001878 0.45188080117244755 0.441133365901319
0.4053506660002313 0.45188080117244755 0.44211040547142155
0.40553864400044404 0.4509037616023448 0.4401563263312165
0.405726159000551 0.4538348803126526 0.43429408891060084
0.4059141930001715 0.44992672203224227 0.4303859306301905
0.40611698600059754 0.44992672203224227 0.4352711284807034
0.40630831600083184 0.45188080117244755 0.4323400097703958
0.40649592400041 0.44992672203224227 0.431362970200293
0.4066833280003266 0.45188080117244755 0.441133365901319
0.406870880000497 0.4538348803126526 0.44406448461162684
0.4070592840007521 0.4538348803126526 0.44699560332193444
0.40724689200033026 0.45481191988275516 0.44699560332193444
0.4074342220001199 0.45969711773326827 0.44406448461162684
0.40762097900005756 0.4538348803126526 0.4382022471910112
0.40780845700010104 0.4528578407425501 0.4450415241817294
0.4079956020004829 0.45676599902296044 0.4430874450415241
0.4081834690005053 0.4479726428920372 0.441133365901319
0.4083709100004853 0.4538348803126526 0.44406448461162684
0.4085591660004866 0.44992672203224227 0.44699560332193444
0.4087591440002143 0.4509037616023448 0.44699560332193444
0.40895578900017426 0.45188080117244755 0.4479726428920372
0.4091456559999642 0.4528578407425501 0.44992672203224227
0.4093335229999866 0.4528578407425501 0.44894968246213973
0.40952722400015773 0.4509037616023448 0.44894968246213973
0.4097169800006668 0.45188080117244755 0.4528578407425501
