0 0.45676599902296044 0.46458231558378116
0.0003601240005082218 0.45676599902296044 0.45676599902296044
0.0005708430007871357 0.45676599902296044 0.45676599902296044
0.0007705250000071828 0.457743038593063 0.4587200781631655
0.000987466000879067 0.457743038593063 0.46262823644357587
0.001192351000099734 0.457743038593063 0.4665363947239862
0.0013855330007572775 0.45676599902296044 0.4704445530043966
0.001575030000822153 0.4557889594528579 0.4665363947239862
0.0017696190006972756 0.4528578407425501 0.467513434294089
0.0019600790001277346 0.4509037616023448 0.457743038593063
0.002184020000640885 0.44992672203224227 0.45481191988275516
0.0023741460008750437 0.45481191988275516 0.4450415241817294
0.0025631430007706513 0.44992672203224227 0.4430874450415241
0.0027531030000318424 0.44894968246213973 0.44699560332193444
0.0029481550000127754 0.4479726428920372 0.44699560332193444
0.003147374000036507 0.44894968246213973 0.4528578407425501
0.0033476490007160464 0.4450415241817294 0.457743038593063
0.0035777190005319426 0.44992672203224227 0.4587200781631655
0.0037995120001141913 0.4479726428920372 0.45481191988275516
0.004001823000180593 0.44894968246213973 0.4450415241817294
0.004200709000542702 0.44992672203224227 0.43429408891060084
0.004401798000799317 0.45188080117244755 0.4176844162188569
0.004603665000104229 0.45481191988275516 0.4040058622374205
0.0048046060001070146 0.45188080117244755 0.38935026868588185
0.005007862000638852 0.4528578407425501 0.38153395212506114
0.005210229000113031 0.45481191988275516 0.37957987298485585
0.00540365200049564 0.45676599902296044 0.37957987298485585
0.00559244500072964 0.4528578407425501 0.3805569125549584
0.005782238000392681 0.4557889594528579 0.38446507083536874
0.005971198000224831 0.4509037616023448 0.3903273082559844
0.0061881200008429005 0.44992672203224227 0.3952125061064973
0.006380914000146731 0.4509037616023448 0.403028822667318
0.00656902200080367 0.4538348803126526 0.4176844162188569
0.006766426000467618 0.4538348803126526 0.4303859306301905
0.006954441000743827 0.4538348803126526 0.4450415241817294
0.007142382000893122 0.4557889594528579 0.457743038593063
0.007330509000894381 0.45481191988275516 0.4763067904250122
0.007518784000239975 0.4538348803126526 0.4880312652662433
0.007706336000410374 0.4557889594528579 0.4978016609672691
0.007894833000136714 0.45676599902296044 0.5114802149487054
0.008083811000688002 0.45676599902296044 0.524181729360039
0.008308567000312905 0.457743038593063 0.5398143624816805
0.00849954500063177 0.45481191988275516 0.5437225207620908
0.008687430999998469 0.45676599902296044 0.5466536394723986
0.00888633500017022 0.4528578407425501 0.5437225207620908
0.009077165000235254 0.4538348803126526 0.5398143624816805
0.009266051000849984 0.45188080117244755 0.5368832437713726
0.009454511000512866 0.4509037616023448 0.5368832437713726
0.00965126700066321 0.44992672203224227 0.533952125061065
0.009839227000156825 0.44894968246213973 0.5329750854909623
0.010027075000834884 0.44992672203224227 0.5251587689301416
0.01021798000056151 0.44699560332193444 0.512457254518808
0.010405865000393533 0.4460185637518319 0.49975574010747437
0.010595399000521866 0.4460185637518319 0.4831460674157304
0.010783933000311663 0.4430874450415241 0.467513434294089
0.01097317100084183 0.44406448461162684 0.4528578407425501
0.011161020000145072 0.4460185637518319 0.44211040547142155
0.011348165000526933 0.4401563263312165 0.43624816805080613
0.011536865000380203 0.44406448461162684 0.4352711284807034
0.011723492000783153 0.4401563263312165 0.43917928676111373
0.011911174000488245 0.4460185637518319 0.4401563263312165
0.012098837000849016 0.441133365901319 0.4450415241817294
0.012286020000829012 0.4450415241817294 0.4460185637518319
0.012473479000618681 0.4430874450415241 0.44894968246213973
0.012663773000895162 0.441133365901319 0.4479726428920372
0.012855751000643068 0.44406448461162684 0.44211040547142155
0.013043877000200155 0.4450415241817294 0.4401563263312165
0.013232745000095747 0.4479726428920372 0.4382022471910112
0.013420408000456518 0.44699560332193444 0.4401563263312165
0.013608016000034695 0.44406448461162684 0.43624816805080613
0.013795476000268536 0.4450415241817294 0.43722520762090866
0.013983751000523625 0.4479726428920372 0.43429408891060084
0.014175007000631012 0.4460185637518319 0.431362970200293
0.014363115000378457 0.4430874450415241 0.4284318514899854
0.014550427000358468 0.44406448461162684 0.4303859306301905
0.014738664000105928 0.44211040547142155 0.431362970200293
0.014925754000614688 0.441133365901319 0.4333170493404983
0.015115065000827599 0.441133365901319 0.4352711284807034
0.01530285900025774 0.441133365901319 0.43722520762090866
0.015489207000427996 0.43917928676111373 0.44211040547142155
0.015676593000534922 0.441133365901319 0.44406448461162684
0.015863405000345665 0.43917928676111373 0.4460185637518319
0.016050309000092966 0.4430874450415241 0.44894968246213973
0.01623715800087666 0.441133365901319 0.44992672203224227
0.016424970000116446 0.44211040547142155 0.4509037616023448
0.016612837000138825 0.4430874450415241 0.45188080117244755
0.016801815000690112 0.44406448461162684 0.4509037616023448
0.016992497000501317 0.44406448461162684 0.4528578407425501
0.017184476000693394 0.4460185637518319 0.457743038593063
0.017372824000631226 0.44699560332193444 0.4665363947239862
0.01756391400067514 0.44699560332193444 0.4782608695652173
0.017759077000846446 0.4460185637518319 0.4733756717147044
0.01794944400080567 0.4479726428920372 0.47142159257449934
0.018226921000859875 0.4479726428920372 0.46458231558378116
0.01842158500039659 0.44894968246213973 0.45676599902296044
0.018614674000673403 0.44992672203224227 0.4509037616023448
0.01880728200012527 0.44992672203224227 0.4430874450415241
0.01899839000088832 0.45188080117244755 0.4401563263312165
0.0191897760005304 0.44699560332193444 0.4430874450415241
0.019380347000151232 0.45188080117244755 0.441133365901319
0.019573584000681876 0.45188080117244755 0.4430874450415241
0.019764970000323956 0.4509037616023448 0.4430874450415241
0.019956152000304428 0.45676599902296044 0.44211040547142155
0.020146982000369462 0.45188080117244755 0.4430874450415241
0.020337757000561396 0.4528578407425501 0.4479726428920372
0.020528865000414953 0.4538348803126526 0.4509037616023448
0.020721936000882124 0.45188080117244755 0.4528578407425501
0.020955654000317736 0.4538348803126526 0.4528578407425501
0.021147318000657833 0.4528578407425501 0.45481191988275516
0.021340111000426987 0.4538348803126526 0.45481191988275516
0.021531052000682394 0.45676599902296044 0.45481191988275516
0.02172184500068397 0.45481191988275516 0.4479726428920372
0.021913101000791357 0.4587200781631655 0.44406448461162684
0.022107042000243382 0.45481191988275516 0.4401563263312165
0.02229870600058348 0.457743038593063 0.4382022471910112
0.02248979500018322 0.45969711773326827 0.4401563263312165
0.022681181000734796 0.46262823644357587 0.4382022471910112
0.02287232600065181 0.4606741573033708 0.4430874450415241
0.023063378000188095 0.45969711773326827 0.441133365901319
0.023254635000739654 0.4636052760136786 0.4450415241817294
0.02344605700000102 0.46165119687347334 0.44894968246213973
0.023636832000192953 0.46165119687347334 0.45188080117244755
0.023829940000723582 0.45969711773326827 0.45969711773326827
0.02402202900066186 0.45969711773326827 0.4684904738641915
0.024212526000155776 0.4587200781631655 0.4763067904250122
0.024403486000664998 0.4538348803126526 0.4831460674157304
0.024594742000772385 0.4538348803126526 0.486077186126038
0.024785980000160635 0.4538348803126526 0.4929164631167562
0.02498108800045884 0.45188080117244755 0.48412310698583294
0.025173270000777848 0.44992672203224227 0.47923790913532005
0.025365174000398838 0.44894968246213973 0.4733756717147044
0.025555522000104247 0.4528578407425501 0.46262823644357587
0.025747927000338677 0.4528578407425501 0.4587200781631655
0.025950757000828162 0.4528578407425501 0.45481191988275516
0.026157994000641338 0.4528578407425501 0.44894968246213973
0.02635062000081234 0.4528578407425501 0.4460185637518319
0.02654189500026405 0.45188080117244755 0.44406448461162684
0.02673337300075218 0.45481191988275516 0.4401563263312165
0.026924111000880657 0.4479726428920372 0.4333170493404983
0.027116367000417085 0.4460185637518319 0.4235466536394723
0.027308160000757198 0.4450415241817294 0.41475329750854906
0.027502490000188118 0.4430874450415241 0.4040058622374205
0.027716153000255872 0.441133365901319 0.3981436248168051
0.027928113000598387 0.44406448461162684 0.3981436248168051
0.028151220000836474 0.4460185637518319 0.4049829018075233
0.028387402000589645 0.44211040547142155 0.4059599413776258
0.02858771300088847 0.4460185637518319 0.4137762579384465
0.028784043000086967 0.44406448461162684 0.41475329750854906
0.02898707700023806 0.4450415241817294 0.4157303370786516
0.029205999000623706 0.4460185637518319 0.42159257449926724
0.029448310000589117 0.44699560332193444 0.4264777723497801
0.029662973000085913 0.4479726428920372 0.43624816805080613
0.02987350700004754 0.4460185637518319 0.441133365901319
0.030111632000625832 0.4460185637518319 0.44894968246213973
0.030318110000735032 0.4450415241817294 0.45969711773326827
0.030525033000230906 0.4430874450415241 0.46165119687347334
0.030733955000869173 0.4450415241817294 0.46458231558378116
0.03093311900011031 0.4430874450415241 0.4733756717147044
0.031135634000747814 0.44211040547142155 0.4802149487054226
0.031340519000877975 0.4430874450415241 0.4929164631167562
0.0315674970006512 0.44406448461162684 0.5075720566682951
0.03181510400008847 0.4450415241817294 0.5153883732291158
0.03203498900074919 0.4450415241817294 0.5144113336590133
0.032245467000393546 0.4479726428920372 0.5065950170981925
0.03245016800065059 0.44699560332193444 0.495847581827064
0.03267705300004309 0.44894968246213973 0.47923790913532005
0.03289482700074586 0.44406448461162684 0.46262823644357587
0.033095361000050616 0.44894968246213973 0.441133365901319
0.0333108570002878 0.44406448461162684 0.4206155349291647
0.03352337200067268 0.4430874450415241 0.39912066438690763
0.033732147000591794 0.441133365901319 0.3756717147044455
0.03396190200055571 0.43917928676111373 0.358085002442599
0.03420358300081716 0.4382022471910112 0.3512457254518808
0.03440915400005906 0.43917928676111373 0.34733756717147046
0.03462155800025357 0.4460185637518319 0.34733756717147046
0.03486864600017725 0.43917928676111373 0.3531998045920859
0.03508149500066793 0.4430874450415241 0.358085002442599
0.035300269000799744 0.4401563263312165 0.3610161211529066
0.035513210000317486 0.4430874450415241 0.36687835857352225
0.03571691000070132 0.4450415241817294 0.37469467513434296
0.035908981000829954 0.4460185637518319 0.376648754274548
0.03610075600045093 0.4450415241817294 0.3786028334147533
0.036310085000877734 0.4460185637518319 0.3913043478260869
0.036511527000584465 0.4450415241817294 0.40693698094772834
0.03671367100014322 0.4479726428920372 0.4255007327796776
0.036919075000696466 0.4528578407425501 0.45481191988275516
0.03712596100012888 0.4528578407425501 0.4763067904250122
0.037330957000449416 0.45481191988275516 0.48998534440644836
0.0375315840001349 0.45481191988275516 0.5017098192476794
0.03775226500056306 0.457743038593063 0.5075720566682951
0.03797524300080113 0.45676599902296044 0.5114802149487054
0.03821399800017389 0.45676599902296044 0.5134342940889105
0.03843132800011517 0.45969711773326827 0.512457254518808
0.03869287900033669 0.4606741573033708 0.5095261358085001
0.03893357900051342 0.45676599902296044 0.5075720566682951
0.03917585300041537 0.45676599902296044 0.5105031753786029
0.03939783100031491 0.46165119687347334 0.5085490962383976
0.039590568000676285 0.457743038593063 0.5153883732291158
0.039786935000847734 0.46165119687347334 0.5065950170981925
0.03999113600002602 0.4587200781631655 0.5046409379579873
0.04018455800087395 0.457743038593063 0.5026868588177822
0.04038198100079171 0.4587200781631655 0.5065950170981925
0.04058053300013853 0.4587200781631655 0.5056179775280898
0.040778475000479375 0.45676599902296044 0.5065950170981925
0.040972638000312145 0.4538348803126526 0.5065950170981925
0.04116793100001814 0.4557889594528579 0.5056179775280898
0.04136148300040077 0.45481191988275516 0.5036638983878847
0.041552351000063936 0.45481191988275516 0.49975574010747437
0.04174425500059442 0.4538348803126526 0.495847581827064
0.041935900000680704 0.4509037616023448 0.495847581827064
0.042169248000391235 0.45188080117244755 0.4929164631167562
0.04236141100045643 0.4538348803126526 0.4929164631167562
0.042554778000521765 0.4538348803126526 0.49877870053737183
0.04275640500054578 0.4528578407425501 0.5007327796775769
0.04295921600078145 0.4528578407425501 0.5046409379579873
0.04315549100010685 0.45481191988275516 0.5046409379579873
0.04334669100080646 0.4528578407425501 0.49877870053737183
0.043540170000596845 0.45481191988275516 0.4909623839765511
0.043761240000094404 0.4557889594528579 0.4753297508549097
0.04395264400045562 0.4528578407425501 0.46165119687347334
0.044143474000520655 0.4538348803126526 0.4528578407425501
0.04433484200035309 0.457743038593063 0.44699560332193444
0.04452545000003738 0.4587200781631655 0.4460185637518319
0.044717909000610234 0.457743038593063 0.4450415241817294
0.04490946200075996 0.45676599902296044 0.4460185637518319
0.045100014000126976 0.457743038593063 0.4450415241817294
0.04529080700012855 0.4557889594528579 0.4352711284807034
0.0454858230004902 0.45481191988275516 0.42452369320957506
0.04569015300057799 0.45481191988275516 0.4157303370786516
0.045885409000220534 0.4557889594528579 0.40889106008793363
0.04608342400024412 0.45481191988275516 0.40009770395701016
0.04627593900022475 0.45481191988275516 0.3961895456765998
0.04646728800071287 0.4538348803126526 0.3932584269662922
0.04666284000086307 0.45676599902296044 0.3932584269662922
0.04685367000001861 0.45481191988275516 0.4010747435271129
0.047072852000383136 0.4509037616023448 0.40693698094772834
0.04726431200015213 0.45188080117244755 0.4176844162188569
0.04745558600006916 0.45188080117244755 0.42940889106008795
0.04764615700059949 0.45188080117244755 0.4382022471910112
0.04783669100015686 0.4509037616023448 0.441133365901319
0.048029355000835494 0.44699560332193444 0.4460185637518319
0.048220889000731404 0.4479726428920372 0.441133365901319
0.048412181999992754 0.44699560332193444 0.43624816805080613
0.04860445600024832 0.44699560332193444 0.42940889106008795
0.048795509000228776 0.44699560332193444 0.4284318514899854
0.0489865240006111 0.44894968246213973 0.42940889106008795
0.04917672500050685 0.4460185637518319 0.42745481191988266
0.049368758000127855 0.4460185637518319 0.4333170493404983
0.04955932900065818 0.44699560332193444 0.43624816805080613
0.04974941900036356 0.44699560332193444 0.4401563263312165
0.04994013800023822 0.4479726428920372 0.4450415241817294
0.05014391200074897 0.4460185637518319 0.44699560332193444
0.050336298000729585 0.44406448461162684 0.44894968246213973
0.050525924000794475 0.4450415241817294 0.44992672203224227
0.05071690300064802 0.44406448461162684 0.4479726428920372
0.050916270000016084 0.44699560332193444 0.4528578407425501
0.051108193000800384 0.4460185637518319 0.4528578407425501
0.05129828200006159 0.4460185637518319 0.4587200781631655
0.05148844600080338 0.4430874450415241 0.46262823644357587
0.05167957200046658 0.44406448461162684 0.4684904738641915
0.05187081000076432 0.4430874450415241 0.4684904738641915
0.05207749100009096 0.44406448461162684 0.467513434294089
0.052268840000579075 0.4430874450415241 0.4655593551538837
0.05245941100019991 0.4450415241817294 0.46165119687347334
0.05264996300047642 0.44406448461162684 0.4557889594528579
0.05284197900073195 0.44406448461162684 0.4528578407425501
0.05303219800043735 0.44406448461162684 0.44894968246213973
0.05322297300062928 0.44211040547142155 0.4450415241817294
0.05341422900073667 0.4450415241817294 0.4430874450415241
0.05360998500054848 0.4460185637518319 0.441133365901319
0.05380163000063476 0.4450415241817294 0.441133365901319
0.05399294100061525 0.4430874450415241 0.4430874450415241
0.05418527100027859 0.44406448461162684 0.441133365901319
0.0543757130008089 0.441133365901319 0.4401563263312165
0.05458911700043245 0.44211040547142155 0.4352711284807034
0.05482107600073505 0.44406448461162684 0.43624816805080613
0.055059201000403846 0.4450415241817294 0.4323400097703958
0.055281901000853395 0.4430874450415241 0.42745481191988266
0.055549675000293064 0.44406448461162684 0.4303859306301905
0.055839818000094965 0.4450415241817294 0.4303859306301905
0.05613655400065909 0.44211040547142155 0.43624816805080613
0.056416160000480886 0.4509037616023448 0.4450415241817294
0.05667158200049016 0.4450415241817294 0.4430874450415241
0.05690272600077151 0.4479726428920372 0.44699560332193444
0.057121297000776394 0.44699560332193444 0.4479726428920372
0.05731547900086298 0.44992672203224227 0.4450415241817294
0.05751079100082279 0.4528578407425501 0.44699560332193444
0.05770306500016886 0.4528578407425501 0.44406448461162684
0.05789396900036081 0.45188080117244755 0.44406448461162684
0.058099484000194934 0.4509037616023448 0.44211040547142155
0.05829011100013304 0.45188080117244755 0.44406448461162684
0.05848101500032499 0.45188080117244755 0.4430874450415241
0.05867808600032731 0.4528578407425501 0.4430874450415241
0.05886863800060382 0.45188080117244755 0.4450415241817294
0.059058987000753405 0.44894968246213973 0.4450415241817294
0.05925081700024748 0.45188080117244755 0.4450415241817294
0.059443296000608825 0.45188080117244755 0.4450415241817294
0.0596341440004835 0.45188080117244755 0.44894968246213973
0.059826104000421765 0.4528578407425501 0.44992672203224227
0.06004165600006672 0.4509037616023448 0.45188080117244755
0.060234375000618456 0.4538348803126526 0.4538348803126526
0.06042933500066283 0.4538348803126526 0.457743038593063
0.060621665000326175 0.4528578407425501 0.4606741573033708
0.06082162500024424 0.4509037616023448 0.45969711773326827
0.06101243600005546 0.4538348803126526 0.46458231558378116
0.06120565500077646 0.4528578407425501 0.4636052760136786
0.0613966890005031 0.4538348803126526 0.46262823644357587
0.06158766800035664 0.4528578407425501 0.4636052760136786
0.0617787760002102 0.45188080117244755 0.46946751343429405
0.06197245700059284 0.4528578407425501 0.4704445530043966
0.06257372500022029 0.4538348803126526 0.4684904738641915
0.0627709810005399 0.4528578407425501 0.4733756717147044
0.06296294100047817 0.4528578407425501 0.4733756717147044
0.06315547500071261 0.4538348803126526 0.4704445530043966
0.06334656400031236 0.4528578407425501 0.4684904738641915
0.06353861700063135 0.4509037616023448 0.467513434294089
0.06373031700059073 0.45188080117244755 0.4665363947239862
0.06392259200038097 0.4528578407425501 0.4636052760136786
0.06411414400008653 0.4538348803126526 0.46458231558378116
0.06430490000002465 0.4557889594528579 0.4655593551538837
0.06449610100025893 0.45481191988275516 0.46946751343429405
0.0646870790005778 0.45676599902296044 0.46946751343429405
0.06488187200011453 0.45969711773326827 0.47239863214460187
0.06507474000045477 0.457743038593063 0.4704445530043966
0.06526788500013936 0.4606741573033708 0.4684904738641915
0.06545878900033131 0.46165119687347334 0.467513434294089
0.06564997100031178 0.45969711773326827 0.46458231558378116
0.06584181900052499 0.457743038593063 0.46262823644357587
0.06603333500061126 0.45481191988275516 0.457743038593063
0.06625410900051065 0.45676599902296044 0.4528578407425501
0.06644547600080841 0.4557889594528579 0.4557889594528579
0.06663619500068307 0.45481191988275516 0.4538348803126526
0.06682680300036736 0.4538348803126526 0.4528578407425501
0.06701765200068621 0.4528578407425501 0.4509037616023448
0.06721355600075185 0.4528578407425501 0.44992672203224227
0.0674048490000132 0.4538348803126526 0.45188080117244755
0.06759653100016294 0.45188080117244755 0.44894968246213973
0.06778712100003759 0.4509037616023448 0.44992672203224227
0.06797932100016624 0.44992672203224227 0.4479726428920372
0.06817018800029473 0.44992672203224227 0.44894968246213973
0.06836200000088866 0.45188080117244755 0.44699560332193444
0.06855360800000199 0.4460185637518319 0.4450415241817294
0.06874412300021504 0.4460185637518319 0.441133365901319
0.06893521300025895 0.44992672203224227 0.43722520762090866
0.06912680200002796 0.4460185637518319 0.43429408891060084
0.06933626200043363 0.4450415241817294 0.42940889106008795
0.06952983300016058 0.4450415241817294 0.4255007327796776
0.06973871800073539 0.4430874450415241 0.4206155349291647
0.06993930700082274 0.4479726428920372 0.4186614557889594
0.07016945200030023 0.44406448461162684 0.4176844162188569
0.07038941100017837 0.4450415241817294 0.4137762579384465
0.07058853700073087 0.44406448461162684 0.412799218368344
0.07079009000062797 0.4460185637518319 0.40889106008793363
0.07098323400077788 0.4450415241817294 0.4108451392281387
0.07117575000029319 0.4450415241817294 0.4137762579384465
0.07136895000076038 0.4430874450415241 0.41475329750854906
0.07156041000052937 0.4450415241817294 0.4186614557889594
0.07175094400008675 0.44699560332193444 0.42452369320957506
0.07194316300046921 0.4479726428920372 0.4333170493404983
0.0721428630004084 0.44699560332193444 0.43722520762090866
0.07236806300079479 0.4460185637518319 0.44406448461162684
0.07260587400014629 0.44406448461162684 0.44992672203224227
0.07286192600076902 0.4430874450415241 0.44894968246213973
0.07308012600060465 0.4450415241817294 0.4479726428920372
0.07327399300083925 0.4460185637518319 0.4430874450415241
0.07346621200031223 0.4479726428920372 0.44406448461162684
0.07365980100075831 0.44406448461162684 0.4382022471910112
0.07385111300027347 0.44406448461162684 0.43917928676111373
0.07404185100040195 0.44211040547142155 0.4352711284807034
0.07427275400004874 0.44211040547142155 0.43429408891060084
0.07447582500026328 0.4430874450415241 0.431362970200293
0.07466834000024392 0.4450415241817294 0.42940889106008795
0.07486035600049945 0.4460185637518319 0.431362970200293
0.07505231499999354 0.44699560332193444 0.43429408891060084
0.07524314600050275 0.44699560332193444 0.44406448461162684
0.07543369800077926 0.44699560332193444 0.44992672203224227
0.0756244730000617 0.44894968246213973 0.4528578407425501
0.07581554300031712 0.45188080117244755 0.4528578407425501
0.07601279900063673 0.4538348803126526 0.4606741573033708
0.07620407400008844 0.4509037616023448 0.46458231558378116
0.07639692300017487 0.44992672203224227 0.4665363947239862
0.0765886050003246 0.4528578407425501 0.47435271128480694
0.07678171300085523 0.4528578407425501 0.47728382999511476
0.07697304300018004 0.4538348803126526 0.47923790913532005
0.07716387300024508 0.44894968246213973 0.4763067904250122
0.07735537000007753 0.44992672203224227 0.4733756717147044
0.07754749600007926 0.44992672203224227 0.4655593551538837
0.0777395120003348 0.4460185637518319 0.46262823644357587
0.07795913800055132 0.4460185637518319 0.45676599902296044
0.0781828190001761 0.4509037616023448 0.45676599902296044
0.0783738350000931 0.44699560332193444 0.4557889594528579
0.07856494200041197 0.4460185637518319 0.45676599902296044
0.07875616200090008 0.44894968246213973 0.46165119687347334
0.07894734400088055 0.44699560332193444 0.47142159257449934
0.07913937700050155 0.44992672203224227 0.4802149487054226
0.07933200400020723 0.44894968246213973 0.4929164631167562
0.07952289000058954 0.4538348803126526 0.4978016609672691
0.07971390500006237 0.45481191988275516 0.5056179775280898
0.07990560500002175 0.4528578407425501 0.5065950170981925
0.08009628800027713 0.45676599902296044 0.5065950170981925
0.08028700700015179 0.4528578407425501 0.495847581827064
0.08048124400011147 0.4557889594528579 0.4948705422569615
0.08067281500007084 0.4528578407425501 0.4880312652662433
0.08086490400000912 0.457743038593063 0.4802149487054226
0.08105580900064524 0.4557889594528579 0.4763067904250122
0.08124684300037188 0.45676599902296044 0.47239863214460187
0.08143750600083877 0.4528578407425501 0.467513434294089
0.08162874400022702 0.4557889594528579 0.4655593551538837
0.08182014800058823 0.4538348803126526 0.4606741573033708
0.08201053400080127 0.4528578407425501 0.457743038593063
0.08220208600050682 0.45188080117244755 0.4538348803126526
0.08239234200027568 0.4528578407425501 0.4528578407425501
0.08258300600027724 0.4538348803126526 0.45676599902296044
0.0827741140001308 0.4528578407425501 0.4587200781631655
0.0829653140008304 0.44992672203224227 0.4606741573033708
0.08315583000057813 0.4528578407425501 0.45969711773326827
0.083346215000347 0.45188080117244755 0.46458231558378116
0.08353673100009473 0.4509037616023448 0.4606741573033708
0.08372806100032903 0.45188080117244755 0.4538348803126526
0.08392037200064806 0.4509037616023448 0.44894968246213973
0.08411118399999395 0.44992672203224227 0.4460185637518319
0.08430219900037628 0.44992672203224227 0.44699560332193444
0.08449265900071623 0.4528578407425501 0.44406448461162684
0.0846835270003794 0.45188080117244755 0.4430874450415241
0.08487494900055026 0.44992672203224227 0.4430874450415241
0.08506590900014999 0.4538348803126526 0.4479726428920372
0.08526622100089298 0.44894968246213973 0.44992672203224227
0.08545753200087347 0.44894968246213973 0.44992672203224227
0.08564845500040974 0.4509037616023448 0.44406448461162684
0.08583971100051713 0.44894968246213973 0.44406448461162684
0.08603137500085722 0.4528578407425501 0.4382022471910112
0.08624942700043903 0.44894968246213973 0.4333170493404983
0.08644162700056768 0.4479726428920372 0.4333170493404983
0.08663290200001939 0.44894968246213973 0.4303859306301905
0.08682334300010552 0.44894968246213973 0.4303859306301905
0.08701422900048783 0.45188080117244755 0.4264777723497801
0.08720500300023559 0.44894968246213973 0.4264777723497801
0.08739548200082936 0.4460185637518319 0.42452369320957506
0.08758662700074638 0.4430874450415241 0.41963849535906195
0.08777717900011339 0.4460185637518319 0.41963849535906195
0.08796726900072827 0.44699560332193444 0.41182217879824123
0.08816487600051914 0.4460185637518319 0.40889106008793363
0.08837191000020539 0.44699560332193444 0.4079140205178309
0.08858003600016673 0.4460185637518319 0.41182217879824123
0.08878621800067776 0.4479726428920372 0.4206155349291647
0.08898801100076525 0.4479726428920372 0.42940889106008795
0.08918658200036589 0.4479726428920372 0.4323400097703958
0.08938730100089742 0.4479726428920372 0.44211040547142155
0.0895863340001597 0.4479726428920372 0.44211040547142155
0.08979190500031109 0.44699560332193444 0.4479726428920372
0.08999697600029322 0.44894968246213973 0.4538348803126526
0.09020623200012778 0.44992672203224227 0.4587200781631655
0.09040183900015109 0.44992672203224227 0.4665363947239862
0.09059944700038614 0.4460185637518319 0.4684904738641915
0.09079766600007133 0.4460185637518319 0.46946751343429405
0.09099823700034904 0.44992672203224227 0.46946751343429405
0.09120523400088132 0.4479726428920372 0.467513434294089
0.09141211900077906 0.44699560332193444 0.4665363947239862
0.09162678200027585 0.44699560332193444 0.46458231558378116
0.09182877900002495 0.44699560332193444 0.46262823644357587
0.09204683100051625 0.4460185637518319 0.46262823644357587
0.09225462400081597 0.4450415241817294 0.4665363947239862
0.09245439800088207 0.4450415241817294 0.4655593551538837
0.09265274700010195 0.44992672203224227 0.46458231558378116
0.09286420600074052 0.44894968246213973 0.467513434294089
0.0930678140002783 0.44992672203224227 0.4684904738641915
0.09331318000022293 0.44992672203224227 0.47142159257449934
0.09353289900082018 0.44699560332193444 0.4733756717147044
0.09372893300042051 0.44992672203224227 0.4782608695652173
0.09392283700071857 0.44992672203224227 0.4851001465559355
0.09412107400021341 0.4479726428920372 0.4948705422569615
0.09431668200068088 0.4479726428920372 0.4929164631167562
0.09451192000051378 0.4450415241817294 0.495847581827064
0.09473071200045524 0.44406448461162684 0.4938935026868587
0.09493441300037375 0.4479726428920372 0.4948705422569615
0.09513065000010101 0.44406448461162684 0.48900830483634583
0.09533970200027397 0.44699560332193444 0.47728382999511476
0.09554095800012874 0.4460185637518319 0.4665363947239862
0.0957550290004292 0.4509037616023448 0.457743038593063
0.0959770440003922 0.44894968246213973 0.4538348803126526
0.09618518800016318 0.44894968246213973 0.4538348803126526
0.0963908520006953 0.44992672203224227 0.44699560332193444
0.09659138500046538 0.4479726428920372 0.44992672203224227
0.0967943630002992 0.4460185637518319 0.4430874450415241
0.09699861900026008 0.4509037616023448 0.4382022471910112
0.09719869000036852 0.44894968246213973 0.43722520762090866
0.09740202000011777 0.44894968246213973 0.4323400097703958
0.09761316500043904 0.4509037616023448 0.42940889106008795
0.09782553100012592 0.45188080117244755 0.4235466536394723
0.09802902800038282 0.44992672203224227 0.4176844162188569
0.09830530100043688 0.44894968246213973 0.4186614557889594
0.09852209400014544 0.4538348803126526 0.4206155349291647
0.09874188700086961 0.4538348803126526 0.4206155349291647
0.09897108700079116 0.4557889594528579 0.42256961406936977
0.09917539800062514 0.4636052760136786 0.41963849535906195
0.09938713500014273 0.4587200781631655 0.4186614557889594
0.09959463200084429 0.4557889594528579 0.4176844162188569
0.09979574000044522 0.45481191988275516 0.41670737664875435
0.10001088400076696 0.457743038593063 0.4137762579384465
0.10021545500057982 0.4528578407425501 0.40889106008793363
0.1004184700004771 0.4557889594528579 0.42159257449926724
0.10062654100056534 0.45969711773326827 0.42452369320957506
0.10082577800039871 0.4606741573033708 0.431362970200293
0.10103168200021173 0.4606741573033708 0.44211040547142155
0.10123973400004616 0.45676599902296044 0.457743038593063
0.10145143500085396 0.45969711773326827 0.46946751343429405
0.10166004200073075 0.457743038593063 0.4802149487054226
0.10186276100012037 0.4587200781631655 0.4880312652662433
0.1021095720006997 0.4606741573033708 0.5046409379579873
0.10233301300013409 0.457743038593063 0.49682462139716654
0.10257489700052247 0.46262823644357587 0.495847581827064
0.10282206000010774 0.46165119687347334 0.48705422569614076
0.10303929700057779 0.4606741573033708 0.4851001465559355
0.10324977500022214 0.4665363947239862 0.4782608695652173
0.10345217900066928 0.4636052760136786 0.47142159257449934
0.10371495300023525 0.45969711773326827 0.46946751343429405
0.10395917100049701 0.45481191988275516 0.46262823644357587
0.10419072300010157 0.4557889594528579 0.4587200781631655
0.10440260800078249 0.4557889594528579 0.45969711773326827
0.10459599400019215 0.4557889594528579 0.4557889594528579
0.10480087900032231 0.4557889594528579 0.4557889594528579
0.10500528300053702 0.4538348803126526 0.4509037616023448
0.10520678000011685 0.45188080117244755 0.457743038593063
0.10540929500075435 0.44992672203224227 0.4528578407425501
0.10560888400050317 0.4538348803126526 0.44992672203224227
0.10580730700075947 0.4528578407425501 0.44894968246213973
0.10600823000004311 0.4509037616023448 0.4450415241817294
0.1062235410008725 0.4479726428920372 0.44992672203224227
0.1064462590002222 0.4479726428920372 0.4401563263312165
0.1066468300004999 0.4528578407425501 0.4333170493404983
0.10685264200037636 0.4557889594528579 0.4323400097703958
0.10708447100023477 0.4460185637518319 0.4284318514899854
0.1073104670003886 0.44699560332193444 0.4235466536394723
0.10751529700064566 0.44406448461162684 0.4206155349291647
0.10773966400029167 0.4460185637518319 0.4186614557889594
0.10794867900040117 0.44211040547142155 0.4186614557889594
0.10814745300012873 0.44211040547142155 0.4157303370786516
0.10834608000004664 0.441133365901319 0.4108451392281387
0.10854363200087391 0.44406448461162684 0.40889106008793363
0.10874624000007316 0.44406448461162684 0.4049829018075233
0.10895669900037319 0.44406448461162684 0.4108451392281387
0.10917921400050545 0.441133365901319 0.40205178309721545
0.10938778500076296 0.4430874450415241 0.40205178309721545
0.10959059600008914 0.4450415241817294 0.40693698094772834
0.10980966700026329 0.44406448461162684 0.40889106008793363
0.11001583000052051 0.44406448461162684 0.41182217879824123
0.11023421500067343 0.44211040547142155 0.4108451392281387
0.11046074900059466 0.44406448461162684 0.4157303370786516
0.11067085600006976 0.44406448461162684 0.42159257449926724
0.11087203800070711 0.44699560332193444 0.43429408891060084
0.11109481200037408 0.4450415241817294 0.4430874450415241
0.11130256800061034 0.4479726428920372 0.44992672203224227
0.1115058980003596 0.4460185637518319 0.45676599902296044
0.11170720900008746 0.44699560332193444 0.46165119687347334
0.11194996500034904 0.44211040547142155 0.46262823644357587
0.11215996100054326 0.44992672203224227 0.45969711773326827
0.1123615129999962 0.4450415241817294 0.4557889594528579
0.11257488000046578 0.44699560332193444 0.4538348803126526
0.11280430200076808 0.4450415241817294 0.4557889594528579
0.11300870600007329 0.44699560332193444 0.4587200781631655
0.11321009200037224 0.44894968246213973 0.4636052760136786
0.1134143290000793 0.44992672203224227 0.4733756717147044
0.11362690000078146 0.44992672203224227 0.4655593551538837
0.1138333410008272 0.4509037616023448 0.4636052760136786
0.11410459600028844 0.45676599902296044 0.44699560332193444
0.11435612900004344 0.45969711773326827 0.4333170493404983
0.11456762500074547 0.45188080117244755 0.4264777723497801
0.11477462200036825 0.44992672203224227 0.42159257449926724
0.11498695200043585 0.45188080117244755 0.4235466536394723
0.115179745000205 0.45188080117244755 0.4303859306301905
0.11537139000029129 0.4528578407425501 0.4401563263312165
0.11556186800044088 0.4538348803126526 0.4430874450415241
0.11575293900023098 0.45188080117244755 0.44894968246213973
0.11594528800014814 0.4587200781631655 0.4636052760136786
0.11613641400072083 0.44894968246213973 0.467513434294089
0.11632757700044749 0.45188080117244755 0.4753297508549097
0.11652346300070349 0.4528578407425501 0.4811919882755251
0.11671399700026086 0.45676599902296044 0.4929164631167562
0.11690493800051627 0.44894968246213973 0.5036638983878847
0.1170958430002429 0.4557889594528579 0.5134342940889105
0.11728761700032919 0.45188080117244755 0.522227650219834
0.11748202100079652 0.45481191988275516 0.5271128480703469
0.11767585100005817 0.45188080117244755 0.5271128480703469
0.11786645900065196 0.4509037616023448 0.524181729360039
0.1180896780006151 0.45188080117244755 0.5114802149487054
0.11828552700080763 0.4509037616023448 0.5007327796775769
0.11847641200074577 0.44894968246213973 0.4802149487054226
0.11866766800085315 0.44699560332193444 0.4655593551538837
0.11885888700089708 0.4509037616023448 0.45676599902296044
0.11904981000043335 0.4528578407425501 0.44699560332193444
0.1192420850002236 0.44992672203224227 0.4401563263312165
0.11943339700064826 0.4479726428920372 0.43917928676111373
0.1196350230002281 0.4509037616023448 0.441133365901319
0.11982631600039895 0.44992672203224227 0.44211040547142155
0.12001729400071781 0.45188080117244755 0.4450415241817294
0.12020836500050791 0.4538348803126526 0.4509037616023448
0.1203985290003402 0.4557889594528579 0.4557889594528579
0.12059000700082834 0.457743038593063 0.4557889594528579
0.12078161500085116 0.45481191988275516 0.45676599902296044
0.12097335300040868 0.45481191988275516 0.4606741573033708
0.12116470100045262 0.45481191988275516 0.4587200781631655
0.12140930800069327 0.4538348803126526 0.45676599902296044
0.12164830400070059 0.4587200781631655 0.4509037616023448
0.12189168900022196 0.4538348803126526 0.44992672203224227
0.12211488900084078 0.4538348803126526 0.44699560332193444
0.12234257100044488 0.4528578407425501 0.45188080117244755
0.12254680800015194 0.4557889594528579 0.4401563263312165
0.12277417500081356 0.4509037616023448 0.43624816805080613
0.12302161500065267 0.4538348803126526 0.4284318514899854
0.12324516700027743 0.4538348803126526 0.4284318514899854
0.12346003400034533 0.4538348803126526 0.4303859306301905
0.12366375300007348 0.45481191988275516 0.4303859306301905
0.12386732300001313 0.45481191988275516 0.43624816805080613
0.12407361600071454 0.4509037616023448 0.4382022471910112
0.12428659400029574 0.4509037616023448 0.4382022471910112
0.1245194420007465 0.4528578407425501 0.4430874450415241
0.12472619800064422 0.4509037616023448 0.44992672203224227
0.12496286100031284 0.44894968246213973 0.44992672203224227
0.12516704200061213 0.4509037616023448 0.4509037616023448
0.12536902100055158 0.44894968246213973 0.45481191988275516
0.1255777760006822 0.4528578407425501 0.457743038593063
0.125793032000729 0.4479726428920372 0.45969711773326827
0.125998213999992 0.44894968246213973 0.45969711773326827
0.12620935900031327 0.44992672203224227 0.46165119687347334
0.12643089200082613 0.44699560332193444 0.46165119687347334
0.1266315550001309 0.45188080117244755 0.46458231558378116
0.1268227560003652 0.44894968246213973 0.4665363947239862
0.12701280800047243 0.4430874450415241 0.4733756717147044
0.12720397200064326 0.44699560332193444 0.4753297508549097
0.12739470900032757 0.44699560332193444 0.47435271128480694
0.12758505800047715 0.4450415241817294 0.4763067904250122
0.12777548100075364 0.44406448461162684 0.47239863214460187
0.12796992200037494 0.44211040547142155 0.46946751343429405
0.12816053000005923 0.4479726428920372 0.46262823644357587
0.12835382299999765 0.44211040547142155 0.4528578407425501
0.12854713500018988 0.4382022471910112 0.441133365901319
0.12873876100002235 0.4430874450415241 0.43429408891060084
0.12893075800002407 0.4430874450415241 0.43429408891060084
0.12912125500042748 0.44211040547142155 0.41963849535906195
0.12931212200055597 0.44406448461162684 0.4186614557889594
0.1295026930001768 0.4450415241817294 0.4176844162188569
0.12969326400070713 0.4460185637518319 0.412799218368344
0.12988494600085687 0.4460185637518319 0.4137762579384465
0.13011059000018577 0.4430874450415241 0.4108451392281387
0.13030255000012403 0.44211040547142155 0.4079140205178309
0.1304936770002314 0.44406448461162684 0.40889106008793363
0.13068554400069843 0.4450415241817294 0.40693698094772834
0.13087689300027705 0.44211040547142155 0.412799218368344
0.13106783400053246 0.4460185637518319 0.4206155349291647
0.1312593310003649 0.441133365901319 0.4157303370786516
0.1314504570000281 0.4450415241817294 0.41475329750854906
0.1316414540006008 0.4450415241817294 0.412799218368344
0.13183308000043326 0.44406448461162684 0.4108451392281387
0.13202335500045592 0.4450415241817294 0.4108451392281387
0.13221463000081712 0.4450415241817294 0.412799218368344
0.13240492300064943 0.4460185637518319 0.4186614557889594
0.13259519700022793 0.4450415241817294 0.4303859306301905
0.13278602800073713 0.44406448461162684 0.44211040547142155
0.1329770060001465 0.441133365901319 0.45188080117244755
0.13316811400000006 0.4401563263312165 0.4636052760136786
0.13335944400023436 0.4401563263312165 0.4684904738641915
0.13355007100017247 0.441133365901319 0.4763067904250122
0.13374054900032206 0.4430874450415241 0.4763067904250122
0.13393130500026018 0.4460185637518319 0.467513434294089
0.13412428300034662 0.44211040547142155 0.46458231558378116
0.13431705800030613 0.44211040547142155 0.457743038593063
0.13450772100077302 0.44211040547142155 0.4528578407425501
0.13469821800026693 0.44406448461162684 0.4430874450415241
0.1348886970008607 0.4430874450415241 0.4479726428920372
0.13507889700031228 0.44699560332193444 0.4557889594528579
0.13526948700018693 0.44699560332193444 0.467513434294089
0.13545990900001925 0.4479726428920372 0.47728382999511476
0.1356501650006976 0.44992672203224227 0.4851001465559355
0.13584399600040342 0.45188080117244755 0.49975574010747437
0.13603571500061662 0.45188080117244755 0.5114802149487054
0.136226971000724 0.45188080117244755 0.5202735710796287
0.13641852300042956 0.4538348803126526 0.5271128480703469
0.13660857600007148 0.4509037616023448 0.5319980459208598
0.1367989980008133 0.44894968246213973 0.5251587689301416
0.13698958800068795 0.4538348803126526 0.5192965315095261
0.13718112200058385 0.4528578407425501 0.5046409379579873
0.13738367400037532 0.45481191988275516 0.4948705422569615
0.13757789300052536 0.4538348803126526 0.47923790913532005
0.1377678900007595 0.45676599902296044 0.4753297508549097
0.13795890500023233 0.45481191988275516 0.46946751343429405
0.1381743270003426 0.45676599902296044 0.4655593551538837
0.13836925000032352 0.4557889594528579 0.4636052760136786
0.1385779320007714 0.4528578407425501 0.4557889594528579
0.13878970600035245 0.4509037616023448 0.4479726428920372
0.13901609100048518 0.4528578407425501 0.4382022471910112
0.13924240200049098 0.4509037616023448 0.42745481191988266
0.13946282500000962 0.4509037616023448 0.4206155349291647
0.13970321000033437 0.4528578407425501 0.41475329750854906
0.13992515000063577 0.4509037616023448 0.4079140205178309
0.1401325540000471 0.4538348803126526 0.4049829018075233
0.14033990300049481 0.4528578407425501 0.40009770395701016
0.14053897400026472 0.4528578407425501 0.3981436248168051
0.14075087700075528 0.4587200781631655 0.39228138739618945
0.14102848400034418 0.45481191988275516 0.3961895456765998
0.141303942000377 0.45481191988275516 0.4049829018075233
0.14154455000061716 0.45969711773326827 0.4176844162188569
0.14176563800083386 0.45969711773326827 0.42940889106008795
0.14198178300011932 0.4557889594528579 0.44406448461162684
0.14223959400078456 0.4587200781631655 0.4538348803126526
0.1424534970001332 0.457743038593063 0.45676599902296044
0.1426556790001996 0.45676599902296044 0.46262823644357587
0.14285817600011796 0.45676599902296044 0.4665363947239862
0.14306222800041724 0.4557889594528579 0.4763067904250122
0.1432617990003564 0.45481191988275516 0.48216902784562765
0.1434672210007193 0.45481191988275516 0.4909623839765511
0.14367245900029957 0.45481191988275516 0.4909623839765511
0.14387771500059898 0.45481191988275516 0.49682462139716654
0.14412358100071287 0.45481191988275516 0.49682462139716654
0.14435520700044435 0.457743038593063 0.49975574010747437
0.14458672100045078 0.457743038593063 0.5046409379579873
0.14479016300083458 0.4587200781631655 0.5085490962383976
0.14499686300041503 0.4606741573033708 0.5075720566682951
0.1452000630006296 0.45676599902296044 0.5095261358085001
0.1454049860003579 0.4606741573033708 0.5085490962383976
0.14560272300059296 0.45481191988275516 0.5036638983878847
0.14580857200053288 0.45969711773326827 0.495847581827064
0.14602055000068503 0.4557889594528579 0.4811919882755251
0.14625441600037448 0.4538348803126526 0.4665363947239862
0.14645750500039867 0.45676599902296044 0.45676599902296044
0.1466562800005704 0.45481191988275516 0.44406448461162684
0.14685694300078467 0.4528578407425501 0.4333170493404983
0.14704910700038454 0.4528578407425501 0.4323400097703958
0.1472422330007248 0.4528578407425501 0.4323400097703958
0.14745908100030647 0.4528578407425501 0.4352711284807034
0.14765026300028694 0.45481191988275516 0.44211040547142155
0.14784335300009843 0.45676599902296044 0.45188080117244755
0.1480351640002482 0.4528578407425501 0.457743038593063
0.14822592100063048 0.4538348803126526 0.457743038593063
0.14841686200088589 0.4557889594528579 0.45481191988275516
0.14860772900010488 0.45481191988275516 0.4460185637518319
0.14879905900033918 0.4538348803126526 0.45188080117244755
0.14899138900000253 0.45188080117244755 0.44699560332193444
0.1491819230004694 0.4479726428920372 0.44406448461162684
0.1493730680003864 0.4509037616023448 0.4450415241817294
0.14956428700043034 0.44699560332193444 0.44211040547142155
0.149754118000601 0.4460185637518319 0.441133365901319
0.14994554000077187 0.4479726428920372 0.43917928676111373
0.15015957400009938 0.4450415241817294 0.4323400097703958
0.15035066300060862 0.4479726428920372 0.4303859306301905
0.15054258600048342 0.4460185637518319 0.4264777723497801
0.15074178600025334 0.4460185637518319 0.4235466536394723
0.1509339500007627 0.4479726428920372 0.431362970200293
0.15112483600023552 0.44699560332193444 0.42745481191988266
0.15132072100004734 0.44894968246213973 0.4264777723497801
0.15151184800015471 0.44699560332193444 0.4255007327796776
0.15170301100079087 0.4460185637518319 0.4235466536394723
0.1518950270001369 0.4450415241817294 0.42452369320957506
0.1520866720002232 0.4460185637518319 0.42159257449926724
0.15227778000007675 0.44406448461162684 0.42452369320957506
0.1524692020002476 0.44699560332193444 0.4206155349291647
0.15266049500041845 0.44211040547142155 0.4206155349291647
0.1528508260007584 0.4430874450415241 0.4157303370786516
0.1530830440005957 0.441133365901319 0.4137762579384465
0.15328474400030245 0.44211040547142155 0.4079140205178309
0.15348266700038948 0.44406448461162684 0.4108451392281387
0.15368223800032865 0.4401563263312165 0.4108451392281387
0.1538963450002484 0.44406448461162684 0.4206155349291647
0.1541032310005903 0.43917928676111373 0.4323400097703958
0.15431100500063621 0.441133365901319 0.43722520762090866
0.1545231310001327 0.4430874450415241 0.44211040547142155
0.1547238870007277 0.44211040547142155 0.4450415241817294
0.15492181000081473 0.4450415241817294 0.4430874450415241
0.15513656600069226 0.4460185637518319 0.44211040547142155
0.1553595250006765 0.4479726428920372 0.44406448461162684
0.1555882990005557 0.44699560332193444 0.45188080117244755
0.15580905400020129 0.4528578407425501 0.4636052760136786
0.15612571600013325 0.44894968246213973 0.47239863214460187
0.15636924900081794 0.45188080117244755 0.4802149487054226
0.15659228200001962 0.4557889594528579 0.48216902784562765
0.15684057400085294 0.4538348803126526 0.4880312652662433
0.1570794780000142 0.44992672203224227 0.4880312652662433
0.15730023400010396 0.4509037616023448 0.486077186126038
0.157536822000111 0.44992672203224227 0.4851001465559355
0.15778744800081768 0.45481191988275516 0.4763067904250122
0.15803940600017086 0.4528578407425501 0.4655593551538837
0.15831518000049982 0.457743038593063 0.45481191988275516
0.1585574530008671 0.45481191988275516 0.44992672203224227
0.15880133800055773 0.4528578407425501 0.44211040547142155
0.15906418600025063 0.4509037616023448 0.43917928676111373
0.15927705300055095 0.45481191988275516 0.43429408891060084
0.1594986420004716 0.4538348803126526 0.4382022471910112
0.1597096200002852 0.4509037616023448 0.4352711284807034
0.1599145980007961 0.4528578407425501 0.4382022471910112
0.16011716800039721 0.4538348803126526 0.44211040547142155
0.16031544300039968 0.45481191988275516 0.44699560332193444
0.1605179580001277 0.4528578407425501 0.4509037616023448
0.16072099200027878 0.4557889594528579 0.4557889594528579
0.1609242290005568 0.4557889594528579 0.4606741573033708
0.16112313300072856 0.4557889594528579 0.45969711773326827
0.16131405600026483 0.4557889594528579 0.46458231558378116
0.16150481200020295 0.4587200781631655 0.4636052760136786
0.16169597600037378 0.46165119687347334 0.4606741573033708
0.16188799100018514 0.45481191988275516 0.46165119687347334
0.16208926500075904 0.457743038593063 0.4606741573033708
0.16228046600008383 0.4538348803126526 0.45969711773326827
0.16247350000048755 0.4538348803126526 0.457743038593063
0.16266468200046802 0.4528578407425501 0.4528578407425501
0.1628565120008716 0.4538348803126526 0.4528578407425501
0.16304728700015403 0.4528578407425501 0.45969711773326827
0.1632382650004729 0.45481191988275516 0.45676599902296044
0.16342833600083395 0.4528578407425501 0.45969711773326827
0.1636197590005395 0.4509037616023448 0.46165119687347334
0.16381014400030836 0.45188080117244755 0.4636052760136786
0.16400128900022537 0.4528578407425501 0.46458231558378116
0.16421399000046222 0.4557889594528579 0.4684904738641915
0.1644071160008025 0.457743038593063 0.467513434294089
0.16459798300002149 0.45481191988275516 0.4655593551538837
0.1647892580003827 0.46262823644357587 0.4636052760136786
0.16498732900072355 0.4528578407425501 0.46262823644357587
0.16517890000068292 0.4528578407425501 0.4655593551538837
0.16536958200049412 0.4538348803126526 0.46165119687347334
0.16556094900079188 0.4538348803126526 0.4587200781631655
0.16576020500087907 0.4509037616023448 0.4538348803126526
0.16595203500037314 0.4509037616023448 0.45188080117244755
0.16616910500033555 0.44894968246213973 0.45188080117244755
0.1663618430002316 0.4528578407425501 0.4479726428920372
0.16655243200057157 0.4538348803126526 0.44894968246213973
0.1667441140007213 0.4528578407425501 0.44992672203224227
0.16693553700042685 0.4528578407425501 0.44992672203224227
0.1671265160002804 0.4509037616023448 0.44992672203224227
0.16731708600036654 0.44699560332193444 0.45188080117244755
0.16750875000070664 0.44894968246213973 0.44894968246213973
0.16770585800077242 0.4509037616023448 0.45188080117244755
0.16790207700069004 0.44699560332193444 0.4538348803126526
0.16809350000039558 0.4479726428920372 0.4587200781631655
0.16828445900046063 0.4460185637518319 0.4665363947239862
0.16847553000025073 0.4479726428920372 0.46262823644357587
0.16866660100004083 0.44992672203224227 0.4655593551538837
0.16885815400019055 0.4460185637518319 0.4636052760136786
0.1690493170008267 0.44699560332193444 0.4606741573033708
0.16923957300059556 0.4450415241817294 0.4557889594528579
0.16943095900023764 0.4460185637518319 0.45676599902296044
0.16964371500034758 0.4450415241817294 0.457743038593063
0.1698348600002646 0.4479726428920372 0.457743038593063
0.17002526400028728 0.4479726428920372 0.4606741573033708
0.17022172400083946 0.4460185637518319 0.46165119687347334
0.1704123500003334 0.44699560332193444 0.46262823644357587
0.17060525400029292 0.44699560332193444 0.46946751343429405
0.17079571400063287 0.4450415241817294 0.4636052760136786
0.17098782200082496 0.4509037616023448 0.46165119687347334
0.17117863400017086 0.44406448461162684 0.46458231558378116
0.171376612000131 0.4460185637518319 0.4636052760136786
0.17158873800053698 0.4450415241817294 0.46262823644357587
0.1718330670000796 0.4460185637518319 0.4557889594528579
0.17206323000027623 0.4450415241817294 0.44992672203224227
0.1723043370002415 0.4460185637518319 0.43917928676111373
0.1725480190007147 0.4479726428920372 0.4333170493404983
0.17274931100018875 0.4460185637518319 0.4264777723497801
0.17294786400088924 0.44699560332193444 0.42256961406936977
0.17314784200061695 0.4460185637518319 0.4206155349291647
0.17340593000062654 0.45188080117244755 0.42452369320957506
0.17367575900061638 0.44699560332193444 0.42159257449926724
0.17391236600087723 0.44406448461162684 0.4186614557889594
0.17412740000054328 0.4460185637518319 0.412799218368344
0.17433934100063198 0.44894968246213973 0.40693698094772834
0.17457822600044892 0.4460185637518319 0.39716658524670256
0.1747897040004318 0.4479726428920372 0.3903273082559844
0.17500081100024545 0.4479726428920372 0.39228138739618945
0.17521191900050326 0.44894968246213973 0.4010747435271129
0.17542482300086704 0.44894968246213973 0.412799218368344
0.17562189400086936 0.44992672203224227 0.42452369320957506
0.17581350200089219 0.45188080117244755 0.43429408891060084
0.17600598000080936 0.4509037616023448 0.441133365901319
0.17619944000034593 0.4528578407425501 0.44406448461162684
0.17639017700003023 0.4538348803126526 0.44211040547142155
0.17658321100043395 0.45188080117244755 0.4479726428920372
0.1767742450001606 0.45676599902296044 0.4430874450415241
0.1769913890002499 0.457743038593063 0.4538348803126526
0.17718290500033618 0.45481191988275516 0.4557889594528579
0.17737423500057048 0.45969711773326827 0.4655593551538837
0.17756578700027603 0.457743038593063 0.47239863214460187
0.17775648800034105 0.45676599902296044 0.48412310698583294
0.17794742900059646 0.45188080117244755 0.4938935026868587
0.17817875900072977 0.457743038593063 0.49877870053737183
0.17837203300041438 0.4538348803126526 0.49877870053737183
0.17856201200083888 0.45481191988275516 0.49877870053737183
0.1787532310008828 0.4538348803126526 0.495847581827064
0.17894415400041908 0.4509037616023448 0.4948705422569615
0.17913444700025138 0.4528578407425501 0.48705422569614076
0.1793259810001473 0.4557889594528579 0.4811919882755251
0.1795202370003608 0.4538348803126526 0.4763067904250122
0.1797133070003838 0.4528578407425501 0.47142159257449934
0.1799054890007028 0.4528578407425501 0.4655593551538837
0.18009559700021782 0.4538348803126526 0.4606741573033708
0.18028655700072704 0.4538348803126526 0.457743038593063
0.18047664700043242 0.4557889594528579 0.45481191988275516
0.1806666620004762 0.45969711773326827 0.45481191988275516
0.1808570850007527 0.4557889594528579 0.45676599902296044
0.18104695200054266 0.4538348803126526 0.4538348803126526
0.18123748600010003 0.45481191988275516 0.44894968246213973
0.18142787200031307 0.45481191988275516 0.44699560332193444
0.18161933200008207 0.45481191988275516 0.4479726428920372
0.18181082800037984 0.457743038593063 0.4401563263312165
0.18201765800040448 0.45969711773326827 0.4352711284807034
0.1822096000005331 0.45676599902296044 0.4352711284807034
0.1824008560006405 0.45676599902296044 0.441133365901319
0.18259164900064206 0.457743038593063 0.4479726428920372
0.18278231200019945 0.45676599902296044 0.44894968246213973
0.18297293900013756 0.457743038593063 0.45188080117244755
0.18316365800001222 0.45481191988275516 0.45969711773326827
0.18335415500041563 0.45481191988275516 0.46165119687347334
0.18354592900050193 0.457743038593063 0.467513434294089
0.1837362040005246 0.45676599902296044 0.46946751343429405
0.18392646000029345 0.45676599902296044 0.4753297508549097
0.18411747500067577 0.45676599902296044 0.4733756717147044
0.18430788000023313 0.4557889594528579 0.4753297508549097
0.18449898800008668 0.45676599902296044 0.4733756717147044
0.18468994700015173 0.4557889594528579 0.4665363947239862
0.18488012900070316 0.457743038593063 0.45676599902296044
0.18507033000059891 0.4557889594528579 0.44699560332193444
0.1852604940004312 0.4557889594528579 0.43917928676111373
0.18545130500024243 0.457743038593063 0.4303859306301905
0.18564278400026524 0.457743038593063 0.4235466536394723
0.1858359660000133 0.45481191988275516 0.42256961406936977
0.18602666600054363 0.45481191988275516 0.4284318514899854
0.1862314960008007 0.4509037616023448 0.42745481191988266
0.1864223820002735 0.4509037616023448 0.4323400097703958
0.18661310100014816 0.4528578407425501 0.43722520762090866
0.18680385700008628 0.45188080117244755 0.441133365901319
0.18699426100010896 0.45188080117244755 0.4460185637518319
0.1871858880003856 0.4528578407425501 0.44699560332193444
0.18737634700028138 0.4509037616023448 0.44992672203224227
0.18756608500007133 0.44992672203224227 0.4509037616023448
0.18775847100005194 0.4528578407425501 0.45676599902296044
0.18795011600013822 0.45481191988275516 0.4557889594528579
0.188140724000732 0.4479726428920372 0.45481191988275516
0.18833423900014168 0.4509037616023448 0.4528578407425501
0.18854393900073774 0.44894968246213973 0.4538348803126526
0.18875439900057245 0.44894968246213973 0.4509037616023448
0.18896450600004755 0.44992672203224227 0.44992672203224227
0.1891682990008121 0.4450415241817294 0.45676599902296044
0.18939825800043764 0.4509037616023448 0.4557889594528579
0.18960216300001775 0.44992672203224227 0.45481191988275516
0.18980727000052866 0.44699560332193444 0.45481191988275516
0.19007517300087784 0.4479726428920372 0.4538348803126526
0.19034213200029626 0.4479726428920372 0.4528578407425501
0.1905896650005161 0.4450415241817294 0.45188080117244755
0.19079514300028677 0.4479726428920372 0.45188080117244755
0.1909877880007116 0.44894968246213973 0.4557889594528579
0.19117841400020552 0.4450415241817294 0.45481191988275516
0.19136926300052437 0.4479726428920372 0.4509037616023448
0.19156044500050484 0.45188080117244755 0.4528578407425501
0.19175162700048531 0.4460185637518319 0.44894968246213973
0.1919437160004236 0.4460185637518319 0.45188080117244755
0.1921343430003617 0.4430874450415241 0.45188080117244755
0.1923248210005113 0.441133365901319 0.45188080117244755
0.19251587400049175 0.43917928676111373 0.44992672203224227
0.19270714800040878 0.43917928676111373 0.44699560332193444
0.19289809000019886 0.441133365901319 0.4460185637518319
0.19309071600036987 0.44406448461162684 0.44699560332193444
0.19328150900037144 0.4450415241817294 0.44699560332193444
0.19347228400056338 0.44211040547142155 0.4528578407425501
0.19366274399999384 0.44211040547142155 0.4557889594528579
0.19385300000067218 0.4430874450415241 0.45676599902296044
0.194044015000145 0.44699560332193444 0.4509037616023448
0.19426823400044668 0.4479726428920372 0.44699560332193444
0.19445871200059628 0.44992672203224227 0.4430874450415241
0.19464924600015365 0.44699560332193444 0.4382022471910112
0.194839946000684 0.44699560332193444 0.4284318514899854
0.19503157300005114 0.45188080117244755 0.4255007327796776
0.19522195900026418 0.4479726428920372 0.4176844162188569
0.19541241800015996 0.4509037616023448 0.41475329750854906
0.19560317400009808 0.4509037616023448 0.4108451392281387
0.1957947820001209 0.44699560332193444 0.403028822667318
0.19598526100071467 0.4479726428920372 0.4010747435271129
0.19617788700088568 0.44699560332193444 0.4010747435271129
0.19636914300008357 0.4509037616023448 0.4049829018075233
0.19655969600080425 0.45188080117244755 0.40986809965803617
0.19675226700019266 0.4528578407425501 0.41670737664875435
0.19694298600006732 0.4538348803126526 0.4235466536394723
0.1971340380005131 0.45188080117244755 0.42940889106008795
0.1973242760004723 0.44894968246213973 0.4401563263312165
0.19751521700072772 0.4509037616023448 0.44211040547142155
0.19770552900081384 0.45188080117244755 0.4460185637518319
0.1978957850005827 0.44992672203224227 0.44699560332193444
0.19808670700058428 0.4509037616023448 0.44894968246213973
0.19827735200033203 0.4509037616023448 0.4538348803126526
0.19846803400014323 0.4509037616023448 0.4557889594528579
0.19866925300084404 0.4509037616023448 0.4606741573033708
0.19886021300044376 0.4509037616023448 0.4655593551538837
0.19905091400050878 0.45188080117244755 0.47142159257449934
0.19924189200082765 0.4538348803126526 0.47923790913532005
0.19943287000023702 0.4528578407425501 0.4851001465559355
0.19962377500087314 0.4528578407425501 0.4909623839765511
0.19981497500066325 0.45188080117244755 0.4948705422569615
0.20000563900066481 0.44992672203224227 0.49682462139716654
0.20019696900089912 0.4538348803126526 0.4948705422569615
0.20038787300018157 0.4528578407425501 0.48998534440644836
0.20057879600062734 0.4538348803126526 0.4802149487054226
0.20076918200084037 0.4538348803126526 0.4733756717147044
0.20095947500067268 0.4509037616023448 0.4655593551538837
0.20115017500029353 0.45188080117244755 0.457743038593063
0.20134108000002016 0.4538348803126526 0.44992672203224227
0.2015321880007832 0.4557889594528579 0.43917928676111373
0.20172270300008677 0.4557889594528579 0.4303859306301905
0.20192866200068238 0.4557889594528579 0.42256961406936977
0.2021201960005783 0.45676599902296044 0.42452369320957506
0.20231086000057985 0.45481191988275516 0.4264777723497801
0.2025015050003276 0.45481191988275516 0.43624816805080613
0.2026915940004983 0.45969711773326827 0.44406448461162684
0.20288272100060567 0.4606741573033708 0.45188080117244755
0.203079921000608 0.4606741573033708 0.4606741573033708
0.20339071200032777 0.4538348803126526 0.46946751343429405
0.20360117200016248 0.45676599902296044 0.4665363947239862
0.2038047430005463 0.45969711773326827 0.47435271128480694
0.20401496100021177 0.4557889594528579 0.47435271128480694
0.20422292100010964 0.45481191988275516 0.4831460674157304
0.20443506500032527 0.4538348803126526 0.47923790913532005
0.20463456200013752 0.4509037616023448 0.4782608695652173
0.20485196600020572 0.45188080117244755 0.4851001465559355
0.20509248100006516 0.4479726428920372 0.4851001465559355
0.20535821700013912 0.44894968246213973 0.48705422569614076
0.20559234300071694 0.44894968246213973 0.4811919882755251
0.2058226540002579 0.44894968246213973 0.48216902784562765
0.20603855700028362 0.45188080117244755 0.4684904738641915
0.20630522000010387 0.45188080117244755 0.45676599902296044
0.20650777200080483 0.44894968246213973 0.4460185637518319
0.2067206570000053 0.44699560332193444 0.43429408891060084
0.20692626500022016 0.4479726428920372 0.4206155349291647
0.20712729900060367 0.44992672203224227 0.41182217879824123
0.2073714980006116 0.44699560332193444 0.40986809965803617
0.20757545800006483 0.4450415241817294 0.4040058622374205
0.20779026900072495 0.44406448461162684 0.4049829018075233
0.20799367300060112 0.4450415241817294 0.4049829018075233
0.2082099660001404 0.4479726428920372 0.4079140205178309
0.20845879500029696 0.4479726428920372 0.4108451392281387
0.20874393900066934 0.4450415241817294 0.4137762579384465
0.20901849000074435 0.44992672203224227 0.4255007327796776
0.2092636710003717 0.44894968246213973 0.43624816805080613
0.20950485200046387 0.44699560332193444 0.4430874450415241
0.20974647800085222 0.45188080117244755 0.44894968246213973
0.2100384360001044 0.44699560332193444 0.46262823644357587
0.21036600400020689 0.4479726428920372 0.46946751343429405
0.21060200100055226 0.45188080117244755 0.4753297508549097
0.2108132930006832 0.44992672203224227 0.4811919882755251
0.211026753000624 0.44699560332193444 0.48412310698583294
0.2112397310002052 0.4479726428920372 0.4948705422569615
0.2114379500007999 0.44699560332193444 0.5026868588177822
0.2116303720003998 0.44699560332193444 0.5046409379579873
0.2118221660002746 0.4460185637518319 0.5095261358085001
0.21201279200067802 0.44699560332193444 0.5105031753786029
0.2122043070003201 0.44699560332193444 0.5065950170981925
0.21239497100032168 0.4450415241817294 0.495847581827064
0.2125863750006829 0.4460185637518319 0.4851001465559355
0.21278179800083308 0.4450415241817294 0.46946751343429405
0.21297399800005223 0.4430874450415241 0.45188080117244755
0.21316510600081529 0.44406448461162684 0.431362970200293
0.21335947400075383 0.4450415241817294 0.4186614557889594
0.21355035900069197 0.4450415241817294 0.4049829018075233
0.2137413190002917 0.44894968246213973 0.3961895456765998
0.21393205700042017 0.44992672203224227 0.3932584269662922
0.2141279610004858 0.44699560332193444 0.39228138739618945
0.21431988400036062 0.44992672203224227 0.39912066438690763
0.2145108060003622 0.4450415241817294 0.4040058622374205
0.2147023960005754 0.4479726428920372 0.4176844162188569
0.21489335600017512 0.44699560332193444 0.42745481191988266
0.2150839450005151 0.4460185637518319 0.43722520762090866
0.2152746270003263 0.44699560332193444 0.4460185637518319
0.21546479100015858 0.44406448461162684 0.44992672203224227
0.2156900650006719 0.4460185637518319 0.4509037616023448
0.21588345000054687 0.4450415241817294 0.45188080117244755
0.21607722500084492 0.4430874450415241 0.44699560332193444
0.216269055000339 0.4430874450415241 0.43917928676111373
0.21646777400019346 0.44406448461162684 0.4323400097703958
0.2166594560003432 0.4430874450415241 0.42745481191988266
0.2168497490001755 0.4430874450415241 0.4157303370786516
0.21704113500072708 0.44406448461162684 0.4108451392281387
0.21723290900081338 0.4460185637518319 0.40986809965803617
0.21742553600051906 0.44699560332193444 0.4108451392281387
0.21761612500085903 0.44699560332193444 0.42256961406936977
0.21781045500028995 0.44406448461162684 0.431362970200293
0.21800098900075682 0.44992672203224227 0.4450415241817294
0.2181942640008856 0.4538348803126526 0.45481191988275516
0.2183847610003795 0.4538348803126526 0.46262823644357587
0.2185752390005291 0.4557889594528579 0.4655593551538837
0.2187672730005943 0.45481191988275516 0.4636052760136786
0.2189581590000671 0.4528578407425501 0.45676599902296044
0.21914934100004757 0.4557889594528579 0.4528578407425501
0.21934033800062025 0.4557889594528579 0.4479726428920372
0.21953172300072765 0.4587200781631655 0.441133365901319
0.2197410900007526 0.45481191988275516 0.4382022471910112
0.21993175400075415 0.4538348803126526 0.43624816805080613
0.22012276900022698 0.4509037616023448 0.43429408891060084
0.22031397000046127 0.45481191988275516 0.4333170493404983
0.22050418900016666 0.4509037616023448 0.4284318514899854
0.22069524100061244 0.4528578407425501 0.4333170493404983
0.22088584900029673 0.45188080117244755 0.4401563263312165
0.2210757900002136 0.45481191988275516 0.4460185637518319
0.22126606500023627 0.4557889594528579 0.45188080117244755
0.22145654300038586 0.4557889594528579 0.45676599902296044
0.22164704000078927 0.45188080117244755 0.457743038593063
0.22183790700000827 0.45188080117244755 0.4587200781631655
0.22202838600060204 0.45969711773326827 0.46262823644357587
0.22224454900060664 0.4528578407425501 0.4606741573033708
0.22246076700048434 0.4557889594528579 0.46262823644357587
0.2226735970007212 0.4538348803126526 0.4636052760136786
0.22287565000078757 0.457743038593063 0.4655593551538837
0.22307366500081116 0.45188080117244755 0.4655593551538837
0.2232644950008762 0.44894968246213973 0.4684904738641915
0.22346326900060376 0.45188080117244755 0.47142159257449934
0.22366500700081815 0.44992672203224227 0.47142159257449934
0.22386183700018591 0.4528578407425501 0.4753297508549097
0.22406968500035873 0.4509037616023448 0.4782608695652173
0.2242767930001719 0.44894968246213973 0.47923790913532005
0.22448097500000586 0.45188080117244755 0.4763067904250122
0.22468989700064412 0.457743038593063 0.47239863214460187
0.22494330100016668 0.4528578407425501 0.46946751343429405
0.2251551670005938 0.4557889594528579 0.4665363947239862
0.22536553400004777 0.4557889594528579 0.46458231558378116
0.2255709940000088 0.4538348803126526 0.4655593551538837
0.22578906400030974 0.45676599902296044 0.4684904738641915
0.22603819000050862 0.4557889594528579 0.47728382999511476
0.22627737100083323 0.45188080117244755 0.47923790913532005
0.2264784230001169 0.45676599902296044 0.4763067904250122
0.22668182699999306 0.4528578407425501 0.46946751343429405
0.22688613900027121 0.4538348803126526 0.4665363947239862
0.22707813600027293 0.4538348803126526 0.46458231558378116
0.2272793920001277 0.4538348803126526 0.46458231558378116
0.22747035100019275 0.44992672203224227 0.46165119687347334
0.22766207000040595 0.4479726428920372 0.457743038593063
0.2278545490007673 0.44992672203224227 0.45676599902296044
0.22804628600079013 0.44699560332193444 0.44699560332193444
0.22827450500062696 0.44992672203224227 0.4460185637518319
0.2284662420006498 0.4479726428920372 0.44211040547142155
0.22865883200029202 0.44699560332193444 0.4401563263312165
0.2288498100006109 0.4460185637518319 0.43624816805080613
0.22904060300061246 0.4430874450415241 0.4303859306301905
0.2292322850007622 0.4430874450415241 0.4303859306301905
0.2294237450005312 0.4479726428920372 0.4303859306301905
0.22961492700051167 0.44406448461162684 0.4264777723497801
0.22980607200042868 0.4430874450415241 0.4303859306301905
0.22999847600021894 0.44406448461162684 0.4352711284807034
0.23019243600083428 0.441133365901319 0.4401563263312165
0.2303840250006033 0.441133365901319 0.4479726428920372
0.2305746520005414 0.441133365901319 0.4450415241817294
0.23076548200060643 0.4430874450415241 0.44992672203224227
0.23095612700035417 0.441133365901319 0.44992672203224227
0.2311469020005461 0.4430874450415241 0.44894968246213973
0.23133786100061116 0.43917928676111373 0.44406448461162684
0.231528432000232 0.4460185637518319 0.44406448461162684
0.231719448000149 0.4430874450415241 0.4430874450415241
0.2319110560001718 0.4450415241817294 0.4460185637518319
0.23210175600070215 0.4450415241817294 0.4450415241817294
0.2322925310008941 0.44406448461162684 0.44699560332193444
0.23248384300040925 0.44992672203224227 0.44699560332193444
0.23267458000009356 0.44992672203224227 0.44894968246213973
0.2328662070003702 0.4479726428920372 0.44894968246213973
0.2330622770004993 0.44699560332193444 0.4587200781631655
0.23328323700025067 0.44894968246213973 0.4587200781631655
0.23348117800014734 0.4460185637518319 0.46165119687347334
0.23367195300033927 0.45188080117244755 0.46262823644357587
0.23386274600034085 0.45188080117244755 0.45969711773326827
0.23407042700000602 0.4509037616023448 0.45969711773326827
0.23426257200026157 0.45188080117244755 0.4557889594528579
0.23445305100085534 0.4528578407425501 0.4479726428920372
0.23464388100001088 0.4538348803126526 0.4401563263312165
0.23483610000039334 0.4509037616023448 0.431362970200293
0.2350271889999931 0.44894968246213973 0.4284318514899854
0.23521816800075612 0.4479726428920372 0.4235466536394723
0.2354102570006944 0.44992672203224227 0.42159257449926724
0.2356021800005692 0.44894968246213973 0.4264777723497801
0.23579338000035932 0.44699560332193444 0.4303859306301905
0.23598459900040325 0.4460185637518319 0.43429408891060084
0.23617639300027804 0.44699560332193444 0.43429408891060084
0.23637376000078802 0.44699560332193444 0.4382022471910112
0.23657421900043119 0.44699560332193444 0.43917928676111373
0.23677573500026483 0.4509037616023448 0.4430874450415241
0.23697884200009867 0.4528578407425501 0.44894968246213973
0.23717896900052438 0.4509037616023448 0.45481191988275516
0.2373851320007816 0.44992672203224227 0.4557889594528579
0.23759133200019278 0.45188080117244755 0.45969711773326827
0.2378080320004301 0.4509037616023448 0.4636052760136786
0.23803691700049967 0.4528578407425501 0.46165119687347334
0.23835037500066392 0.4528578407425501 0.457743038593063
0.23862818500037974 0.4528578407425501 0.4538348803126526
0.2388555150000684 0.4528578407425501 0.4538348803126526
0.23906590000024153 0.4557889594528579 0.45188080117244755
0.23926769300032902 0.457743038593063 0.4528578407425501
0.23947182000028988 0.4587200781631655 0.4557889594528579
0.23968003800018778 0.457743038593063 0.45481191988275516
0.23988844200084714 0.457743038593063 0.45676599902296044
0.24008818000038445 0.457743038593063 0.457743038593063
0.24030356500043126 0.4587200781631655 0.45969711773326827
0.24053708000064944 0.45969711773326827 0.4557889594528579
0.24078439100048854 0.45969711773326827 0.45676599902296044
0.24103553500026464 0.46165119687347334 0.4557889594528579
0.24134991800019634 0.46165119687347334 0.4538348803126526
0.2416855610008497 0.457743038593063 0.4528578407425501
0.24194102000001294 0.45676599902296044 0.4509037616023448
0.2422835320003287 0.457743038593063 0.4479726428920372
0.24259504600013315 0.45676599902296044 0.4401563263312165
0.2428415420008605 0.45676599902296044 0.42745481191988266
0.2430991860001086 0.45676599902296044 0.42159257449926724
0.2433607180000763 0.4636052760136786 0.4206155349291647
0.24359552900023118 0.45676599902296044 0.4264777723497801
0.24382093300027918 0.457743038593063 0.43624816805080613
0.24405170700083545 0.45676599902296044 0.4450415241817294
0.24430527700042148 0.457743038593063 0.457743038593063
0.24451927300015086 0.45481191988275516 0.46165119687347334
0.24471775100028026 0.4557889594528579 0.46165119687347334
0.2449129520000497 0.45481191988275516 0.4557889594528579
0.2451067450001574 0.4557889594528579 0.4528578407425501
0.2452976310005397 0.4557889594528579 0.45676599902296044
0.24548864600001252 0.4557889594528579 0.45969711773326827
0.24568118000024697 0.45481191988275516 0.4636052760136786
0.24587267700007942 0.4509037616023448 0.4636052760136786
0.24609667300046567 0.45676599902296044 0.46946751343429405
0.24628950300029828 0.4528578407425501 0.4753297508549097
0.2464813150008922 0.4509037616023448 0.47728382999511476
0.24667233000036504 0.4509037616023448 0.4763067904250122
0.24686332700002822 0.45188080117244755 0.4782608695652173
0.24705502800043178 0.45188080117244755 0.4782608695652173
0.2472457840003699 0.4528578407425501 0.4763067904250122
0.2474392620006256 0.45188080117244755 0.47923790913532005
0.24763796200022625 0.44699560332193444 0.47923790913532005
0.24783449599999585 0.45188080117244755 0.48216902784562765
0.24802630800058978 0.4538348803126526 0.48705422569614076
0.24821928600067622 0.44699560332193444 0.48705422569614076
0.24841061600000103 0.44992672203224227 0.4909623839765511
0.24860572400029923 0.44894968246213973 0.4909623839765511
0.24881238700072572 0.44894968246213973 0.48998534440644836
0.24900575500032573 0.44699560332193444 0.48705422569614076
0.249197844000264 0.44406448461162684 0.4753297508549097
0.2493928590001815 0.4479726428920372 0.467513434294089
0.24958448600045813 0.4450415241817294 0.4606741573033708
0.2497759270008828 0.4460185637518319 0.457743038593063
0.24996686800022871 0.44406448461162684 0.44699560332193444
0.25018143900069845 0.44406448461162684 0.44211040547142155
0.25037323200012906 0.44211040547142155 0.4333170493404983
0.25056695100010984 0.44211040547142155 0.4303859306301905
0.25075791100061906 0.44211040547142155 0.42452369320957506
0.2509497040000497 0.44406448461162684 0.4235466536394723
0.2511428860007072 0.441133365901319 0.4206155349291647
0.2513588270003311 0.44211040547142155 0.4235466536394723
0.2515512870004386 0.441133365901319 0.4235466536394723
0.2517428020000807 0.44406448461162684 0.4264777723497801
0.2519342620007592 0.4450415241817294 0.42256961406936977
0.2521256470008666 0.44406448461162684 0.4206155349291647
0.25231670000084705 0.441133365901319 0.4186614557889594
0.25250860400046804 0.4430874450415241 0.42159257449926724
0.25271099000019603 0.44406448461162684 0.4264777723497801
0.25290609800049424 0.4382022471910112 0.4235466536394723
0.25309926100089797 0.4401563263312165 0.4255007327796776
0.253291850000096 0.4382022471910112 0.42745481191988266
0.2534825880002245 0.43722520762090866 0.4264777723497801
0.2536737330001415 0.4352711284807034 0.431362970200293
0.253865952000524 0.43722520762090866 0.42940889106008795
0.25407157800054847 0.43917928676111373 0.4323400097703958
0.25426796400006424 0.44211040547142155 0.4333170493404983
0.254458572000658 0.44211040547142155 0.441133365901319
0.25466512400089414 0.4450415241817294 0.44699560332193444
0.2548658060004527 0.4450415241817294 0.4528578407425501
0.25507319100051973 0.4460185637518319 0.45969711773326827
0.2553059280007801 0.4479726428920372 0.467513434294089
0.25553316500008805 0.45188080117244755 0.47435271128480694
0.25576551300036954 0.44699560332193444 0.4733756717147044
0.2560032690007574 0.4528578407425501 0.4733756717147044
0.25622633900002256 0.4509037616023448 0.47142159257449934
0.2564195020004263 0.4538348803126526 0.4753297508549097
0.25661401800061867 0.45969711773326827 0.4782608695652173
0.2568047000004299 0.45969711773326827 0.486077186126038
0.2569961780000085 0.4538348803126526 0.4880312652662433
0.25718765600049664 0.45188080117244755 0.4880312652662433
0.2573793570009002 0.4528578407425501 0.4831460674157304
0.2575734090005426 0.45481191988275516 0.47142159257449934
0.25776472100005776 0.45676599902296044 0.4557889594528579
0.2579557550006939 0.4587200781631655 0.43917928676111373
0.25817728800029727 0.4587200781631655 0.42940889106008795
0.2583690440005739 0.45969711773326827 0.4284318514899854
0.2585600600004909 0.457743038593063 0.43429408891060084
0.2587511860001541 0.45676599902296044 0.4401563263312165
0.25894266400064225 0.457743038593063 0.44992672203224227
0.2591394200007926 0.4557889594528579 0.4636052760136786
0.25933078800062503 0.457743038593063 0.4704445530043966
0.25952263600083825 0.4557889594528579 0.4733756717147044
0.25971357800062833 0.45481191988275516 0.4782608695652173
0.25993098100025236 0.4528578407425501 0.4782608695652173
0.26012290400012716 0.4557889594528579 0.4811919882755251
0.26031473400053073 0.45188080117244755 0.4753297508549097
0.26050613900042663 0.4528578407425501 0.47239863214460187
0.26069782100057637 0.45188080117244755 0.4684904738641915
0.2608887250007683 0.4538348803126526 0.467513434294089
0.26108014800047386 0.45188080117244755 0.46165119687347334
0.26127108900072926 0.44894968246213973 0.457743038593063
0.261462178000329 0.4509037616023448 0.4509037616023448
0.2616535640008806 0.4528578407425501 0.4460185637518319
0.2618445240004803 0.4557889594528579 0.43917928676111373
0.2620354650007357 0.45676599902296044 0.4333170493404983
0.26223735100029444 0.457743038593063 0.4303859306301905
0.2624286070004018 0.46165119687347334 0.42452369320957506
0.26262053000027663 0.457743038593063 0.4186614557889594
0.2628126750005322 0.45969711773326827 0.4186614557889594
0.26300333800008957 0.46165119687347334 0.4176844162188569
0.26319433500066225 0.4606741573033708 0.41670737664875435
0.26338527600000816 0.45969711773326827 0.4235466536394723
0.2635765880004328 0.45481191988275516 0.42159257449926724
0.26376902900028654 0.457743038593063 0.42159257449926724
0.2639598780006054 0.45676599902296044 0.42940889106008795
0.2641508380002051 0.45481191988275516 0.43624816805080613
0.26434205700024904 0.4528578407425501 0.441133365901319
0.26453297900025063 0.45188080117244755 0.4460185637518319
0.26472432800073875 0.4509037616023448 0.457743038593063
0.2649155100007192 0.44992672203224227 0.4587200781631655
0.2651067480001075 0.4479726428920372 0.457743038593063
0.26529722600025707 0.45188080117244755 0.457743038593063
0.26548803800051246 0.44894968246213973 0.4557889594528579
0.26567896000051405 0.4528578407425501 0.45676599902296044
0.2658696240005156 0.4528578407425501 0.45676599902296044
0.26607099100056075 0.44992672203224227 0.4538348803126526
0.2662738020007964 0.4509037616023448 0.44992672203224227
0.2664865210008429 0.44699560332193444 0.4479726428920372
0.26668398100082413 0.44894968246213973 0.44406448461162684
0.26687708900044527 0.44992672203224227 0.4450415241817294
0.2670713080005953 0.4450415241817294 0.44406448461162684
0.2672882490005577 0.44992672203224227 0.4401563263312165
0.26748319000034826 0.4479726428920372 0.44211040547142155
0.26767602000018087 0.4479726428920372 0.44211040547142155
0.26786936900043656 0.4460185637518319 0.43917928676111373
0.2680698650001432 0.44406448461162684 0.43917928676111373
0.26826332500058925 0.4450415241817294 0.4430874450415241
0.26845400700040045 0.4450415241817294 0.4450415241817294
0.2686455230004867 0.4479726428920372 0.44406448461162684
0.26883698200072104 0.44699560332193444 0.4460185637518319
0.26902838700061693 0.44699560332193444 0.44211040547142155
0.2692197540000052 0.44699560332193444 0.44211040547142155
0.26941365800030326 0.44894968246213973 0.4401563263312165
0.2696065620002628 0.4450415241817294 0.4401563263312165
0.2698083740006041 0.4460185637518319 0.44211040547142155
0.27001066700086085 0.44406448461162684 0.44211040547142155
0.2702213110005687 0.4509037616023448 0.4430874450415241
0.2704258080002546 0.44699560332193444 0.4450415241817294
0.27062826800010953 0.4430874450415241 0.4479726428920372
0.2708438750005371 0.44406448461162684 0.44406448461162684
0.2710497980006039 0.44406448461162684 0.44699560332193444
0.27126103500086174 0.44211040547142155 0.45188080117244755
0.2714883460002966 0.4430874450415241 0.44894968246213973
0.27173915700041107 0.4479726428920372 0.4557889594528579
0.2720247070001278 0.44406448461162684 0.46165119687347334
0.27227627700085577 0.4450415241817294 0.4606741573033708
0.2725036440006079 0.4450415241817294 0.467513434294089
0.2727141590003157 0.4460185637518319 0.4665363947239862
0.2729247300003408 0.4450415241817294 0.46262823644357587
0.2731380410004931 0.4460185637518319 0.457743038593063
0.2733478340005604 0.44894968246213973 0.46262823644357587
0.27356279300056485 0.4479726428920372 0.457743038593063
0.2738064190007208 0.44992672203224227 0.457743038593063
0.27409595100016304 0.44699560332193444 0.46165119687347334
0.27433657700021286 0.4450415241817294 0.4587200781631655
0.2745870170001581 0.4479726428920372 0.457743038593063
0.2748405130005267 0.44992672203224227 0.4538348803126526
0.27505332400050975 0.44992672203224227 0.4528578407425501
0.2752601170004709 0.44699560332193444 0.45188080117244755
0.2754665760003263 0.4460185637518319 0.44992672203224227
0.27566477700020187 0.44992672203224227 0.45481191988275516
0.27586729200083937 0.4479726428920372 0.44699560332193444
0.2761178430000655 0.4460185637518319 0.441133365901319
0.2763673760000529 0.4460185637518319 0.44211040547142155
0.27657816900045873 0.4460185637518319 0.441133365901319
0.2767699250007354 0.44699560332193444 0.44211040547142155
0.27696121799999673 0.4479726428920372 0.4450415241817294
0.2771757330001492 0.4479726428920372 0.4509037616023448
0.27737411900034203 0.4479726428920372 0.4528578407425501
0.27756806000070355 0.4460185637518319 0.4557889594528579
0.2777602610003669 0.44992672203224227 0.45676599902296044
0.2779514060002839 0.4509037616023448 0.457743038593063
0.27818482800012134 0.45188080117244755 0.45676599902296044
0.2783764540008633 0.44992672203224227 0.45969711773326827
0.27856767299999774 0.4528578407425501 0.45188080117244755
0.27875850400050695 0.45188080117244755 0.4460185637518319
0.2789519260004454 0.457743038593063 0.4460185637518319
0.2791435340004682 0.44992672203224227 0.44406448461162684
0.2793355310004699 0.45481191988275516 0.4430874450415241
0.27952713900049275 0.4528578407425501 0.43917928676111373
0.27971854300085397 0.4528578407425501 0.43722520762090866
0.27990979900005186 0.45481191988275516 0.43624816805080613
0.28010100000028615 0.4509037616023448 0.4382022471910112
0.2802919230007319 0.4538348803126526 0.441133365901319
0.28051121500084264 0.4509037616023448 0.441133365901319
0.2807028970000829 0.4538348803126526 0.44211040547142155
0.28089448700029607 0.4538348803126526 0.43624816805080613
0.2810859650007842 0.45481191988275516 0.43917928676111373
0.2812774800004263 0.4538348803126526 0.4430874450415241
0.281469477000428 0.45481191988275516 0.4460185637518319
0.28166128900011245 0.4528578407425501 0.44699560332193444
0.2818525260008755 0.4538348803126526 0.45676599902296044
0.28204544900017936 0.457743038593063 0.4587200781631655
0.28224990900071134 0.4557889594528579 0.4606741573033708
0.28244131300016306 0.45481191988275516 0.4636052760136786
0.28263251400039735 0.45481191988275516 0.46458231558378116
0.2828235840006528 0.45481191988275516 0.46262823644357587
0.2830148780003583 0.45188080117244755 0.457743038593063
0.28320661500038113 0.4509037616023448 0.4557889594528579
0.28339755600063654 0.4528578407425501 0.4479726428920372
0.283588294000765 0.4509037616023448 0.44211040547142155
0.2837794020006186 0.4509037616023448 0.4401563263312165
0.2839696950004509 0.44894968246213973 0.4382022471910112
0.284160766000241 0.4509037616023448 0.441133365901319
0.28435207800066564 0.4528578407425501 0.4460185637518319
0.28454327800045576 0.4528578407425501 0.4509037616023448
0.28473434900024586 0.4528578407425501 0.4509037616023448
0.284927420000713 0.45188080117244755 0.44894968246213973
0.28511858400088386 0.4557889594528579 0.457743038593063
0.28531100600048376 0.4557889594528579 0.4538348803126526
0.285514929000783 0.4538348803126526 0.45481191988275516
0.2857065000007424 0.457743038593063 0.4606741573033708
0.2858977000005325 0.45481191988275516 0.45676599902296044
0.28609003000019584 0.4509037616023448 0.4509037616023448
0.2863110450007298 0.4509037616023448 0.4430874450415241
0.2865035610002451 0.45188080117244755 0.4382022471910112
0.2866948170003525 0.44894968246213973 0.4264777723497801
0.286886240000058 0.45188080117244755 0.4186614557889594
0.2870782180007154 0.4509037616023448 0.4137762579384465
0.2872708440008864 0.4538348803126526 0.4079140205178309
0.2874620820002747 0.44992672203224227 0.40889106008793363
0.28765735600063636 0.4509037616023448 0.4040058622374205
0.28786398300053406 0.44992672203224227 0.41182217879824123
0.2880643870003041 0.44992672203224227 0.4235466536394723
0.28826749400013796 0.44992672203224227 0.4460185637518319
0.28846897300081764 0.44894968246213973 0.4704445530043966
0.28866893200029153 0.44992672203224227 0.4948705422569615
0.28886159600006067 0.44699560332193444 0.5192965315095261
0.2890535370006546 0.4479726428920372 0.5359062042012701
0.28924664500027575 0.4479726428920372 0.5368832437713726
0.28943751200040424 0.44699560332193444 0.5319980459208598
0.2896286200002578 0.44699560332193444 0.5163654127992183
0.28982408000047144 0.4450415241817294 0.495847581827064
0.29001561400036735 0.4450415241817294 0.4753297508549097
0.2902106290002848 0.44699560332193444 0.45676599902296044
0.29040216300018074 0.44699560332193444 0.441133365901319
0.29059454900016135 0.4430874450415241 0.4255007327796776
0.29078674900029 0.4460185637518319 0.41475329750854906
0.2909778760003974 0.43917928676111373 0.4059599413776258
0.2911701130005895 0.441133365901319 0.4040058622374205
0.2913614620001681 0.43917928676111373 0.40986809965803617
0.2915529220008466 0.4401563263312165 0.42159257449926724
0.2917443630003618 0.441133365901319 0.4382022471910112
0.29193508200023643 0.4401563263312165 0.4538348803126526
0.29212537500006874 0.43917928676111373 0.46458231558378116
0.2923187420001341 0.4430874450415241 0.46458231558378116
0.29251079500045307 0.44211040547142155 0.4606741573033708
0.29270262500085664 0.43917928676111373 0.4509037616023448
0.2929266400005872 0.4401563263312165 0.44699560332193444
0.2931176179999966 0.4401563263312165 0.4401563263312165
0.2933096700007809 0.43917928676111373 0.4333170493404983
0.29350077800063445 0.44211040547142155 0.431362970200293
0.29369251600019197 0.44406448461162684 0.431362970200293
0.2938947900001949 0.4450415241817294 0.4284318514899854
0.2940880090000064 0.4479726428920372 0.43429408891060084
0.29427956200015615 0.44699560332193444 0.4382022471910112
0.2944704470000943 0.4509037616023448 0.44699560332193444
0.2946617220004555 0.4509037616023448 0.4509037616023448
0.29485270000077435 0.44992672203224227 0.45481191988275516
0.29504651200022636 0.4538348803126526 0.46262823644357587
0.2952385270000377 0.44894968246213973 0.4655593551538837
0.29542911700082186 0.44992672203224227 0.47142159257449934
0.29562018800061196 0.4460185637518319 0.4733756717147044
0.2958102400007192 0.44894968246213973 0.4763067904250122
0.2960013850006362 0.44992672203224227 0.4802149487054226
0.29619260400068015 0.45188080117244755 0.4811919882755251
0.29638362000059715 0.44894968246213973 0.47923790913532005
0.2965745790006622 0.44699560332193444 0.4753297508549097
0.2967649470001561 0.44699560332193444 0.4704445530043966
0.2969557030000942 0.4460185637518319 0.4684904738641915
0.2971463850008149 0.44992672203224227 0.4684904738641915
0.2973370670006261 0.4460185637518319 0.4665363947239862
0.29752771200037387 0.4460185637518319 0.4655593551538837
0.2977186160005658 0.4450415241817294 0.4606741573033708
0.29790983500060975 0.44894968246213973 0.45969711773326827
0.29810109100071713 0.44894968246213973 0.45676599902296044
0.29829281000002084 0.4460185637518319 0.4509037616023448
0.29848390000006475 0.44894968246213973 0.44699560332193444
0.2986748040002567 0.4538348803126526 0.44406448461162684
0.2988660600003641 0.44992672203224227 0.43722520762090866
0.2990565570007675 0.4538348803126526 0.43429408891060084
0.2992470540002614 0.45188080117244755 0.4284318514899854
0.2994381250000515 0.4557889594528579 0.4264777723497801
0.2996428430005835 0.45481191988275516 0.4235466536394723
0.2998462660007135 0.4538348803126526 0.4264777723497801
0.3000429290004831 0.457743038593063 0.4264777723497801
0.3002348150002945 0.45676599902296044 0.4303859306301905
0.3004263120001269 0.45676599902296044 0.43624816805080613
0.3006190680007421 0.46262823644357587 0.43429408891060084
0.3008098060008706 0.4528578407425501 0.431362970200293
0.30100063600002613 0.457743038593063 0.42940889106008795
0.30119178100085264 0.4538348803126526 0.4264777723497801
0.30138246300066385 0.4528578407425501 0.4255007327796776
0.3015740890004963 0.4557889594528579 0.4255007327796776
0.3017666420000751 0.4528578407425501 0.41670737664875435
0.3019876380003552 0.4509037616023448 0.41475329750854906
0.3021862460000193 0.4509037616023448 0.412799218368344
0.30237726100040163 0.44992672203224227 0.41182217879824123
0.3025684620006359 0.4460185637518319 0.412799218368344
0.30275929200070095 0.4509037616023448 0.41475329750854906
0.3029857700003049 0.44894968246213973 0.4157303370786516
0.30318622900085757 0.44699560332193444 0.4186614557889594
0.30338859600033175 0.4479726428920372 0.4235466536394723
0.30358585200065136 0.44992672203224227 0.43429408891060084
0.3037847010000405 0.4479726428920372 0.43917928676111373
0.3039854380003817 0.44992672203224227 0.44894968246213973
0.30418682400068064 0.4509037616023448 0.45969711773326827
0.30439154300074733 0.45188080117244755 0.4665363947239862
0.30459846500070853 0.45188080117244755 0.46946751343429405
0.3047987950003517 0.45188080117244755 0.467513434294089
0.3050190140002087 0.4528578407425501 0.4655593551538837
0.30525297300027887 0.45188080117244755 0.46165119687347334
0.30554017200029193 0.4528578407425501 0.4557889594528579
0.3058297780007706 0.4538348803126526 0.45969711773326827
0.30611969900019176 0.4528578407425501 0.467513434294089
0.306354177000685 0.45481191988275516 0.4763067904250122
0.30656541400003334 0.4538348803126526 0.486077186126038
0.30677007800022693 0.4528578407425501 0.495847581827064
0.30698922200008383 0.44894968246213973 0.5036638983878847
0.3071962740004892 0.44992672203224227 0.5144113336590133
0.3074218630008545 0.44894968246213973 0.5144113336590133
0.30768102500042005 0.4479726428920372 0.5134342940889105
0.3079356510006619 0.4479726428920372 0.5095261358085001
0.30816940600016096 0.44699560332193444 0.49682462139716654
0.3084344940007213 0.4450415241817294 0.4851001465559355
0.3086626390004312 0.4479726428920372 0.467513434294089
0.3088701910000964 0.44699560332193444 0.4587200781631655
0.3090720580003108 0.4479726428920372 0.4509037616023448
0.3092690550001862 0.44992672203224227 0.44406448461162684
0.3094672180004636 0.4450415241817294 0.4401563263312165
0.30967630700070004 0.4479726428920372 0.4382022471910112
0.30993317300089984 0.4460185637518319 0.4382022471910112
0.3102202240006591 0.4479726428920372 0.44211040547142155
0.3104203510001753 0.4509037616023448 0.4352711284807034
0.31061347700051556 0.4479726428920372 0.4323400097703958
0.31080491800003074 0.44992672203224227 0.431362970200293
0.31099795200043445 0.4450415241817294 0.4284318514899854
0.31120943000041734 0.44699560332193444 0.4284318514899854
0.3114013160002287 0.44699560332193444 0.42940889106008795
0.31159260900039953 0.44699560332193444 0.42940889106008795
0.3117845130000205 0.4460185637518319 0.42940889106008795
0.31197599100050866 0.44699560332193444 0.4284318514899854
0.31216765500084875 0.4460185637518319 0.42940889106008795
0.31235948500034283 0.4460185637518319 0.42745481191988266
0.3125525370005562 0.4450415241817294 0.42745481191988266
0.31274340500021935 0.4460185637518319 0.42745481191988266
0.31293427200034785 0.4450415241817294 0.42745481191988266
0.31312567600070906 0.44406448461162684 0.42745481191988266
0.31331646900071064 0.44406448461162684 0.4264777723497801
0.3135132440002053 0.4401563263312165 0.4264777723497801
0.3137051670000801 0.4401563263312165 0.4255007327796776
0.31389690400010295 0.441133365901319 0.4255007327796776
0.3140902160002952 0.441133365901319 0.4264777723497801
0.3142818050000642 0.4401563263312165 0.4235466536394723
0.31447304300036194 0.4401563263312165 0.4206155349291647
0.3146649840000464 0.43917928676111373 0.4206155349291647
0.31485577700004796 0.43917928676111373 0.4186614557889594
0.3150472550005361 0.43917928676111373 0.42256961406936977
0.3152394380003898 0.4382022471910112 0.4255007327796776
0.31543067500024335 0.43917928676111373 0.431362970200293
0.3156228390007527 0.4401563263312165 0.43917928676111373
0.315814206000141 0.43722520762090866 0.4479726428920372
0.3160060540003542 0.4430874450415241 0.4538348803126526
0.3161975880002501 0.4430874450415241 0.45676599902296044
0.31638947400006145 0.44992672203224227 0.4587200781631655
0.3165812490005919 0.4401563263312165 0.4538348803126526
0.31677206000040314 0.44406448461162684 0.4509037616023448
0.316965261000405 0.4430874450415241 0.44992672203224227
0.31715603500015277 0.4450415241817294 0.4557889594528579
0.31734677300028125 0.44699560332193444 0.45481191988275516
0.317537696000727 0.44406448461162684 0.4655593551538837
0.3177290260000518 0.44992672203224227 0.4704445530043966
0.31792137500087847 0.4509037616023448 0.47923790913532005
0.31811442700018233 0.4509037616023448 0.4851001465559355
0.31830635000005714 0.4557889594528579 0.4880312652662433
0.3184973470006298 0.45188080117244755 0.48900830483634583
0.3187038060004852 0.4528578407425501 0.4929164631167562
0.31889659900025435 0.4528578407425501 0.4938935026868587
0.3190878180002983 0.4557889594528579 0.49682462139716654
0.3192796110006384 0.4557889594528579 0.5017098192476794
0.31947970100009115 0.457743038593063 0.5065950170981925
0.3196723090004525 0.45676599902296044 0.5114802149487054
0.31986391700047534 0.457743038593063 0.522227650219834
0.3200552280004558 0.45676599902296044 0.522227650219834
0.3202465400008805 0.45676599902296044 0.5192965315095261
0.32043738900028984 0.4587200781631655 0.5163654127992183
0.32062831100029143 0.45676599902296044 0.5095261358085001
0.32082258600075875 0.4557889594528579 0.4978016609672691
0.3210140270002739 0.45676599902296044 0.48705422569614076
0.3212052090002544 0.4538348803126526 0.47239863214460187
0.32140120600070077 0.4557889594528579 0.4636052760136786
0.32160590600051364 0.4557889594528579 0.4538348803126526
0.3218073470006857 0.4557889594528579 0.44699560332193444
0.3220061030006036 0.45481191988275516 0.44406448461162684
0.322235451000779 0.4538348803126526 0.4430874450415241
0.3224286890008443 0.4538348803126526 0.441133365901319
0.3226197410003806 0.4528578407425501 0.44406448461162684
0.3228106270007629 0.4538348803126526 0.44406448461162684
0.3230016240004261 0.4538348803126526 0.4430874450415241
0.323192399000618 0.4528578407425501 0.441133365901319
0.3233863030000066 0.4538348803126526 0.4382022471910112
0.32357748500089656 0.45188080117244755 0.4352711284807034
0.3237693520004541 0.44992672203224227 0.431362970200293
0.32396383000013884 0.4479726428920372 0.4284318514899854
0.3241552720000982 0.4479726428920372 0.42452369320957506
0.3243479910006499 0.4479726428920372 0.4176844162188569
0.32453893199999584 0.44992672203224227 0.4157303370786516
0.32473561400001927 0.4479726428920372 0.4108451392281387
0.3249270920005074 0.44894968246213973 0.40986809965803617
0.32511766300012823 0.45188080117244755 0.40986809965803617
0.3253085300002567 0.44894968246213973 0.4137762579384465
0.32549967500017374 0.4509037616023448 0.41963849535906195
0.3256916540003658 0.44894968246213973 0.42256961406936977
0.3258826870005578 0.45188080117244755 0.4264777723497801
0.32608318400070857 0.44894968246213973 0.4323400097703958
0.326274681000541 0.44992672203224227 0.43917928676111373
0.32646610400024656 0.44894968246213973 0.4450415241817294
0.32665710100081924 0.4479726428920372 0.4509037616023448
0.3268474120004612 0.44992672203224227 0.457743038593063
0.32703852000031475 0.44894968246213973 0.45969711773326827
0.32723044300018955 0.44992672203224227 0.46262823644357587
0.3274217550006142 0.44894968246213973 0.4636052760136786
0.3276130110007216 0.44699560332193444 0.45676599902296044
0.3278425810003682 0.4479726428920372 0.4557889594528579
0.32803450400024303 0.44699560332193444 0.4528578407425501
0.328225408000435 0.4479726428920372 0.44992672203224227
0.3284164790002251 0.44699560332193444 0.44894968246213973
0.3286074940006074 0.44894968246213973 0.44894968246213973
0.32879839900033403 0.4479726428920372 0.4479726428920372
0.3289884510004413 0.44894968246213973 0.44894968246213973
0.32917867000014667 0.44699560332193444 0.4509037616023448
0.3293701670008886 0.44992672203224227 0.44406448461162684
0.3295610340001076 0.441133365901319 0.44211040547142155
0.3297517720002361 0.4450415241817294 0.441133365901319
0.32994215700000495 0.4450415241817294 0.4382022471910112
0.33014383900081157 0.4450415241817294 0.4382022471910112
0.33033485500072857 0.44992672203224227 0.4401563263312165
0.33052487000077235 0.4460185637518319 0.4460185637518319
0.3307153110008585 0.44894968246213973 0.44699560332193444
0.33091482700001507 0.4479726428920372 0.4528578407425501
0.33110710100027063 0.44699560332193444 0.4528578407425501
0.33129852400088566 0.4479726428920372 0.45188080117244755
0.331489817000147 0.4479726428920372 0.44699560332193444
0.33168027700048697 0.44699560332193444 0.43917928676111373
0.33187197700044635 0.4479726428920372 0.44211040547142155
0.33206312200036336 0.45188080117244755 0.44211040547142155
0.332254434000788 0.44699560332193444 0.4352711284807034
0.332446209000409 0.4479726428920372 0.43917928676111373
0.3326369460000933 0.44992672203224227 0.4382022471910112
0.33282805400085635 0.4479726428920372 0.43722520762090866
0.3330209580008159 0.4479726428920372 0.4382022471910112
0.3332128260008176 0.4450415241817294 0.4382022471910112
0.3334161930006303 0.4479726428920372 0.4401563263312165
0.333621800000401 0.4430874450415241 0.4450415241817294
0.33381331600048725 0.44211040547142155 0.44894968246213973
0.3340038310007003 0.44406448461162684 0.4557889594528579
0.3341975500006811 0.4460185637518319 0.4606741573033708
0.3343883060006192 0.4450415241817294 0.46262823644357587
0.3345793030002824 0.4460185637518319 0.4665363947239862
0.3347716150001361 0.44699560332193444 0.47142159257449934
0.3349626110002646 0.4479726428920372 0.4733756717147044
0.3351536820000547 0.4509037616023448 0.47728382999511476
0.33534499400047935 0.4509037616023448 0.4802149487054226
0.3355392870007563 0.44894968246213973 0.4851001465559355
0.33573283900022943 0.44699560332193444 0.4851001465559355
0.33595481700012897 0.4479726428920372 0.4851001465559355
0.33615407300021616 0.44894968246213973 0.47923790913532005
0.3363533850006206 0.4450415241817294 0.4763067904250122
0.33655441800055996 0.44992672203224227 0.4733756717147044
0.33675673000016104 0.4460185637518319 0.4733756717147044
0.33695776400054456 0.44699560332193444 0.46946751343429405
0.33716020500014565 0.44699560332193444 0.46946751343429405
0.33736109000074066 0.44894968246213973 0.4655593551538837
0.33756319800068013 0.4509037616023448 0.4636052760136786
0.33777671300049406 0.44894968246213973 0.4636052760136786
0.33798176500022237 0.4528578407425501 0.45188080117244755
0.33821279800031334 0.4538348803126526 0.44992672203224227
0.3384170540002742 0.45188080117244755 0.44894968246213973
0.3386202730007426 0.45481191988275516 0.4479726428920372
0.3388426770006845 0.4538348803126526 0.4450415241817294
0.33907943200028967 0.457743038593063 0.441133365901319
0.3393023920007181 0.4557889594528579 0.4401563263312165
0.3395320730005551 0.4538348803126526 0.43722520762090866
0.3397635880000962 0.4557889594528579 0.43917928676111373
0.34000682400073856 0.45481191988275516 0.4430874450415241
0.3402425430003859 0.45481191988275516 0.4430874450415241
0.3404820940004356 0.457743038593063 0.441133365901319
0.34068894300071406 0.45676599902296044 0.43722520762090866
0.34089632800078107 0.45969711773326827 0.4333170493404983
0.3411001030008265 0.457743038593063 0.42745481191988266
0.3413011730008293 0.45481191988275516 0.42452369320957506
0.341496874000768 0.45676599902296044 0.4206155349291647
0.3416984080004113 0.457743038593063 0.4176844162188569
0.34189125600005354 0.4587200781631655 0.4157303370786516
0.3420871050002461 0.457743038593063 0.4137762579384465
0.34227873100007855 0.45676599902296044 0.4186614557889594
0.34248487600052613 0.4587200781631655 0.4284318514899854
0.34271996500046953 0.457743038593063 0.42940889106008795
0.34298547900016274 0.4587200781631655 0.43624816805080613
0.3432306230006361 0.45676599902296044 0.44406448461162684
0.3434659520007699 0.45676599902296044 0.45481191988275516
0.34370457800014265 0.457743038593063 0.457743038593063
0.3439407410005515 0.45481191988275516 0.467513434294089
0.3441793480005799 0.457743038593063 0.4655593551538837
0.3443831220001812 0.4587200781631655 0.4655593551538837
0.3445818040008817 0.45969711773326827 0.467513434294089
0.34499196400065557 0.45481191988275516 0.4665363947239862
0.3452948850008397 0.45481191988275516 0.4665363947239862
0.34550332600065303 0.4557889594528579 0.46165119687347334
0.3456974150003589 0.4587200781631655 0.4606741573033708
0.34588865300065663 0.457743038593063 0.457743038593063
0.3460911310003212 0.4587200781631655 0.4538348803126526
0.3462847390001116 0.4606741573033708 0.4528578407425501
0.3464760690003459 0.457743038593063 0.4460185637518319
0.3466698250003901 0.45481191988275516 0.441133365901319
0.34686126700034947 0.4538348803126526 0.4401563263312165
0.3470518930007529 0.4528578407425501 0.43624816805080613
0.34724302000086027 0.45481191988275516 0.4382022471910112
0.3474341830005869 0.45188080117244755 0.4430874450415241
0.347625254000377 0.4538348803126526 0.441133365901319
0.3478158620000613 0.4528578407425501 0.441133365901319
0.3480067850005071 0.4538348803126526 0.44211040547142155
0.3481977260007625 0.4538348803126526 0.4382022471910112
0.3483890010002142 0.44992672203224227 0.4382022471910112
0.3485797570001523 0.44992672203224227 0.43624816805080613
0.34877058700021735 0.44992672203224227 0.4382022471910112
0.34896184300032473 0.4528578407425501 0.4382022471910112
0.3491530810006225 0.44894968246213973 0.4430874450415241
0.34934528100075113 0.4528578407425501 0.4460185637518319
0.349536093000097 0.4509037616023448 0.44894968246213973
0.34972697900047933 0.44894968246213973 0.4528578407425501
0.34991751200050203 0.4479726428920372 0.45481191988275516
0.350118898000801 0.44992672203224227 0.4538348803126526
0.3503112280004643 0.4460185637518319 0.4528578407425501
0.3505020950005928 0.44992672203224227 0.45188080117244755
0.3506928330007213 0.44699560332193444 0.44894968246213973
0.3508835150005325 0.44699560332193444 0.44992672203224227
0.3510745300000053 0.44406448461162684 0.44894968246213973
0.35126587900049344 0.44406448461162684 0.4528578407425501
0.3514563940007065 0.44992672203224227 0.44894968246213973
0.35164711300058116 0.4460185637518319 0.4479726428920372
0.35183764700013853 0.44406448461162684 0.44992672203224227
0.352028385000267 0.44406448461162684 0.44894968246213973
0.35221843700037425 0.4430874450415241 0.44894968246213973
0.35240989700014325 0.441133365901319 0.4479726428920372
0.3526013380005679 0.4430874450415241 0.44406448461162684
0.35281368700088933 0.4430874450415241 0.441133365901319
0.35300481300055253 0.44211040547142155 0.43917928676111373
0.35319577300015226 0.4401563263312165 0.4352711284807034
0.3533882330002598 0.43917928676111373 0.4352711284807034
0.353592359000686 0.441133365901319 0.4323400097703958
0.35378381900045497 0.4460185637518319 0.431362970200293
0.353975408000224 0.44699560332193444 0.4333170493404983
0.35417101600069145 0.4460185637518319 0.43429408891060084
0.35436338300041825 0.4460185637518319 0.4352711284807034
0.3545546020004622 0.4479726428920372 0.43722520762090866
0.3547455810003157 0.44699560332193444 0.4401563263312165
0.3549364850005077 0.44992672203224227 0.4450415241817294
0.3551269260005938 0.44894968246213973 0.44894968246213973
0.3553201820004688 0.44992672203224227 0.45188080117244755
0.35551332700015337 0.4538348803126526 0.45676599902296044
0.35572395300005155 0.4509037616023448 0.45969711773326827
0.35593680200054223 0.4509037616023448 0.46165119687347334
0.3561396320001222 0.4509037616023448 0.457743038593063
0.35633779500039964 0.4528578407425501 0.4557889594528579
0.3565300330001264 0.4538348803126526 0.457743038593063
0.35672190000059345 0.45481191988275516 0.45481191988275516
0.3569383960002597 0.4509037616023448 0.4557889594528579
0.3571308560003672 0.45481191988275516 0.46165119687347334
0.3573215570004322 0.4509037616023448 0.467513434294089
0.35751538700060337 0.4538348803126526 0.4811919882755251
0.35770721700009744 0.45188080117244755 0.4753297508549097
0.35789873200064903 0.4538348803126526 0.47923790913532005
0.3581003770004827 0.4538348803126526 0.4811919882755251
0.35829233700042096 0.4538348803126526 0.4802149487054226
0.3584826490005071 0.4528578407425501 0.4782608695652173
0.3586745160000646 0.4538348803126526 0.47435271128480694
0.358866809000574 0.4538348803126526 0.46946751343429405
0.3590575650005121 0.4557889594528579 0.4636052760136786
0.3592484320006406 0.4528578407425501 0.46165119687347334
0.3594395770005576 0.45481191988275516 0.4655593551538837
0.3596310930006439 0.46165119687347334 0.46165119687347334
0.3598228120008571 0.46262823644357587 0.4606741573033708
0.3600140120006472 0.4587200781631655 0.45969711773326827
0.3602046390005853 0.457743038593063 0.45969711773326827
0.3603958760004389 0.45676599902296044 0.4636052760136786
0.3605867060005039 0.45676599902296044 0.45676599902296044
0.3607782960007171 0.4557889594528579 0.45969711773326827
0.3609691630008456 0.4538348803126526 0.44992672203224227
0.3611599930000011 0.457743038593063 0.4430874450415241
0.36135317500065867 0.4538348803126526 0.4382022471910112
0.36155157900066115 0.4528578407425501 0.43722520762090866
0.36174402100004954 0.4557889594528579 0.43624816805080613
0.36195868400045583 0.4528578407425501 0.4352711284807034
0.36217282800043904 0.4528578407425501 0.4352711284807034
0.36236397300035605 0.4528578407425501 0.4382022471910112
0.362556341000527 0.45188080117244755 0.43722520762090866
0.36274763400069787 0.4528578407425501 0.43722520762090866
0.3629383710003822 0.4538348803126526 0.43624816805080613
0.36312975700002426 0.45481191988275516 0.4352711284807034
0.36332145700089313 0.4538348803126526 0.4303859306301905
0.3635136770008103 0.4557889594528579 0.431362970200293
0.3637049510007273 0.4606741573033708 0.42940889106008795
0.3638977630007503 0.4538348803126526 0.4303859306301905
0.36408894500073075 0.4528578407425501 0.4323400097703958
0.364279868000267 0.4538348803126526 0.43429408891060084
0.36447108700031094 0.45676599902296044 0.43624816805080613
0.3646618800003125 0.45188080117244755 0.44211040547142155
0.3648525430007794 0.44699560332193444 0.441133365901319
0.3650438730001042 0.45188080117244755 0.44406448461162684
0.3652360550004232 0.4509037616023448 0.4450415241817294
0.3654275150001922 0.44992672203224227 0.4450415241817294
0.3656194200002574 0.44894968246213973 0.4479726428920372
0.3658110270007455 0.4538348803126526 0.4450415241817294
0.3660028020003665 0.46165119687347334 0.4460185637518319
0.36619416900066426 0.4528578407425501 0.4479726428920372
0.3663856850007505 0.45188080117244755 0.44894968246213973
0.36657649600056175 0.4538348803126526 0.4509037616023448
0.3667684010006269 0.4509037616023448 0.4528578407425501
0.3669744710005034 0.4528578407425501 0.4557889594528579
0.36717909700018936 0.45188080117244755 0.45969711773326827
0.3673703350004871 0.4509037616023448 0.4587200781631655
0.3675619990008272 0.45188080117244755 0.4655593551538837
0.3677557730006811 0.4509037616023448 0.4655593551538837
0.3679486220007675 0.44992672203224227 0.46946751343429405
0.3681400820005365 0.4479726428920372 0.4753297508549097
0.3683319860001575 0.4479726428920372 0.47923790913532005
0.36852298300073016 0.44699560332193444 0.48216902784562765
0.36871383100060484 0.4450415241817294 0.48412310698583294
0.3689053470006911 0.4460185637518319 0.4753297508549097
0.3690971400001217 0.44699560332193444 0.46262823644357587
0.3693084330006968 0.4509037616023448 0.4528578407425501
0.36950198500016995 0.44699560332193444 0.4430874450415241
0.36969357400084846 0.44406448461162684 0.4303859306301905
0.36988633000055415 0.4450415241817294 0.4206155349291647
0.37008651200085296 0.44699560332193444 0.41475329750854906
0.37027838000085467 0.4450415241817294 0.4108451392281387
0.3704700620000949 0.44992672203224227 0.41475329750854906
0.37066237300041394 0.441133365901319 0.4186614557889594
0.3708535000005213 0.441133365901319 0.4264777723497801
0.3710446820005018 0.44406448461162684 0.4352711284807034
0.37123573400003806 0.4430874450415241 0.4401563263312165
0.3714269720003358 0.4430874450415241 0.44406448461162684
0.3716175060008027 0.4430874450415241 0.44992672203224227
0.3718083730000217 0.4460185637518319 0.45188080117244755
0.37199949900059437 0.4450415241817294 0.45969711773326827
0.37219557000025816 0.4450415241817294 0.44699560332193444
0.37239749300078984 0.441133365901319 0.44406448461162684
0.3725881560003472 0.44699560332193444 0.44699560332193444
0.3727796160001162 0.44406448461162684 0.4479726428920372
0.3729705570003716 0.4430874450415241 0.44894968246213973
0.37316170200028864 0.44406448461162684 0.4450415241817294
0.373353144000248 0.44211040547142155 0.43917928676111373
0.3735445480006092 0.4401563263312165 0.4323400097703958
0.3737363960008224 0.44211040547142155 0.4264777723497801
0.37392841200016846 0.441133365901319 0.42159257449926724
0.3741193720006777 0.4450415241817294 0.4206155349291647
0.374312017000193 0.4450415241817294 0.4206155349291647
0.37450308700044843 0.4430874450415241 0.42940889106008795
0.37469476900059817 0.44406448461162684 0.4430874450415241
0.37488543300059973 0.4460185637518319 0.45481191988275516
0.37507678200017835 0.44406448461162684 0.4665363947239862
0.37526718600020104 0.44406448461162684 0.4763067904250122
0.37545825700090063 0.44406448461162684 0.4851001465559355
0.3756488650005849 0.44699560332193444 0.48998534440644836
0.37584036200041737 0.4460185637518319 0.4909623839765511
0.37603208100063057 0.44699560332193444 0.48998534440644836
0.3762230410002303 0.4450415241817294 0.486077186126038
0.3764141480005492 0.4460185637518319 0.4802149487054226
0.3766055900005085 0.4450415241817294 0.4753297508549097
0.37679701300021406 0.44894968246213973 0.4733756717147044
0.37698786100008874 0.44894968246213973 0.47142159257449934
0.3771788400008518 0.4509037616023448 0.4763067904250122
0.3773694470000919 0.45188080117244755 0.4802149487054226
0.3775610370003051 0.45188080117244755 0.48412310698583294
0.3777515340007085 0.45188080117244755 0.48900830483634583
0.3779434570005833 0.4538348803126526 0.48900830483634583
0.3781566750003549 0.4528578407425501 0.48998534440644836
0.3783484870000393 0.4557889594528579 0.4929164631167562
0.37854037300076016 0.45481191988275516 0.48705422569614076
0.37873209200006386 0.4528578407425501 0.48705422569614076
0.3789234960004251 0.4538348803126526 0.48216902784562765
0.3791160850005326 0.4538348803126526 0.4763067904250122
0.3793078600001536 0.4528578407425501 0.4684904738641915
0.37949902300078975 0.4528578407425501 0.4636052760136786
0.37969009400057985 0.4528578407425501 0.45188080117244755
0.37988118400062376 0.457743038593063 0.4401563263312165
0.38007218100028695 0.4538348803126526 0.4284318514899854
0.380263140000352 0.45481191988275516 0.41475329750854906
0.38045424800020555 0.45481191988275516 0.4040058622374205
0.380645579000884 0.4557889594528579 0.3981436248168051
0.38083620500037796 0.457743038593063 0.3981436248168051
0.3810268500001257 0.4557889594528579 0.40205178309721545
0.38121851300002163 0.4557889594528579 0.412799218368344
0.3814142510000238 0.4538348803126526 0.42256961406936977
0.38160595200042735 0.45481191988275516 0.4303859306301905
0.3817977820008309 0.4528578407425501 0.4382022471910112
0.3819886490000499 0.45188080117244755 0.43917928676111373
0.3821800160003477 0.45188080117244755 0.44211040547142155
0.3823713090005185 0.45188080117244755 0.44406448461162684
0.38256226900011825 0.4587200781631655 0.441133365901319
0.38275352500022564 0.4528578407425501 0.4401563263312165
0.38294422600029066 0.45481191988275516 0.43917928676111373
0.38313601900063077 0.4557889594528579 0.4382022471910112
0.3833265900002516 0.45481191988275516 0.4323400097703958
0.383517087000655 0.4587200781631655 0.4303859306301905
0.383707639000022 0.46165119687347334 0.4255007327796776
0.38389867300065816 0.45969711773326827 0.4255007327796776
0.38409018800030026 0.457743038593063 0.42745481191988266
0.3842812410002807 0.45969711773326827 0.4352711284807034
0.38447227500000736 0.45969711773326827 0.43722520762090866
0.3846636420003051 0.45481191988275516 0.4460185637518319
0.38485491600022215 0.45481191988275516 0.45188080117244755
0.38504574700073135 0.4528578407425501 0.46165119687347334
0.38523668800007727 0.44992672203224227 0.4704445530043966
0.3854292220003117 0.44992672203224227 0.4811919882755251
0.38562012600050366 0.45188080117244755 0.48216902784562765
0.3858109010006956 0.4538348803126526 0.4880312652662433
0.38600123100059136 0.4538348803126526 0.4929164631167562
0.38619285700042383 0.45188080117244755 0.4929164631167562
0.38642620500013436 0.4528578407425501 0.49975574010747437
0.3866242570002214 0.45188080117244755 0.5036638983878847
0.38682649500060506 0.45188080117244755 0.5017098192476794
0.387024214000121 0.45188080117244755 0.5017098192476794
0.3872251550001238 0.44894968246213973 0.5036638983878847
0.38742654100042273 0.44992672203224227 0.49193942354665365
0.3876315560000876 0.4479726428920372 0.4880312652662433
0.387841811000726 0.4479726428920372 0.48412310698583294
0.3880456230008349 0.44699560332193444 0.4763067904250122
0.38824693400056276 0.4460185637518319 0.47435271128480694
0.38845063500048127 0.44406448461162684 0.4665363947239862
0.3886703350008247 0.4450415241817294 0.4587200781631655
0.3888827940008923 0.4460185637518319 0.45676599902296044
0.3891112350002004 0.44211040547142155 0.44894968246213973
0.3893515090003348 0.44406448461162684 0.4450415241817294
0.3895899310000459 0.4509037616023448 0.4382022471910112
0.3898348160000751 0.44406448461162684 0.43917928676111373
0.39012338500015176 0.441133365901319 0.4382022471910112
0.39034830700074963 0.44406448461162684 0.441133365901319
0.3905530810006894 0.4450415241817294 0.43722520762090866
0.39076087400007964 0.4430874450415241 0.43722520762090866
0.39096794500073884 0.44406448461162684 0.441133365901319
0.3911704970005303 0.4430874450415241 0.4509037616023448
0.3913787900000898 0.441133365901319 0.4509037616023448
0.39158360100009304 0.44211040547142155 0.4587200781631655
0.39179932000024564 0.44406448461162684 0.47239863214460187
0.3920046690000163 0.43917928676111373 0.46262823644357587
0.39220883200050594 0.4401563263312165 0.46165119687347334
0.3924098100005722 0.44211040547142155 0.4587200781631655
0.39260878800087085 0.44211040547142155 0.4509037616023448
0.3928149140001551 0.44211040547142155 0.441133365901319
0.39302331800081447 0.4430874450415241 0.43429408891060084
0.39324603700060834 0.441133365901319 0.42452369320957506
0.3934729040001912 0.44406448461162684 0.40986809965803617
0.39370834400051535 0.44406448461162684 0.4049829018075233
0.39393719200052146 0.44406448461162684 0.39716658524670256
0.3941947800003618 0.4460185637518319 0.3981436248168051
0.3943999810007881 0.44406448461162684 0.39716658524670256
0.3946507910004584 0.44699560332193444 0.4010747435271129
0.39488208400052827 0.4479726428920372 0.4049829018075233
0.39510785800030135 0.4528578407425501 0.40889106008793363
0.3953290020008353 0.4450415241817294 0.41963849535906195
0.395537425000839 0.4460185637518319 0.4303859306301905
0.39577838400055043 0.4450415241817294 0.43722520762090866
0.3959778250000454 0.4479726428920372 0.4430874450415241
0.3961703960003433 0.44992672203224227 0.4460185637518319
0.39636143000006996 0.4479726428920372 0.4509037616023448
0.39655185300034645 0.4479726428920372 0.4538348803126526
0.39674290500079223 0.44894968246213973 0.4587200781631655
0.3969338280003285 0.4479726428920372 0.46262823644357587
0.3971256020004148 0.44992672203224227 0.4684904738641915
0.39731652500086057 0.4509037616023448 0.4665363947239862
0.3975090590001855 0.44894968246213973 0.467513434294089
0.3977026670008854 0.45188080117244755 0.46946751343429405
0.3978939970002102 0.44894968246213973 0.46946751343429405
0.3980994380008269 0.4509037616023448 0.46946751343429405
0.39829032400029973 0.4509037616023448 0.4684904738641915
0.39848108000023785 0.45188080117244755 0.46946751343429405
0.3986729660000492 0.45188080117244755 0.4733756717147044
0.3988644070004739 0.45188080117244755 0.4753297508549097
0.39905727400036994 0.4557889594528579 0.4782608695652173
0.3992499560008582 0.4557889594528579 0.4811919882755251
0.39944110100077523 0.4587200781631655 0.4851001465559355
0.3996344870001849 0.45676599902296044 0.4811919882755251
0.3998336130007374 0.4538348803126526 0.4753297508549097
0.40003129500018986 0.4538348803126526 0.47142159257449934
0.4002372180002567 0.45481191988275516 0.4636052760136786
0.4004298630006815 0.4557889594528579 0.4587200781631655
0.4006227480003872 0.457743038593063 0.45481191988275516
0.40081370800089644 0.4538348803126526 0.4528578407425501
0.40100576000077126 0.4606741573033708 0.4557889594528579
0.4011969240000326 0.4557889594528579 0.4538348803126526
0.401389773000119 0.45481191988275516 0.4538348803126526
0.4015806950001206 0.4528578407425501 0.4587200781631655
0.4017717110000376 0.4538348803126526 0.46262823644357587
0.4019631710007161 0.45188080117244755 0.4684904738641915
0.40218435200040403 0.44992672203224227 0.46946751343429405
0.40237731200068083 0.4509037616023448 0.46946751343429405
0.40256808700087277 0.4509037616023448 0.467513434294089
0.40275876900068397 0.4528578407425501 0.46262823644357587
0.402965561000201 0.45188080117244755 0.45676599902296044
0.4031556880008793 0.44992672203224227 0.4528578407425501
0.4033462400002463 0.4509037616023448 0.4479726428920372
0.40353720000075555 0.45188080117244755 0.4450415241817294
0.40372988200033433 0.4557889594528579 0.44406448461162684
0.4039442670000426 0.4538348803126526 0.43917928676111373
0.4041369490005309 0.45188080117244755 0.43917928676111373
0.4043283170003633 0.44992672203224227 0.4401563263312165
0.40451992500038614 0.44992672203224227 0.4401563263312165
0.40471218100083206 0.4509037616023448 0.441133365901319
0.40490915900045366 0.44992672203224227 0.4430874450415241
0.4051264520003315 0.44992672203224227 0.4401563263312165
0.4053260410000803 0.44992672203224227 0.4382022471910112
0.40552409300016734 0.45188080117244755 0.4323400097703958
0.4057158680006978 0.45676599902296044 0.4255007327796776
0.4059076980001919 0.44992672203224227 0.41475329750854906
0.40610139800082834 0.4479726428920372 0.40693698094772834
0.4062929140000051 0.44894968246213973 0.39912066438690763
0.4064839110005778 0.44699560332193444 0.39716658524670256
0.4066787960000511 0.44992672203224227 0.39912066438690763
0.40687238600003184 0.45188080117244755 0.40205178309721545
0.4070638830007738 0.4538348803126526 0.4079140205178309
0.40727339800014306 0.45481191988275516 0.412799218368344
0.40746615400075825 0.45188080117244755 0.4157303370786516
0.4076573360007387 0.4509037616023448 0.42159257449926724
0.4078491660002328 0.4509037616023448 0.4323400097703958
0.40804066300006525 0.44699560332193444 0.4450415241817294
0.40823173400076485 0.44699560332193444 0.4557889594528579
0.40842306400008965 0.44406448461162684 0.46946751343429405
0.4086160610004299 0.4460185637518319 0.4782608695652173
0.40880772400032583 0.4430874450415241 0.48216902784562765
0.4089998140007083 0.44211040547142155 0.4851001465559355
0.40919112500068877 0.4450415241817294 0.4851001465559355
0.40938184400056343 0.44992672203224227 0.4802149487054226
0.40957363699999405 0.44406448461162684 0.4753297508549097
0.40976444900024944 0.44699560332193444 0.4684904738641915
0.40995618700071645 0.4460185637518319 0.4636052760136786
0.4101791270004469 0.4479726428920372 0.4606741573033708
0.4103702910006177 0.44699560332193444 0.45969711773326827
0.41056084300089424 0.44699560332193444 0.4636052760136786
0.4107511920001343 0.44699560332193444 0.46262823644357587
0.4109414850008761 0.44992672203224227 0.4587200781631655
0.41113270400001056 0.44406448461162684 0.4557889594528579
0.411322757000562 0.44699560332193444 0.4479726428920372
0.41151373500088084 0.44699560332193444 0.4401563263312165
0.41170460200009984 0.4450415241817294 0.431362970200293
0.41189678400041885 0.44699560332193444 0.4206155349291647
0.41209689200059074 0.4460185637518319 0.4176844162188569
0.4122964440002761 0.4479726428920372 0.41670737664875435
0.4124887370007855 0.44699560332193444 0.4157303370786516
0.41267945600066014 0.44992672203224227 0.4186614557889594
0.4128713610007253 0.4509037616023448 0.42452369320957506
0.4130631350008116 0.44992672203224227 0.4352711284807034
0.4132540770006017 0.44894968246213973 0.44211040547142155
0.4134454620007091 0.44894968246213973 0.45188080117244755
