0 0.4401563263312165 0.43917928676111373
0.00032556699989072513 0.43722520762090866 0.43624816805080613
0.0005327660001057666 0.4284318514899854 0.43917928676111373
0.0007311319996006205 0.42256961406936977 0.4333170493404983
0.000946553000176209 0.4206155349291647 0.4303859306301905
0.0011473269996713498 0.4186614557889594 0.4333170493404983
0.0013401559999692836 0.41963849535906195 0.43722520762090866
0.0015287070000340464 0.42745481191988266 0.43429408891060084
0.0017171290000987938 0.431362970200293 0.43624816805080613
0.0019065129999944475 0.44211040547142155 0.4352711284807034
0.0020981939997000154 0.44406448461162684 0.4382022471910112
0.002288894000230357 0.45188080117244755 0.44211040547142155
0.0024768160001258366 0.46262823644357587 0.43917928676111373
0.0026645520001693512 0.4655593551538837 0.4382022471910112
0.0028516590000435826 0.47239863214460187 0.4430874450415241
0.0030387480001081713 0.47728382999511476 0.4450415241817294
0.0032256140002573375 0.4851001465559355 0.44992672203224227
0.003415664999920409 0.48216902784562765 0.4528578407425501
0.003602828000111913 0.4831460674157304 0.4479726428920372
0.0037894349998168764 0.48216902784562765 0.45481191988275516
0.00397624499964877 0.4763067904250122 0.4538348803126526
0.004162555999755568 0.46946751343429405 0.4538348803126526
0.004348978000052739 0.47142159257449934 0.4557889594528579
0.0045346779997998965 0.47142159257449934 0.45481191988275516
0.004720488000202749 0.467513434294089 0.45969711773326827
0.004906946999653883 0.4704445530043966 0.457743038593063
0.00509303600028943 0.47142159257449934 0.4587200781631655
0.005278345999613521 0.47435271128480694 0.45969711773326827
0.005464027000016358 0.46946751343429405 0.4636052760136786
0.005649875000017346 0.4636052760136786 0.45969711773326827
0.005836186000124144 0.4606741573033708 0.4606741573033708
0.00602234799953294 0.44894968246213973 0.45969711773326827
0.006244731999686337 0.4450415241817294 0.4636052760136786
0.00643657999989955 0.4382022471910112 0.46262823644357587
0.00662487199952011 0.43429408891060084 0.4636052760136786
0.006811831000050006 0.431362970200293 0.46165119687347334
0.006998771000326087 0.4303859306301905 0.4636052760136786
0.0071849890000521555 0.4303859306301905 0.46458231558378116
0.007371095999587851 0.4333170493404983 0.46262823644357587
0.007557406999694649 0.43429408891060084 0.467513434294089
0.007743940000182192 0.4382022471910112 0.4684904738641915
0.00793576900014159 0.43917928676111373 0.46165119687347334
0.008123116999740887 0.4401563263312165 0.467513434294089
0.008309576000101515 0.43917928676111373 0.4655593551538837
0.008496108000144886 0.43429408891060084 0.46458231558378116
0.0086828269995749 0.4333170493404983 0.4606741573033708
0.008868766999512445 0.431362970200293 0.4655593551538837
0.009055077999619243 0.4333170493404983 0.4655593551538837
0.009246702999917034 0.4333170493404983 0.4655593551538837
0.009440457999517093 0.43624816805080613 0.4665363947239862
0.009628732000237505 0.43722520762090866 0.4665363947239862
0.009815282999625197 0.441133365901319 0.47142159257449934
0.010001648999605095 0.4479726428920372 0.46165119687347334
0.010193088999585598 0.4528578407425501 0.45969711773326827
0.010380159000305866 0.4606741573033708 0.4655593551538837
0.010566007000306854 0.467513434294089 0.46165119687347334
0.010751613999673282 0.47239863214460187 0.4606741573033708
0.01093792499978008 0.4704445530043966 0.4606741573033708
0.011124142999506148 0.4733756717147044 0.457743038593063
0.011310361000141711 0.47923790913532005 0.45676599902296044
0.011496226999952341 0.46262823644357587 0.45676599902296044
0.011681685999974434 0.4587200781631655 0.45676599902296044
0.011867201000313798 0.4587200781631655 0.4557889594528579
0.012052862999553327 0.457743038593063 0.4509037616023448
0.012240914999892993 0.4557889594528579 0.45188080117244755
0.01242829900002107 0.45969711773326827 0.44992672203224227
0.012614461999874038 0.457743038593063 0.44992672203224227
0.012800012999832688 0.4655593551538837 0.4479726428920372
0.012985731000298983 0.4606741573033708 0.4479726428920372
0.013171282999792311 0.45969711773326827 0.44406448461162684
0.01335663099962403 0.45969711773326827 0.45188080117244755
0.01354210800036526 0.4557889594528579 0.4450415241817294
0.013728140999774041 0.45481191988275516 0.4479726428920372
0.013914563000071212 0.45481191988275516 0.44894968246213973
0.014107910000348056 0.45188080117244755 0.4479726428920372
0.014294073000201024 0.45676599902296044 0.44894968246213973
0.014480197999546363 0.45481191988275516 0.4509037616023448
0.014667286999610951 0.45481191988275516 0.44894968246213973
0.014853874999971595 0.45481191988275516 0.4479726428920372
0.015039945000353327 0.45188080117244755 0.44699560332193444
0.015225533999910112 0.4479726428920372 0.441133365901319
0.015411325999593828 0.44699560332193444 0.4460185637518319
0.01559693299986975 0.4430874450415241 0.43917928676111373
0.015782243999638013 0.4430874450415241 0.4382022471910112
0.015967239999554295 0.4430874450415241 0.4382022471910112
0.01615316100014752 0.44406448461162684 0.43429408891060084
0.016338897999958135 0.44699560332193444 0.43722520762090866
0.016524300999662955 0.44406448461162684 0.4382022471910112
0.016710668000087026 0.44894968246213973 0.43917928676111373
0.016896422999707283 0.44894968246213973 0.4382022471910112
0.017082399999708286 0.44894968246213973 0.43917928676111373
0.017270506999921054 0.4479726428920372 0.43917928676111373
0.0174576879999222 0.44992672203224227 0.4401563263312165
0.017644147000282828 0.4460185637518319 0.43917928676111373
0.017830347000199254 0.4450415241817294 0.4333170493404983
0.018016934999650402 0.44699560332193444 0.43624816805080613
0.01822111599994969 0.4479726428920372 0.43917928676111373
0.018410962999951153 0.44406448461162684 0.43917928676111373
0.01860097799999494 0.4450415241817294 0.4382022471910112
0.018790232999890577 0.44699560332193444 0.4401563263312165
0.018979857999511296 0.44992672203224227 0.4382022471910112
0.019169612999576202 0.44894968246213973 0.4382022471910112
0.019358608999937132 0.4509037616023448 0.4382022471910112
0.01954821599974821 0.4479726428920372 0.43624816805080613
0.019737693000024592 0.44699560332193444 0.43917928676111373
0.019927948000258766 0.44699560332193444 0.4430874450415241
0.02011807399958343 0.4509037616023448 0.4450415241817294
0.02030805100002908 0.4538348803126526 0.4450415241817294
0.020497342999988177 0.4509037616023448 0.4460185637518319
0.020687006000116526 0.44992672203224227 0.44894968246213973
0.020882148999589845 0.4528578407425501 0.44894968246213973
0.021072589999675984 0.45188080117244755 0.4479726428920372
0.021271251999678498 0.4509037616023448 0.4587200781631655
0.021460228999785613 0.45969711773326827 0.45188080117244755
0.021650669000337075 0.46165119687347334 0.45188080117244755
0.021840702000190504 0.46262823644357587 0.4509037616023448
0.022043586999643594 0.45969711773326827 0.4557889594528579
0.022234952999497182 0.457743038593063 0.45188080117244755
0.0224241340001754 0.4509037616023448 0.45188080117244755
0.022613019000345957 0.4460185637518319 0.4509037616023448
0.02280251399952249 0.44211040547142155 0.45188080117244755
0.023005899000054342 0.43917928676111373 0.4509037616023448
0.02319530200020381 0.4430874450415241 0.4528578407425501
0.023385057000268716 0.4430874450415241 0.4509037616023448
0.02357414499965671 0.4460185637518319 0.4509037616023448
0.023763160000271455 0.44894968246213973 0.45188080117244755
0.02395213700037857 0.44992672203224227 0.45188080117244755
0.02414089200010494 0.45188080117244755 0.4460185637518319
0.024333757999556838 0.45188080117244755 0.4509037616023448
0.02452308699957939 0.4538348803126526 0.4538348803126526
0.02471289799996157 0.44992672203224227 0.45481191988275516
0.024902152999857208 0.4509037616023448 0.45676599902296044
0.025092371000027924 0.45188080117244755 0.4587200781631655
0.025287681999543565 0.44992672203224227 0.45676599902296044
0.02547736300039105 0.45188080117244755 0.4606741573033708
0.025667044000329042 0.4509037616023448 0.457743038593063
0.025856538999505574 0.4509037616023448 0.45969711773326827
0.026047368999570608 0.4509037616023448 0.45676599902296044
0.026237178999508615 0.45188080117244755 0.457743038593063
0.026426081999488815 0.44699560332193444 0.4606741573033708
0.02661531899957481 0.45188080117244755 0.4587200781631655
0.02680416699968191 0.45188080117244755 0.4606741573033708
0.026993587999641022 0.45188080117244755 0.4606741573033708
0.027183491999494436 0.4528578407425501 0.4606741573033708
0.027374690999749873 0.45188080117244755 0.46262823644357587
0.027564408999751322 0.44699560332193444 0.46262823644357587
0.027753868000218063 0.4479726428920372 0.46262823644357587
0.027942233999965538 0.44406448461162684 0.4636052760136786
0.028131025999755366 0.44699560332193444 0.467513434294089
0.02832107799986261 0.4479726428920372 0.46946751343429405
0.0285107589998006 0.44699560332193444 0.46458231558378116
0.028699642999526986 0.44894968246213973 0.4655593551538837
0.028889045999676455 0.44894968246213973 0.46458231558378116
0.029077893999783555 0.45188080117244755 0.46262823644357587
0.02926651999950991 0.44992672203224227 0.467513434294089
0.029455627000061213 0.44992672203224227 0.46165119687347334
0.029646455999682075 0.4509037616023448 0.4636052760136786
0.02983574799964117 0.4479726428920372 0.46262823644357587
0.030035224999664933 0.45481191988275516 0.46165119687347334
0.030227424000258907 0.45481191988275516 0.46165119687347334
0.030416493999837257 0.457743038593063 0.46165119687347334
0.030605896999986726 0.46165119687347334 0.4636052760136786
0.03079513400007272 0.4655593551538837 0.46262823644357587
0.030984203999651072 0.47239863214460187 0.4606741573033708
0.031173811000371643 0.47142159257449934 0.4587200781631655
0.03136256600009801 0.467513434294089 0.45969711773326827
0.03155148800033203 0.46262823644357587 0.45676599902296044
0.03174090900029114 0.45969711773326827 0.45481191988275516
0.03192947899970022 0.4557889594528579 0.45188080117244755
0.03211784500035719 0.4528578407425501 0.45188080117244755
0.03230724900004134 0.44992672203224227 0.4460185637518319
0.032496244999492774 0.44699560332193444 0.4460185637518319
0.0326856849997057 0.44699560332193444 0.4450415241817294
0.03287482900032046 0.44894968246213973 0.44406448461162684
0.033064027999898826 0.45676599902296044 0.4450415241817294
0.03325902399956249 0.44406448461162684 0.4460185637518319
0.03345338999952219 0.4460185637518319 0.4450415241817294
0.03364216399950237 0.44992672203224227 0.44699560332193444
0.03383175199996913 0.45188080117244755 0.4479726428920372
0.034020674000203144 0.4528578407425501 0.44699560332193444
0.034219539999867266 0.4557889594528579 0.44992672203224227
0.034408479999910924 0.4528578407425501 0.4450415241817294
0.0345971050001026 0.4528578407425501 0.4430874450415241
0.03478610099955404 0.4538348803126526 0.4401563263312165
0.03497561600033805 0.4509037616023448 0.4352711284807034
0.03516479700010677 0.45188080117244755 0.4382022471910112
0.03535368099983316 0.4479726428920372 0.43722520762090866
0.03554238099968643 0.4460185637518319 0.43624816805080613
0.035731042999941565 0.44406448461162684 0.4430874450415241
0.0359202979998372 0.4430874450415241 0.4382022471910112
0.03610931299954245 0.441133365901319 0.43917928676111373
0.0362983830000303 0.44211040547142155 0.4460185637518319
0.03648700800022198 0.44406448461162684 0.44406448461162684
0.03667572599988489 0.441133365901319 0.4430874450415241
0.03686461100005545 0.44211040547142155 0.4430874450415241
0.03705314400031057 0.44406448461162684 0.44406448461162684
0.03724228800001583 0.441133365901319 0.441133365901319
0.03743085800033441 0.44211040547142155 0.43722520762090866
0.03761924199989153 0.44406448461162684 0.4352711284807034
0.037809090000337164 0.4460185637518319 0.4352711284807034
0.037997696999809705 0.4460185637518319 0.43624816805080613
0.038187377999747696 0.45188080117244755 0.43624816805080613
0.03837685500002408 0.44894968246213973 0.4323400097703958
0.0385659809999197 0.4479726428920372 0.431362970200293
0.038754995000090275 0.44894968246213973 0.43429408891060084
0.03894402799960517 0.44699560332193444 0.4352711284807034
0.0391333380002834 0.4479726428920372 0.4382022471910112
0.0393225199995868 0.44894968246213973 0.4401563263312165
0.03951103399958811 0.44992672203224227 0.44211040547142155
0.03970060400024522 0.4479726428920372 0.44211040547142155
0.03988941399984469 0.4460185637518319 0.4450415241817294
0.04007844700026908 0.4450415241817294 0.4460185637518319
0.040267757999572495 0.44894968246213973 0.4450415241817294
0.04045638299976417 0.44894968246213973 0.4430874450415241
0.040645490000315476 0.4450415241817294 0.44699560332193444
0.04083365299993602 0.44894968246213973 0.44211040547142155
0.04102277800029697 0.4460185637518319 0.4430874450415241
0.04121273700002348 0.4460185637518319 0.43917928676111373
0.041413973000089754 0.44894968246213973 0.44406448461162684
0.041607006000049296 0.44699560332193444 0.4479726428920372
0.04179926100005105 0.44992672203224227 0.44406448461162684
0.04198797899971396 0.44894968246213973 0.4509037616023448
0.042179992999990645 0.44992672203224227 0.4528578407425501
0.04236917399975937 0.4538348803126526 0.45676599902296044
0.04255909600033192 0.45676599902296044 0.4587200781631655
0.04274798099959298 0.45676599902296044 0.45969711773326827
0.04293753199999628 0.4557889594528579 0.4538348803126526
0.04312693500014575 0.4557889594528579 0.457743038593063
0.043316172000231745 0.45188080117244755 0.45481191988275516
0.04350444600004266 0.45188080117244755 0.45481191988275516
0.043693366999832506 0.4538348803126526 0.46165119687347334
0.04388269599985506 0.45481191988275516 0.4587200781631655
0.04407206300038524 0.4557889594528579 0.457743038593063
0.04426307700032339 0.45676599902296044 0.4606741573033708
0.04445266499988065 0.4557889594528579 0.4587200781631655
0.0446417350003685 0.45676599902296044 0.4557889594528579
0.04483534199971473 0.4538348803126526 0.4528578407425501
0.04502446799961035 0.4557889594528579 0.4528578407425501
0.04521335200024623 0.45676599902296044 0.45481191988275516
0.04540260700014187 0.457743038593063 0.457743038593063
0.04559825100022863 0.45481191988275516 0.4587200781631655
0.04578743199999735 0.4557889594528579 0.46165119687347334
0.04597666900008335 0.4528578407425501 0.4655593551538837
0.04616751599951385 0.44894968246213973 0.46458231558378116
0.04635753099955764 0.4479726428920372 0.4636052760136786
0.04654819299958035 0.44699560332193444 0.45969711773326827
0.046748689000196464 0.44406448461162684 0.4587200781631655
0.0469396839998808 0.441133365901319 0.45969711773326827
0.04712910600028408 0.4382022471910112 0.46165119687347334
0.047317675999693165 0.4401563263312165 0.45969711773326827
0.04750650499954645 0.43917928676111373 0.45969711773326827
0.04769533400030923 0.43722520762090866 0.45969711773326827
0.047884460000204854 0.44211040547142155 0.46262823644357587
0.048072900000079244 0.4382022471910112 0.4606741573033708
0.04826271099955193 0.4352711284807034 0.4636052760136786
0.04845637299968075 0.4401563263312165 0.46165119687347334
0.048646479999661096 0.43917928676111373 0.4655593551538837
0.04883471700031805 0.441133365901319 0.4655593551538837
0.049023546000171336 0.43917928676111373 0.46262823644357587
0.049212652999813145 0.4401563263312165 0.4655593551538837
0.04940179699951841 0.44211040547142155 0.46458231558378116
0.0496147359999668 0.441133365901319 0.4655593551538837
0.04980426899965096 0.4460185637518319 0.4587200781631655
0.04999326500001189 0.44992672203224227 0.4538348803126526
0.05018409399963275 0.4557889594528579 0.45188080117244755
0.05037323800024751 0.4587200781631655 0.4450415241817294
0.050562049000291154 0.46262823644357587 0.4430874450415241
0.050751581999975315 0.4684904738641915 0.44406448461162684
0.050938411000061024 0.4733756717147044 0.45188080117244755
0.05112564699993527 0.4733756717147044 0.44699560332193444
0.05131188399991515 0.4763067904250122 0.44894968246213973
0.051497972999641206 0.4782608695652173 0.44992672203224227
0.05168506100017112 0.47239863214460187 0.4538348803126526
0.05187148299955879 0.4665363947239862 0.4528578407425501
0.05205751599987707 0.4655593551538837 0.4538348803126526
0.052243307999560784 0.457743038593063 0.4509037616023448
0.052429784999731055 0.4528578407425501 0.4479726428920372
0.052616928999668744 0.44894968246213973 0.4479726428920372
0.052802573000008124 0.44699560332193444 0.44699560332193444
0.05298858799960726 0.44406448461162684 0.44406448461162684
0.053174861000115925 0.44406448461162684 0.4450415241817294
0.05336032000013802 0.44406448461162684 0.44699560332193444
0.05354664900005446 0.4382022471910112 0.4460185637518319
0.053733163999822864 0.43624816805080613 0.4479726428920372
0.053918919000352616 0.4303859306301905 0.45481191988275516
0.054130450999764435 0.42745481191988266 0.44699560332193444
0.054320594999808236 0.42452369320957506 0.4460185637518319
0.05450996099989425 0.42159257449926724 0.4430874450415241
0.05469949399957841 0.42159257449926724 0.44699560332193444
0.05488826799955859 0.42452369320957506 0.4460185637518319
0.055076966999877186 0.4235466536394723 0.4479726428920372
0.05526572300004773 0.42745481191988266 0.4460185637518319
0.05545394099954137 0.4323400097703958 0.44992672203224227
0.05564291799964849 0.4401563263312165 0.44992672203224227
0.05583146899971325 0.4509037616023448 0.4479726428920372
0.056019910000031814 0.44992672203224227 0.44699560332193444
0.056208867999885115 0.45969711773326827 0.44992672203224227
0.056397715999992215 0.4665363947239862 0.44992672203224227
0.05658732299980329 0.4763067904250122 0.44992672203224227
0.05677574499986804 0.48705422569614076 0.4479726428920372
0.05696448100025009 0.4909623839765511 0.44894968246213973
0.057152661999680276 0.4929164631167562 0.4557889594528579
0.05734106599993538 0.48900830483634583 0.4479726428920372
0.057537005999620305 0.47923790913532005 0.4430874450415241
0.05773255700023583 0.47239863214460187 0.4382022471910112
0.05792290499994124 0.46165119687347334 0.4352711284807034
0.05812264099949971 0.45676599902296044 0.4303859306301905
0.05831243299962807 0.44992672203224227 0.4264777723497801
0.05850120699960826 0.44699560332193444 0.4284318514899854
0.05869040600009612 0.4460185637518319 0.431362970200293
0.05914474800010794 0.4401563263312165 0.42452369320957506
0.05933640999955969 0.43917928676111373 0.4255007327796776
0.05952605400034372 0.4401563263312165 0.4264777723497801
0.05971464300000662 0.4430874450415241 0.4323400097703958
0.0599038609998388 0.44211040547142155 0.4284318514899854
0.060093615999903705 0.44699560332193444 0.4323400097703958
0.060282612000264635 0.44406448461162684 0.43624816805080613
0.06047247799961042 0.44211040547142155 0.43917928676111373
0.06066119600018283 0.4460185637518319 0.4401563263312165
0.060850081000353384 0.4450415241817294 0.4401563263312165
0.0610391130003336 0.4430874450415241 0.43917928676111373
0.06122827600029268 0.44406448461162684 0.44211040547142155
0.061417142000209424 0.441133365901319 0.4450415241817294
0.06160567499955505 0.4450415241817294 0.44699560332193444
0.061795726000127615 0.4460185637518319 0.4479726428920372
0.06198486999983288 0.44992672203224227 0.44699560332193444
0.06217647700032103 0.44992672203224227 0.44992672203224227
0.062364657999751216 0.4528578407425501 0.4538348803126526
0.06255383899951994 0.45188080117244755 0.44894968246213973
0.06274302000019816 0.4538348803126526 0.44699560332193444
0.06293186800030526 0.4528578407425501 0.44992672203224227
0.06312104900007398 0.45188080117244755 0.44894968246213973
0.06330950800020219 0.4557889594528579 0.4538348803126526
0.06349891100035165 0.4509037616023448 0.4538348803126526
0.06368716599990876 0.4528578407425501 0.45481191988275516
0.06387605100007931 0.4538348803126526 0.457743038593063
0.06406528699972114 0.4528578407425501 0.457743038593063
0.0642544310003359 0.44992672203224227 0.46262823644357587
0.0644439269999566 0.45188080117244755 0.4636052760136786
0.06463253400033864 0.44699560332193444 0.45676599902296044
0.06482145599966316 0.4479726428920372 0.4606741573033708
0.06501104400012991 0.44699560332193444 0.4606741573033708
0.06520002100023703 0.44992672203224227 0.4587200781631655
0.06538840600023832 0.45188080117244755 0.45969711773326827
0.06557799500023975 0.4528578407425501 0.4606741573033708
0.06577584200022102 0.45676599902296044 0.4636052760136786
0.06596513400018011 0.46165119687347334 0.46458231558378116
0.06615601900011825 0.457743038593063 0.45969711773326827
0.06634505199963314 0.4606741573033708 0.45969711773326827
0.06653378800001519 0.4636052760136786 0.46262823644357587
0.06672937700022885 0.46165119687347334 0.46262823644357587
0.06692477999968105 0.46458231558378116 0.4636052760136786
0.0671174789995348 0.46262823644357587 0.46458231558378116
0.06730864099972678 0.46262823644357587 0.46262823644357587
0.06749735999983386 0.45969711773326827 0.46262823644357587
0.06768641100006789 0.45969711773326827 0.4606741573033708
0.06787522200011153 0.45481191988275516 0.4606741573033708
0.0680637730001763 0.457743038593063 0.4606741573033708
0.06825251000009303 0.45481191988275516 0.45969711773326827
0.06844169099986175 0.45676599902296044 0.4606741573033708
0.06863051999971503 0.4528578407425501 0.4606741573033708
0.06881923800028744 0.4538348803126526 0.46165119687347334
0.06900782599950617 0.45676599902296044 0.46165119687347334
0.06919610000022658 0.45481191988275516 0.4636052760136786
0.06938481799988949 0.457743038593063 0.46458231558378116
0.06957299900022917 0.457743038593063 0.4636052760136786
0.06976236500031519 0.4538348803126526 0.46165119687347334
0.06996067499949277 0.44894968246213973 0.46262823644357587
0.07015102300010767 0.44406448461162684 0.4606741573033708
0.07033983400015131 0.44211040547142155 0.4587200781631655
0.07052955200015276 0.441133365901319 0.4557889594528579
0.07071871399966767 0.4430874450415241 0.46165119687347334
0.07090789500034589 0.43722520762090866 0.45676599902296044
0.07109602099990298 0.43722520762090866 0.4587200781631655
0.07128410899986193 0.4382022471910112 0.4557889594528579
0.07147356800032867 0.43917928676111373 0.45481191988275516
0.07166224899992812 0.4430874450415241 0.4557889594528579
0.07185104099971795 0.4450415241817294 0.45969711773326827
0.07203953699990961 0.44699560332193444 0.4557889594528579
0.07222740300039732 0.44894968246213973 0.4557889594528579
0.0724159729998064 0.44406448461162684 0.4509037616023448
0.07260524699995585 0.4450415241817294 0.44894968246213973
0.07279477900010534 0.44211040547142155 0.44699560332193444
0.07298359000014898 0.44406448461162684 0.4479726428920372
0.0731721229994946 0.44406448461162684 0.44992672203224227
0.07336104499972862 0.4479726428920372 0.4460185637518319
0.0735607999995409 0.44406448461162684 0.45188080117244755
0.07377234999967186 0.4382022471910112 0.4538348803126526
0.07398906799971883 0.4430874450415241 0.4509037616023448
0.07419274899984885 0.44406448461162684 0.4528578407425501
0.07439855899974646 0.43917928676111373 0.44699560332193444
0.07464192400038883 0.44211040547142155 0.4430874450415241
0.07487488199967629 0.43917928676111373 0.4401563263312165
0.07508587699976488 0.44406448461162684 0.4401563263312165
0.07529228000021249 0.43917928676111373 0.4382022471910112
0.07548762700025691 0.43917928676111373 0.43722520762090866
0.07568071599962423 0.44211040547142155 0.4401563263312165
0.07587685900034558 0.4382022471910112 0.43917928676111373
0.07607516999996733 0.4430874450415241 0.44406448461162684
0.07627312800013897 0.4450415241817294 0.43917928676111373
0.07648154999969847 0.44406448461162684 0.43429408891060084
0.07668461899993417 0.44699560332193444 0.43917928676111373
0.07688896699983161 0.4509037616023448 0.43917928676111373
0.07708557299974927 0.4528578407425501 0.43624816805080613
0.07728497599964612 0.4606741573033708 0.4382022471910112
0.07748637900022004 0.4538348803126526 0.4352711284807034
0.07768681899960939 0.45481191988275516 0.4352711284807034
0.07790011099950789 0.4538348803126526 0.4333170493404983
0.07818579000013415 0.4636052760136786 0.4333170493404983
0.07839100799992593 0.4606741573033708 0.4303859306301905
0.07858435500020278 0.457743038593063 0.431362970200293
0.0787760180000987 0.46262823644357587 0.4303859306301905
0.07896740199976193 0.45481191988275516 0.43429408891060084
0.07915821299957315 0.45676599902296044 0.43429408891060084
0.07935419000023103 0.4538348803126526 0.4401563263312165
0.07955816699995921 0.45481191988275516 0.441133365901319
0.07975782900030026 0.4509037616023448 0.44894968246213973
0.0799559170000066 0.4538348803126526 0.4557889594528579
0.08015924600022117 0.4509037616023448 0.44894968246213973
0.08036153800003376 0.4538348803126526 0.45188080117244755
0.08058981100020901 0.46262823644357587 0.4460185637518319
0.08081982400017296 0.4528578407425501 0.4460185637518319
0.08105393000005279 0.4509037616023448 0.44406448461162684
0.08128933199986932 0.4430874450415241 0.441133365901319
0.08151573499981168 0.44406448461162684 0.44211040547142155
0.08173024899951997 0.44699560332193444 0.4460185637518319
0.08193765099986194 0.4430874450415241 0.4460185637518319
0.08217160900039744 0.4460185637518319 0.44699560332193444
0.08239501200023369 0.44699560332193444 0.4509037616023448
0.08262269199985894 0.4450415241817294 0.44992672203224227
0.0828489460000128 0.44406448461162684 0.4538348803126526
0.08308866300012596 0.4479726428920372 0.4538348803126526
0.08328938100021333 0.44992672203224227 0.45481191988275516
0.0834910610001316 0.4460185637518319 0.45676599902296044
0.08368970500032447 0.4460185637518319 0.457743038593063
0.08392377400014084 0.44894968246213973 0.4636052760136786
0.0841651210002965 0.4509037616023448 0.45969711773326827
0.0843715049995808 0.44699560332193444 0.457743038593063
0.08458172300015576 0.44894968246213973 0.45676599902296044
0.08478805100003228 0.44992672203224227 0.4587200781631655
0.08498819499982346 0.45188080117244755 0.4557889594528579
0.08518539400029113 0.44992672203224227 0.4606741573033708
0.08538524199957465 0.4528578407425501 0.45969711773326827
0.08558234900010575 0.4509037616023448 0.4606741573033708
0.08578002899957937 0.45188080117244755 0.4636052760136786
0.08597550699960266 0.45481191988275516 0.4606741573033708
0.08617929800038837 0.44992672203224227 0.46946751343429405
0.0863699789997554 0.4538348803126526 0.4606741573033708
0.08655930799977796 0.4538348803126526 0.46262823644357587
0.08674856400011777 0.457743038593063 0.46165119687347334
0.08693952199973864 0.4587200781631655 0.4606741573033708
0.08712846300022647 0.457743038593063 0.46946751343429405
0.08731782900031249 0.45676599902296044 0.45969711773326827
0.0875072500002716 0.45676599902296044 0.457743038593063
0.08769639399997686 0.45676599902296044 0.457743038593063
0.08788539000033779 0.45676599902296044 0.4557889594528579
0.08807507100027578 0.45676599902296044 0.4538348803126526
0.08827573300004588 0.45481191988275516 0.4509037616023448
0.08847993299968948 0.44992672203224227 0.4557889594528579
0.08868065000024217 0.44992672203224227 0.4509037616023448
0.08888762700007646 0.44992672203224227 0.4528578407425501
0.08908812299978308 0.4479726428920372 0.457743038593063
0.08928648900018743 0.4450415241817294 0.45676599902296044
0.08951857600004587 0.44406448461162684 0.4606741573033708
0.08975416399971436 0.44406448461162684 0.46262823644357587
0.08997599200029072 0.4430874450415241 0.46262823644357587
0.09020178300033876 0.44699560332193444 0.4587200781631655
0.09040429800006677 0.44894968246213973 0.45969711773326827
0.09063342199988256 0.44992672203224227 0.45676599902296044
0.09086141700026928 0.4460185637518319 0.45481191988275516
0.0910704119996808 0.4509037616023448 0.4557889594528579
0.09127633400021296 0.44894968246213973 0.45188080117244755
0.09148275499956071 0.4538348803126526 0.4528578407425501
0.09170595399973536 0.45481191988275516 0.4557889594528579
0.09189648699975805 0.4587200781631655 0.4655593551538837
0.0921009639996555 0.4655593551538837 0.4606741573033708
0.0923319960002118 0.4636052760136786 0.46262823644357587
0.0925849899995228 0.45969711773326827 0.46165119687347334
0.09284100300010323 0.45481191988275516 0.45481191988275516
0.09306355399985478 0.45188080117244755 0.44894968246213973
0.09329034500024136 0.4479726428920372 0.44211040547142155
0.09357265299968276 0.4479726428920372 0.4352711284807034
0.09413127100015117 0.44992672203224227 0.43722520762090866
0.09446939299959922 0.45188080117244755 0.4382022471910112
0.0947163869996075 0.44894968246213973 0.44211040547142155
0.09493414200005645 0.4479726428920372 0.44406448461162684
0.09514850699997623 0.4479726428920372 0.44406448461162684
0.09537094699953741 0.44211040547142155 0.441133365901319
0.0955753870002809 0.44406448461162684 0.43917928676111373
0.09578062299988233 0.44406448461162684 0.43722520762090866
0.09598065600039263 0.44211040547142155 0.43429408891060084
0.0961822809995283 0.44894968246213973 0.43624816805080613
0.09638610999991215 0.44894968246213973 0.43624816805080613
0.09658764199957659 0.4460185637518319 0.4333170493404983
0.09679065599993919 0.44992672203224227 0.43429408891060084
0.09703190999971412 0.44699560332193444 0.43429408891060084
0.09725023899954977 0.44699560332193444 0.43722520762090866
0.09745504900001833 0.4479726428920372 0.43722520762090866
0.0976528410001265 0.4479726428920372 0.43722520762090866
0.09785289199953695 0.4450415241817294 0.44211040547142155
0.0981214049998016 0.4479726428920372 0.43722520762090866
0.09833210400029202 0.44406448461162684 0.43624816805080613
0.09853195100004086 0.44699560332193444 0.4401563263312165
0.09872983599962026 0.4430874450415241 0.43917928676111373
0.09893740499956039 0.44699560332193444 0.44406448461162684
0.09915241900034744 0.4479726428920372 0.44211040547142155
0.09936309899967455 0.44894968246213973 0.4479726428920372
0.09957300200039754 0.4460185637518319 0.44699560332193444
0.09978025700002036 0.4460185637518319 0.44699560332193444
0.09998454899960052 0.4460185637518319 0.4479726428920372
0.10017321099985566 0.4509037616023448 0.44406448461162684
0.1003658549998363 0.4557889594528579 0.4430874450415241
0.1005517769999642 0.45676599902296044 0.44406448461162684
0.10073725399979594 0.45481191988275516 0.44406448461162684
0.10092454599998746 0.4557889594528579 0.44211040547142155
0.10113624499990692 0.4509037616023448 0.44406448461162684
0.10132387100020424 0.44894968246213973 0.44406448461162684
0.10151038499952847 0.4479726428920372 0.4430874450415241
0.10169615900031204 0.44894968246213973 0.44406448461162684
0.10188230299991119 0.4460185637518319 0.4450415241817294
0.10207598400029383 0.4430874450415241 0.44211040547142155
0.10229583099953743 0.44211040547142155 0.44406448461162684
0.10248408600000403 0.44699560332193444 0.4479726428920372
0.10267060000023776 0.4479726428920372 0.4528578407425501
0.10285724400000618 0.4450415241817294 0.44699560332193444
0.10304353700030333 0.44894968246213973 0.44992672203224227
0.1032294209999236 0.44992672203224227 0.44992672203224227
0.10341523199986113 0.44699560332193444 0.4509037616023448
0.10360100599973521 0.4479726428920372 0.4538348803126526
0.10378720500011696 0.44699560332193444 0.4538348803126526
0.10397299800024484 0.44992672203224227 0.45676599902296044
0.10415969699988636 0.4538348803126526 0.4606741573033708
0.10434630399959133 0.45481191988275516 0.457743038593063
0.10453211499952886 0.4606741573033708 0.4606741573033708
0.10471883300033369 0.46165119687347334 0.45676599902296044
0.10490534699965792 0.46262823644357587 0.46262823644357587
0.10509180600001855 0.46262823644357587 0.45969711773326827
0.10527780200027337 0.45969711773326827 0.4665363947239862
0.10546394599987252 0.46262823644357587 0.45969711773326827
0.10565001600025425 0.45481191988275516 0.457743038593063
0.10583647499970539 0.45188080117244755 0.4587200781631655
0.10602263700002368 0.45188080117244755 0.457743038593063
0.10623342899998534 0.45188080117244755 0.46165119687347334
0.10641851800028235 0.4538348803126526 0.4606741573033708
0.10660399500011408 0.45188080117244755 0.45676599902296044
0.10681187899990618 0.45188080117244755 0.45969711773326827
0.1069987079999919 0.4538348803126526 0.45676599902296044
0.10718455599999288 0.4538348803126526 0.467513434294089
0.10737071899984585 0.45676599902296044 0.4587200781631655
0.10755641800005833 0.45481191988275516 0.4606741573033708
0.10774291399957292 0.45676599902296044 0.4606741573033708
0.10793348399965907 0.45676599902296044 0.4587200781631655
0.10811964699951204 0.4509037616023448 0.4655593551538837
0.10830671700023231 0.4538348803126526 0.46262823644357587
0.10849917500036099 0.44894968246213973 0.45969711773326827
0.10869481899953826 0.45481191988275516 0.46262823644357587
0.1088878519994978 0.44894968246213973 0.4606741573033708
0.10908429200026148 0.4479726428920372 0.45969711773326827
0.10931956399963383 0.45188080117244755 0.45969711773326827
0.10958889199991972 0.44992672203224227 0.45969711773326827
0.10984172000007675 0.4528578407425501 0.45969711773326827
0.11008723299983103 0.4509037616023448 0.4606741573033708
0.11029693199998292 0.45188080117244755 0.45969711773326827
0.11049959399952058 0.4538348803126526 0.45676599902296044
0.1107111259998419 0.44992672203224227 0.457743038593063
0.11093282499950874 0.4538348803126526 0.457743038593063
0.11113720899993496 0.4528578407425501 0.457743038593063
0.11138211100023909 0.4528578407425501 0.457743038593063
0.11161362500024552 0.45188080117244755 0.4587200781631655
0.11182174999976269 0.45188080117244755 0.4557889594528579
0.1120169679998071 0.45188080117244755 0.4557889594528579
0.11221148200002062 0.44894968246213973 0.45188080117244755
0.11240777399962099 0.4509037616023448 0.4538348803126526
0.11260700999991968 0.4509037616023448 0.4528578407425501
0.11281711700030428 0.44992672203224227 0.4509037616023448
0.11301324200030649 0.44699560332193444 0.44699560332193444
0.11322142300014093 0.44699560332193444 0.44406448461162684
0.1134211589996994 0.4460185637518319 0.4460185637518319
0.1136150809998071 0.44406448461162684 0.4479726428920372
0.11380207599995629 0.4450415241817294 0.4450415241817294
0.11398836900025344 0.4450415241817294 0.4460185637518319
0.11417738299951452 0.44699560332193444 0.4430874450415241
0.11436374899949442 0.44699560332193444 0.44406448461162684
0.11455002299953776 0.4509037616023448 0.44211040547142155
0.1147357039999406 0.4528578407425501 0.4430874450415241
0.11492145899956085 0.44699560332193444 0.4430874450415241
0.11510671399992134 0.44894968246213973 0.4430874450415241
0.11529200699987996 0.4479726428920372 0.43917928676111373
0.1154783359997964 0.4430874450415241 0.44211040547142155
0.11566368300009344 0.44406448461162684 0.4382022471910112
0.11589873399952921 0.4460185637518319 0.43917928676111373
0.11608500799957255 0.4430874450415241 0.4382022471910112
0.11627153999961592 0.44406448461162684 0.441133365901319
0.11646140700031538 0.4460185637518319 0.441133365901319
0.11664714299968182 0.4479726428920372 0.4401563263312165
0.11683282400008466 0.44699560332193444 0.4430874450415241
0.11701782000000094 0.4450415241817294 0.4382022471910112
0.11720516799960023 0.44992672203224227 0.44211040547142155
0.11739125599979161 0.4460185637518319 0.4401563263312165
0.11757789999956003 0.4450415241817294 0.44406448461162684
0.11776452599951881 0.44406448461162684 0.4401563263312165
0.11800839100033045 0.44894968246213973 0.441133365901319
0.11821671999950922 0.44992672203224227 0.43722520762090866
0.1184036599997853 0.44699560332193444 0.43722520762090866
0.11859024800014595 0.4450415241817294 0.43429408891060084
0.11877752199961833 0.4450415241817294 0.43624816805080613
0.11896340699968277 0.4460185637518319 0.4352711284807034
0.11917977200027963 0.4460185637518319 0.4401563263312165
0.11936793499990017 0.4450415241817294 0.43917928676111373
0.11955339399992226 0.4450415241817294 0.43917928676111373
0.11973985300028289 0.4460185637518319 0.44406448461162684
0.11992533000011463 0.4460185637518319 0.44406448461162684
0.12011112199979834 0.44894968246213973 0.4450415241817294
0.12029637700015883 0.44894968246213973 0.4450415241817294
0.12048213300022326 0.44699560332193444 0.4430874450415241
0.1206678139997166 0.44894968246213973 0.4460185637518319
0.12085375399965415 0.4460185637518319 0.4460185637518319
0.1210395090001839 0.44211040547142155 0.44699560332193444
0.12122591200022725 0.44211040547142155 0.44894968246213973
0.1214117970002917 0.44406448461162684 0.44894968246213973
0.12159770000016579 0.4450415241817294 0.44699560332193444
0.12178360399957455 0.44406448461162684 0.44894968246213973
0.12197874799949204 0.4430874450415241 0.4460185637518319
0.12216754000019137 0.4401563263312165 0.44894968246213973
0.12235392399998091 0.4450415241817294 0.44992672203224227
0.12253980900004535 0.4460185637518319 0.44894968246213973
0.12272597199989832 0.44699560332193444 0.44894968246213973
0.12291176399958204 0.4479726428920372 0.4509037616023448
0.12309675999949832 0.44699560332193444 0.4538348803126526
0.12328216300011263 0.4528578407425501 0.4528578407425501
0.12346786299985979 0.4509037616023448 0.4587200781631655
0.1236775059996944 0.4509037616023448 0.46165119687347334
0.12386520600011863 0.45481191988275516 0.45969711773326827
0.12405131299965433 0.4606741573033708 0.4655593551538837
0.12423745700016298 0.4606741573033708 0.46458231558378116
0.12442324899984669 0.4606741573033708 0.46458231558378116
0.12460870799986878 0.46165119687347334 0.4655593551538837
0.1247940559997005 0.46262823644357587 0.46262823644357587
0.12498027400033607 0.46165119687347334 0.4655593551538837
0.1251659359995756 0.46262823644357587 0.46262823644357587
0.12535391399978835 0.4557889594528579 0.46262823644357587
0.12555089099987526 0.4557889594528579 0.46165119687347334
0.125765441999647 0.4528578407425501 0.457743038593063
0.1260627680003381 0.4528578407425501 0.45969711773326827
0.12629863399979513 0.45969711773326827 0.4655593551538837
0.12651855500007514 0.46165119687347334 0.46946751343429405
0.126730050000333 0.4655593551538837 0.4655593551538837
0.12700348799990024 0.4557889594528579 0.4636052760136786
0.12722437199954584 0.45481191988275516 0.46262823644357587
0.12741736800035142 0.44699560332193444 0.46165119687347334
0.1276170490000368 0.441133365901319 0.4636052760136786
0.12781171099959465 0.43917928676111373 0.4665363947239862
0.12801042899991444 0.43624816805080613 0.4655593551538837
0.12821762800012948 0.43917928676111373 0.4665363947239862
0.12841282800036424 0.441133365901319 0.46262823644357587
0.12861010100004933 0.44211040547142155 0.4655593551538837
0.1288049670001783 0.4460185637518319 0.46458231558378116
0.12900723999973707 0.44992672203224227 0.46262823644357587
0.12920519900035288 0.4528578407425501 0.4606741573033708
0.12940941699980613 0.45676599902296044 0.45969711773326827
0.12963835600021412 0.4557889594528579 0.457743038593063
0.1298398150001958 0.45676599902296044 0.45676599902296044
0.1301056599995718 0.4538348803126526 0.4538348803126526
0.13032276699959766 0.44894968246213973 0.4557889594528579
0.13052376199993887 0.44406448461162684 0.45188080117244755
0.13072564699996292 0.44211040547142155 0.4528578407425501
0.13092177199996513 0.43624816805080613 0.4509037616023448
0.13113500799954636 0.4352711284807034 0.45188080117244755
0.13134302199978265 0.43624816805080613 0.45188080117244755
0.1315355360002286 0.43624816805080613 0.4538348803126526
0.13173462400027347 0.4352711284807034 0.45481191988275516
0.13194300899976952 0.4323400097703958 0.4557889594528579
0.13233235200004856 0.431362970200293 0.45676599902296044
0.13260730900037743 0.4333170493404983 0.45969711773326827
0.13283652599966445 0.43722520762090866 0.45969711773326827
0.13304013299966755 0.441133365901319 0.45676599902296044
0.13323235099960584 0.4479726428920372 0.4528578407425501
0.13342273499984003 0.457743038593063 0.45481191988275516
0.13361156399969332 0.4636052760136786 0.4538348803126526
0.13379965300009644 0.46946751343429405 0.4528578407425501
0.1340054450001844 0.4733756717147044 0.4528578407425501
0.1342497360001289 0.47142159257449934 0.4509037616023448
0.13445380499979365 0.4665363947239862 0.45188080117244755
0.13464887499958422 0.4655593551538837 0.4460185637518319
0.1348441849995652 0.457743038593063 0.441133365901319
0.13506943999982468 0.4509037616023448 0.43722520762090866
0.135291304999555 0.44992672203224227 0.43429408891060084
0.13548728200021287 0.4479726428920372 0.43624816805080613
0.13568520399985573 0.4460185637518319 0.43624816805080613
0.13589038400004938 0.4460185637518319 0.43624816805080613
0.1360949170002641 0.4450415241817294 0.4352711284807034
0.13628728299954673 0.44699560332193444 0.43624816805080613
0.13648109400037356 0.44992672203224227 0.43429408891060084
0.136681459999636 0.44992672203224227 0.4382022471910112
0.1368732330001876 0.4450415241817294 0.441133365901319
0.13707687700025417 0.4460185637518319 0.43917928676111373
0.13727928000025713 0.4460185637518319 0.441133365901319
0.13747964599951956 0.44699560332193444 0.44406448461162684
0.13767999300034717 0.4450415241817294 0.4450415241817294
0.1378717850002431 0.44406448461162684 0.44211040547142155
0.13809466899965628 0.4450415241817294 0.4479726428920372
0.1383001639997019 0.4460185637518319 0.4460185637518319
0.13850632699995913 0.44699560332193444 0.4450415241817294
0.1387851720000981 0.4509037616023448 0.44406448461162684
0.1390414259994941 0.44992672203224227 0.44406448461162684
0.1392824209997343 0.4479726428920372 0.4479726428920372
0.13956033999966166 0.4528578407425501 0.44699560332193444
0.13995598000019527 0.4450415241817294 0.44406448461162684
0.14024519600025087 0.44699560332193444 0.4450415241817294
0.1405092639997747 0.4479726428920372 0.4460185637518319
0.14075579499967716 0.4460185637518319 0.44699560332193444
0.1410409560003245 0.4460185637518319 0.4450415241817294
0.14130204299999605 0.4479726428920372 0.4450415241817294
0.1415685179999855 0.4450415241817294 0.4538348803126526
0.14182612399963546 0.4382022471910112 0.4479726428920372
0.14216446800037374 0.43429408891060084 0.45676599902296044
0.14248666499952378 0.43429408891060084 0.4557889594528579
0.14275627000006352 0.43722520762090866 0.457743038593063
0.14301744899967161 0.43624816805080613 0.4557889594528579
0.14324974000010116 0.4401563263312165 0.45676599902296044
0.14349095699981262 0.44211040547142155 0.45969711773326827
0.143717044999903 0.4430874450415241 0.457743038593063
0.14394002100016223 0.44992672203224227 0.45481191988275516
0.1441488689997641 0.44699560332193444 0.45969711773326827
0.1443791230003626 0.44699560332193444 0.45969711773326827
0.14461659900007362 0.44699560332193444 0.4606741573033708
0.14483198299967626 0.45188080117244755 0.4587200781631655
0.14507529200000135 0.4557889594528579 0.46262823644357587
0.14544946899968636 0.4606741573033708 0.467513434294089
0.14568733400028577 0.4655593551538837 0.46946751343429405
0.1459892350003429 0.46262823644357587 0.4763067904250122
0.14632991300004505 0.4538348803126526 0.4733756717147044
0.14659696299986535 0.44699560332193444 0.47239863214460187
0.14684403100000054 0.4430874450415241 0.4665363947239862
0.147142969000015 0.441133365901319 0.46262823644357587
0.14741942599994218 0.4460185637518319 0.4606741573033708
0.14763166200009437 0.4538348803126526 0.45676599902296044
0.14783193499988556 0.44699560332193444 0.45969711773326827
0.14805107899974246 0.4509037616023448 0.45969711773326827
0.14827722199970594 0.44894968246213973 0.46262823644357587
0.1484791619996031 0.45188080117244755 0.4655593551538837
0.1486748429997533 0.4538348803126526 0.4655593551538837
0.14886713499981852 0.4528578407425501 0.46458231558378116
0.14906229699954565 0.4538348803126526 0.46262823644357587
0.14927357000033226 0.4528578407425501 0.46946751343429405
0.1494918799999141 0.45676599902296044 0.46946751343429405
0.1496956159999172 0.457743038593063 0.467513434294089
0.14989450099983515 0.4655593551538837 0.4665363947239862
0.15009908899992297 0.46165119687347334 0.4655593551538837
0.1502969920002215 0.4655593551538837 0.4587200781631655
0.15052589399965655 0.467513434294089 0.45676599902296044
0.1507377230000202 0.46946751343429405 0.45481191988275516
0.1509313110000221 0.47142159257449934 0.44992672203224227
0.15111862199955794 0.47239863214460187 0.4538348803126526
0.15130509899972822 0.46946751343429405 0.4509037616023448
0.15149013199970796 0.46946751343429405 0.44992672203224227
0.15167505399949732 0.467513434294089 0.45188080117244755
0.15186047600036545 0.46458231558378116 0.45188080117244755
0.1520500090000496 0.46262823644357587 0.44992672203224227
0.1522361159995853 0.457743038593063 0.4460185637518319
0.15242255599969212 0.4587200781631655 0.44406448461162684
0.15261149599973578 0.45481191988275516 0.4430874450415241
0.15279802900022332 0.457743038593063 0.44406448461162684
0.15298395100035123 0.4528578407425501 0.4450415241817294
0.15316922500005603 0.4479726428920372 0.44992672203224227
0.1533545909996974 0.4460185637518319 0.4430874450415241
0.15354040199963492 0.4479726428920372 0.44406448461162684
0.1537261009998474 0.4450415241817294 0.4479726428920372
0.1539120229999753 0.4460185637518319 0.44211040547142155
0.15415285099970788 0.44894968246213973 0.4430874450415241
0.15434740199998487 0.45188080117244755 0.4450415241817294
0.1545618789996297 0.45188080117244755 0.4479726428920372
0.15475583799980086 0.457743038593063 0.4479726428920372
0.15494253700035188 0.4606741573033708 0.44699560332193444
0.15512862600007793 0.4587200781631655 0.4460185637518319
0.15531460300007893 0.4606741573033708 0.4479726428920372
0.15550096900005883 0.45188080117244755 0.44406448461162684
0.15568735400029254 0.45188080117244755 0.441133365901319
0.15587401700031478 0.44699560332193444 0.44211040547142155
0.15606003100037924 0.4430874450415241 0.4382022471910112
0.1562602860003608 0.44406448461162684 0.4382022471910112
0.15648791100011294 0.441133365901319 0.4382022471910112
0.15667420299996593 0.4401563263312165 0.43722520762090866
0.1568613279996498 0.441133365901319 0.441133365901319
0.15704721299971425 0.4430874450415241 0.4382022471910112
0.15723337599956722 0.4479726428920372 0.43917928676111373
0.1574205199995049 0.44211040547142155 0.4430874450415241
0.15760725600011938 0.44406448461162684 0.4430874450415241
0.15779380799995124 0.4430874450415241 0.4382022471910112
0.15798043300037534 0.441133365901319 0.43722520762090866
0.1581741879999754 0.44211040547142155 0.43624816805080613
0.15836103600031493 0.441133365901319 0.4352711284807034
0.15857106800012843 0.43624816805080613 0.43624816805080613
0.15876161999949545 0.4382022471910112 0.4333170493404983
0.15894870800002536 0.43917928676111373 0.4382022471910112
0.15913475900015328 0.44211040547142155 0.43722520762090866
0.15932325500034494 0.4460185637518319 0.4401563263312165
0.15951523199964868 0.44992672203224227 0.441133365901319
0.15971145000003162 0.4538348803126526 0.44211040547142155
0.15990644599969528 0.4557889594528579 0.44211040547142155
0.1601042749998669 0.44894968246213973 0.441133365901319
0.1603146959996593 0.44992672203224227 0.4430874450415241
0.16053465400000277 0.44406448461162684 0.44699560332193444
0.1607651120002629 0.441133365901319 0.4430874450415241
0.1609797190003519 0.43917928676111373 0.4450415241817294
0.16125684199960233 0.43624816805080613 0.44699560332193444
0.16151479899963306 0.4255007327796776 0.44894968246213973
0.16174933099955524 0.4255007327796776 0.45188080117244755
0.1619750669997302 0.42452369320957506 0.4528578407425501
0.16221100599977945 0.42940889106008795 0.45676599902296044
0.16241826100031176 0.4303859306301905 0.46165119687347334
0.16261714499978552 0.43429408891060084 0.4606741573033708
0.16281745600008435 0.43722520762090866 0.4606741573033708
0.16306354300013481 0.43917928676111373 0.4636052760136786
0.16328781599986542 0.44211040547142155 0.46165119687347334
0.1634793670000363 0.44406448461162684 0.46165119687347334
0.1636672329996145 0.44894968246213973 0.45969711773326827
0.1638550440002291 0.45188080117244755 0.45969711773326827
0.16404203999991296 0.4538348803126526 0.45481191988275516
0.16422870199949102 0.4538348803126526 0.45188080117244755
0.16441430899976694 0.4587200781631655 0.457743038593063
0.1646006020000641 0.45481191988275516 0.4528578407425501
0.1647868379995998 0.45676599902296044 0.4587200781631655
0.16497300100036227 0.4587200781631655 0.457743038593063
0.1651639219999197 0.457743038593063 0.46165119687347334
0.1653497890001745 0.4587200781631655 0.46262823644357587
0.16553559899966785 0.45969711773326827 0.4606741573033708
0.16572140999960538 0.45969711773326827 0.4636052760136786
0.1659082389996911 0.4587200781631655 0.46165119687347334
0.1660981240002002 0.46262823644357587 0.4587200781631655
0.16628530500020133 0.46458231558378116 0.4606741573033708
0.16647078200003307 0.46165119687347334 0.4655593551538837
0.1666564629995264 0.4665363947239862 0.4655593551538837
0.16684203299973888 0.467513434294089 0.46458231558378116
0.1670284370002264 0.46458231558378116 0.4684904738641915
0.1672142099996563 0.46458231558378116 0.467513434294089
0.16739983600018604 0.45969711773326827 0.4655593551538837
0.16758594299972174 0.4538348803126526 0.467513434294089
0.16777188299965928 0.45481191988275516 0.4704445530043966
0.1679580829995757 0.4538348803126526 0.4665363947239862
0.16814368999985163 0.44699560332193444 0.4684904738641915
0.16833168599987403 0.4460185637518319 0.46946751343429405
0.16852195899991784 0.44699560332193444 0.4684904738641915
0.16870738099987648 0.4450415241817294 0.4665363947239862
0.16889369199998328 0.4509037616023448 0.46165119687347334
0.16907926200019574 0.44699560332193444 0.4587200781631655
0.16926529499960452 0.4479726428920372 0.46458231558378116
0.16945125399979588 0.45188080117244755 0.46458231558378116
0.16963695300000836 0.44699560332193444 0.4665363947239862
0.16982307899979787 0.44992672203224227 0.467513434294089
0.17000905599979887 0.4528578407425501 0.467513434294089
0.1702088290003303 0.45481191988275516 0.46946751343429405
0.1703947509995487 0.457743038593063 0.46946751343429405
0.17058076600005734 0.4587200781631655 0.4655593551538837
0.17076772400014306 0.4655593551538837 0.4684904738641915
0.17096835000029387 0.4557889594528579 0.46165119687347334
0.17115566000029503 0.4528578407425501 0.457743038593063
0.17134148999957688 0.45188080117244755 0.4557889594528579
0.17152772600002208 0.45188080117244755 0.4528578407425501
0.17171344399957889 0.44699560332193444 0.4509037616023448
0.17189873600000283 0.441133365901319 0.44992672203224227
0.17208871399998316 0.43722520762090866 0.44699560332193444
0.17227502399964578 0.43917928676111373 0.4460185637518319
0.17246090899971023 0.4382022471910112 0.4460185637518319
0.17264659000011306 0.44406448461162684 0.44406448461162684
0.17283217899966985 0.44211040547142155 0.4401563263312165
0.1730423039998641 0.441133365901319 0.43917928676111373
0.17322922600033053 0.4382022471910112 0.44211040547142155
0.17341592499997205 0.4382022471910112 0.441133365901319
0.17360214299969812 0.441133365901319 0.44211040547142155
0.17378899100003764 0.44406448461162684 0.44406448461162684
0.17397544999948877 0.4479726428920372 0.4430874450415241
0.174164760000167 0.4460185637518319 0.4450415241817294
0.1743520529998932 0.44894968246213973 0.4430874450415241
0.17453838199980964 0.4509037616023448 0.44211040547142155
0.17473300700021355 0.44992672203224227 0.4450415241817294
0.17491900299955887 0.44992672203224227 0.4460185637518319
0.17512136899949837 0.45188080117244755 0.4460185637518319
0.17532273500000883 0.4509037616023448 0.4450415241817294
0.17552674899980047 0.44992672203224227 0.44406448461162684
0.17572800400012056 0.45676599902296044 0.44406448461162684
0.1759282399998483 0.45188080117244755 0.4430874450415241
0.1761280499995337 0.45188080117244755 0.441133365901319
0.1763193240003602 0.45188080117244755 0.4382022471910112
0.1765224680002575 0.44894968246213973 0.43429408891060084
0.17674355500003003 0.44699560332193444 0.4352711284807034
0.17697569800020574 0.4509037616023448 0.4323400097703958
0.17720778599959885 0.44992672203224227 0.4382022471910112
0.17742339199958224 0.45188080117244755 0.4352711284807034
0.177611498999795 0.4509037616023448 0.43429408891060084
0.1777996990003885 0.4509037616023448 0.43722520762090866
0.17798688000038965 0.4557889594528579 0.4352711284807034
0.1781804310003281 0.44894968246213973 0.43722520762090866
0.17836759300007543 0.44894968246213973 0.4352711284807034
0.17855425600009767 0.4557889594528579 0.4401563263312165
0.17874008499984484 0.45188080117244755 0.4382022471910112
0.1789252110002053 0.44992672203224227 0.43917928676111373
0.17911324400029116 0.4460185637518319 0.441133365901319
0.17936464499962312 0.4509037616023448 0.441133365901319
0.17955377099951875 0.44992672203224227 0.4479726428920372
0.17973974799951975 0.4528578407425501 0.44894968246213973
0.1799262260001342 0.45481191988275516 0.4460185637518319
0.1801122770002621 0.45188080117244755 0.44211040547142155
0.18029767999996693 0.44992672203224227 0.43917928676111373
0.180487286999778 0.44992672203224227 0.441133365901319
0.1806739869998637 0.44699560332193444 0.4382022471910112
0.18086022399984358 0.4460185637518319 0.4401563263312165
0.18104616399978113 0.4528578407425501 0.44406448461162684
0.1812319929995283 0.4479726428920372 0.44699560332193444
0.18141789600031188 0.4479726428920372 0.44699560332193444
0.1816042809996361 0.4430874450415241 0.44699560332193444
0.18179016599970055 0.441133365901319 0.44992672203224227
0.18197701400004007 0.4401563263312165 0.4557889594528579
0.18217076899964013 0.4401563263312165 0.4538348803126526
0.18235706099949311 0.4430874450415241 0.4528578407425501
0.18254442699981155 0.44211040547142155 0.4557889594528579
0.18273020099968562 0.44894968246213973 0.45481191988275516
0.18291536299966538 0.44211040547142155 0.4538348803126526
0.1831019519995607 0.44211040547142155 0.4557889594528579
0.1832883179995406 0.44406448461162684 0.45969711773326827
0.18347442499998579 0.44894968246213973 0.45481191988275516
0.18366012499973294 0.4509037616023448 0.45676599902296044
0.1838457499998185 0.44894968246213973 0.4587200781631655
0.18403470900011598 0.45188080117244755 0.45676599902296044
0.18422159399960947 0.4538348803126526 0.457743038593063
0.18440749700039305 0.4538348803126526 0.4557889594528579
0.18459391899978073 0.45481191988275516 0.4557889594528579
0.18477972900018358 0.45188080117244755 0.457743038593063
0.18496596600016346 0.45188080117244755 0.4587200781631655
0.18515383199974167 0.45188080117244755 0.45969711773326827
0.18534032800016575 0.4528578407425501 0.45969711773326827
0.18552593499953218 0.4528578407425501 0.4655593551538837
0.1857127089997448 0.44992672203224227 0.467513434294089
0.18589977899955556 0.4479726428920372 0.46165119687347334
0.18609308899976895 0.45188080117244755 0.46262823644357587
0.1862800299995797 0.44992672203224227 0.4606741573033708
0.18646615499983454 0.44406448461162684 0.46165119687347334
0.18665226200027973 0.441133365901319 0.45969711773326827
0.18683875799979432 0.4401563263312165 0.4587200781631655
0.1870253649994993 0.4460185637518319 0.46165119687347334
0.18721186099992337 0.44211040547142155 0.4606741573033708
0.18741855999996915 0.4450415241817294 0.46165119687347334
0.18760461100009707 0.4430874450415241 0.4704445530043966
0.18779008900037297 0.4460185637518319 0.4636052760136786
0.18797667699982412 0.44211040547142155 0.467513434294089
0.18816246899950784 0.4479726428920372 0.4655593551538837
0.18834829899969918 0.44992672203224227 0.467513434294089
0.18853442399995402 0.4450415241817294 0.46458231558378116
0.1887201979998281 0.4450415241817294 0.4636052760136786
0.18890574899978674 0.44699560332193444 0.45969711773326827
0.18909120799980883 0.44992672203224227 0.46165119687347334
0.18927674099995784 0.44699560332193444 0.4636052760136786
0.1894623110001703 0.44992672203224227 0.46165119687347334
0.18965032500000234 0.44699560332193444 0.45969711773326827
0.18984996899962425 0.4460185637518319 0.46165119687347334
0.19006237200028409 0.44992672203224227 0.4636052760136786
0.19026290500005416 0.4450415241817294 0.46458231558378116
0.19046049299959122 0.44894968246213973 0.46458231558378116
0.19066102499982662 0.4460185637518319 0.4655593551538837
0.1908593540001675 0.4479726428920372 0.46458231558378116
0.19105946099989524 0.44992672203224227 0.46165119687347334
0.1912616050003635 0.4479726428920372 0.4587200781631655
0.19149058099992544 0.4509037616023448 0.45969711773326827
0.19173605699961627 0.44894968246213973 0.45969711773326827
0.19199479199960479 0.44894968246213973 0.45676599902296044
0.19223102799969638 0.44894968246213973 0.45969711773326827
0.1924634850001894 0.4538348803126526 0.45676599902296044
0.19267572199987626 0.44992672203224227 0.4509037616023448
0.1929284199995891 0.44894968246213973 0.44992672203224227
0.19313328499993077 0.44894968246213973 0.45188080117244755
0.19333317000018724 0.4509037616023448 0.44894968246213973
0.19354335000025458 0.44894968246213973 0.44992672203224227
0.1937461790002999 0.4538348803126526 0.4460185637518319
0.1939418049996675 0.44894968246213973 0.44406448461162684
0.19423124300010386 0.45188080117244755 0.4450415241817294
0.19442046099993604 0.4479726428920372 0.44406448461162684
0.19460658600019087 0.4538348803126526 0.44406448461162684
0.19479206399955729 0.457743038593063 0.44211040547142155
0.194979021999643 0.44992672203224227 0.4509037616023448
0.19516455499979202 0.4538348803126526 0.4450415241817294
0.195350273999793 0.45188080117244755 0.44211040547142155
0.19553613999960362 0.45188080117244755 0.44211040547142155
0.19572589499966853 0.44992672203224227 0.441133365901319
0.19596233399988705 0.4538348803126526 0.43917928676111373
0.1961497189995498 0.4528578407425501 0.441133365901319
0.19633576999967772 0.45188080117244755 0.43917928676111373
0.19655730199974641 0.44992672203224227 0.4382022471910112
0.19674422400021285 0.45188080117244755 0.441133365901319
0.19693085000017163 0.4509037616023448 0.4382022471910112
0.1971175119997497 0.44992672203224227 0.4382022471910112
0.19731156299985741 0.44699560332193444 0.43429408891060084
0.19753763300013816 0.44406448461162684 0.43624816805080613
0.19775773899982596 0.44406448461162684 0.43722520762090866
0.19797951199961972 0.44699560332193444 0.4382022471910112
0.19853748100013036 0.44992672203224227 0.441133365901319
0.1987998080003308 0.45188080117244755 0.44211040547142155
0.19903928500025359 0.45188080117244755 0.4382022471910112
0.19926294600008987 0.4557889594528579 0.4401563263312165
0.1994742930000939 0.45481191988275516 0.4382022471910112
0.1996758260002025 0.4557889594528579 0.4382022471910112
0.19988308099982532 0.45481191988275516 0.4401563263312165
0.20009329799995612 0.4538348803126526 0.4401563263312165
0.2002896639996834 0.457743038593063 0.43917928676111373
0.2004773449998538 0.44992672203224227 0.4401563263312165
0.20066369300002407 0.45188080117244755 0.4382022471910112
0.200878818000092 0.44992672203224227 0.441133365901319
0.20106777700038947 0.45676599902296044 0.4401563263312165
0.20144123099998978 0.4538348803126526 0.4460185637518319
0.20163474600030895 0.4557889594528579 0.4450415241817294
0.20182266699976026 0.45481191988275516 0.44699560332193444
0.20201281099980406 0.4509037616023448 0.44992672203224227
0.20224721399972623 0.4509037616023448 0.45188080117244755
0.20243520900021394 0.4509037616023448 0.4509037616023448
0.20262224199996126 0.44406448461162684 0.45188080117244755
0.20280918299977202 0.44406448461162684 0.4528578407425501
0.20299588200032304 0.43917928676111373 0.45969711773326827
0.20318293400032417 0.4382022471910112 0.45188080117244755
0.20337013300013496 0.43429408891060084 0.4557889594528579
0.20355675900009373 0.43624816805080613 0.45481191988275516
0.20374351400005253 0.43429408891060084 0.45969711773326827
0.20392988000003243 0.43429408891060084 0.457743038593063
0.2041170800002874 0.4333170493404983 0.4606741573033708
0.20431263099999342 0.4382022471910112 0.46165119687347334
0.20449992300018494 0.4401563263312165 0.46262823644357587
0.20469923299970105 0.4450415241817294 0.4636052760136786
0.20490519200029667 0.4538348803126526 0.46262823644357587
0.20509324300019216 0.4528578407425501 0.4636052760136786
0.20528005399955873 0.457743038593063 0.46458231558378116
0.2054679020002368 0.4655593551538837 0.46458231558378116
0.20565578599962464 0.47728382999511476 0.46946751343429405
0.2058441529998163 0.48216902784562765 0.4684904738641915
0.2060525549995873 0.4831460674157304 0.467513434294089
0.20626710600026854 0.47923790913532005 0.4684904738641915
0.20650500800002192 0.46946751343429405 0.4655593551538837
0.20669330100008665 0.46262823644357587 0.46458231558378116
0.20688116699966486 0.45481191988275516 0.4636052760136786
0.20706843999960256 0.45188080117244755 0.46262823644357587
0.20725527000013244 0.44992672203224227 0.4606741573033708
0.20744224699956249 0.44699560332193444 0.4587200781631655
0.20762855799966928 0.4460185637518319 0.457743038593063
0.2078155910003261 0.44699560332193444 0.4557889594528579
0.2080026599996927 0.4460185637518319 0.45676599902296044
0.20818906400018022 0.4450415241817294 0.46165119687347334
0.20837844800007588 0.441133365901319 0.4538348803126526
0.2085703149996334 0.44211040547142155 0.45676599902296044
0.2087821429995529 0.4460185637518319 0.45676599902296044
0.2089767130000837 0.44406448461162684 0.4606741573033708
0.20917591200031893 0.4430874450415241 0.457743038593063
0.20937303800019436 0.44406448461162684 0.4587200781631655
0.20956303299954016 0.45188080117244755 0.4528578407425501
0.20975117699981638 0.4528578407425501 0.4557889594528579
0.20993806200021936 0.4557889594528579 0.45481191988275516
0.2101521499998853 0.4655593551538837 0.45481191988275516
0.21033940500001336 0.467513434294089 0.46165119687347334
0.2105280120003954 0.4684904738641915 0.45969711773326827
0.21071571199991013 0.4753297508549097 0.45481191988275516
0.2109034850000171 0.4665363947239862 0.46165119687347334
0.21110122200025216 0.46458231558378116 0.4606741573033708
0.21128893999957654 0.46165119687347334 0.4665363947239862
0.21147582399953535 0.4557889594528579 0.4684904738641915
0.21166280200031906 0.46458231558378116 0.4655593551538837
0.21184944600008748 0.45481191988275516 0.457743038593063
0.21203620100004628 0.45188080117244755 0.4606741573033708
0.21222297500025888 0.44699560332193444 0.45676599902296044
0.21240969300015422 0.44699560332193444 0.4557889594528579
0.21259652200023993 0.44699560332193444 0.45188080117244755
0.21278342499954306 0.44406448461162684 0.45676599902296044
0.21297027299988258 0.44211040547142155 0.45676599902296044
0.2131827869998233 0.43917928676111373 0.45481191988275516
0.21338067099986802 0.43722520762090866 0.4538348803126526
0.213570351999806 0.43429408891060084 0.44894968246213973
0.21375807000003988 0.4333170493404983 0.4460185637518319
0.21394506599972374 0.43429408891060084 0.44211040547142155
0.21414689500034 0.43624816805080613 0.441133365901319
0.21433402000002388 0.4401563263312165 0.4382022471910112
0.21452077599951735 0.4479726428920372 0.4382022471910112
0.21470732699981454 0.4538348803126526 0.4401563263312165
0.21489319299962517 0.457743038593063 0.43917928676111373
0.21507942999960505 0.46165119687347334 0.4401563263312165
0.2152664069999446 0.46165119687347334 0.44406448461162684
0.2154533849998188 0.46262823644357587 0.44406448461162684
0.2156646390003516 0.45969711773326827 0.441133365901319
0.21585187599976052 0.4557889594528579 0.43917928676111373
0.21603766800035373 0.45188080117244755 0.43722520762090866
0.21622438600024907 0.44699560332193444 0.4382022471910112
0.2164101970001866 0.44406448461162684 0.43722520762090866
0.21659598899987031 0.4450415241817294 0.4352711284807034
0.2167818919997444 0.4460185637518319 0.431362970200293
0.21696796200012614 0.4450415241817294 0.43429408891060084
0.2171536619998733 0.4450415241817294 0.43624816805080613
0.21734047300014936 0.4479726428920372 0.44406448461162684
0.21752650500002346 0.4479726428920372 0.43917928676111373
0.21771224199983408 0.44406448461162684 0.43917928676111373
0.2178986819999409 0.43917928676111373 0.44211040547142155
0.2180878079998365 0.43917928676111373 0.44406448461162684
0.21827561800000694 0.43624816805080613 0.4460185637518319
0.2184628180002619 0.4323400097703958 0.4479726428920372
0.2186491290003687 0.43624816805080613 0.44699560332193444
0.21883571699981985 0.4303859306301905 0.44699560332193444
0.21902163899994775 0.42745481191988266 0.4430874450415241
0.21920811600011803 0.4303859306301905 0.44211040547142155
0.21939966799982358 0.43624816805080613 0.4401563263312165
0.2195859780003957 0.4401563263312165 0.441133365901319
0.21977191899986792 0.43917928676111373 0.4430874450415241
0.21995758100001694 0.4450415241817294 0.4430874450415241
0.2201454289997855 0.44992672203224227 0.44406448461162684
0.22033370299959643 0.44894968246213973 0.44699560332193444
0.22052032800002053 0.4450415241817294 0.4450415241817294
0.22070754600008513 0.44699560332193444 0.44894968246213973
0.22089700499964238 0.4460185637518319 0.4450415241817294
0.22109498200006783 0.44992672203224227 0.4430874450415241
0.22131232900028408 0.45481191988275516 0.4450415241817294
0.22150058399984118 0.45676599902296044 0.4450415241817294
0.2216878210001596 0.4587200781631655 0.44406448461162684
0.22187479799958965 0.46165119687347334 0.4450415241817294
0.2220629049998024 0.4636052760136786 0.4479726428920372
0.2222498450000785 0.4636052760136786 0.4450415241817294
0.22243602700018528 0.46458231558378116 0.4450415241817294
0.22262202199999592 0.467513434294089 0.44406448461162684
0.22280779599987 0.4655593551538837 0.44406448461162684
0.22300694000023213 0.4606741573033708 0.44211040547142155
0.22323152700028004 0.4528578407425501 0.44406448461162684
0.2234471339997981 0.4538348803126526 0.44699560332193444
0.22364801799994893 0.4538348803126526 0.4460185637518319
0.22384518099988782 0.4479726428920372 0.44992672203224227
0.22404138000001694 0.44992672203224227 0.45481191988275516
0.2242357830000401 0.44992672203224227 0.45969711773326827
0.2244383529996412 0.44992672203224227 0.457743038593063
0.22465288500006864 0.4509037616023448 0.457743038593063
0.2248784909997994 0.4479726428920372 0.4557889594528579
0.22512352299963823 0.44894968246213973 0.45969711773326827
0.22535594300006778 0.4538348803126526 0.45969711773326827
0.22562251199997263 0.4538348803126526 0.45969711773326827
0.2258295999999973 0.4509037616023448 0.4636052760136786
0.2260562800001935 0.45188080117244755 0.4636052760136786
0.22626412699992215 0.44992672203224227 0.4655593551538837
0.22646760400039057 0.45188080117244755 0.4655593551538837
0.22667526599980192 0.4528578407425501 0.4665363947239862
0.22687270599999465 0.4479726428920372 0.4704445530043966
0.22706766499959485 0.4538348803126526 0.46946751343429405
0.22728612300034 0.4557889594528579 0.4733756717147044
0.2275573950000762 0.45481191988275516 0.4733756717147044
0.2283174340000187 0.4538348803126526 0.4704445530043966
0.2287044810000225 0.441133365901319 0.4733756717147044
0.22895486400011578 0.4323400097703958 0.4704445530043966
0.229207229000167 0.42940889106008795 0.4665363947239862
0.22946188999958395 0.4264777723497801 0.4665363947239862
0.22966355199969257 0.4264777723497801 0.4636052760136786
0.2298531959995671 0.4323400097703958 0.4606741573033708
0.23009906100014632 0.43624816805080613 0.457743038593063
0.23030061200006458 0.44211040547142155 0.44992672203224227
0.23048783000012918 0.4450415241817294 0.44992672203224227
0.23067625200019393 0.4509037616023448 0.4450415241817294
0.23090411700013647 0.4509037616023448 0.44406448461162684
0.2310905759995876 0.4538348803126526 0.4382022471910112
0.2312773499998002 0.45676599902296044 0.441133365901319
0.23146360499958973 0.45676599902296044 0.441133365901319
0.23165010100001382 0.4636052760136786 0.43917928676111373
0.2318371709998246 0.457743038593063 0.44211040547142155
0.23202383300031215 0.4636052760136786 0.4401563263312165
0.23221029199976329 0.46165119687347334 0.4460185637518319
0.2323969359995317 0.4587200781631655 0.4430874450415241
0.23258293199978652 0.4606741573033708 0.44894968246213973
0.2328010749997702 0.46946751343429405 0.44699560332193444
0.23299071899964474 0.457743038593063 0.44894968246213973
0.23317764100011118 0.45969711773326827 0.4479726428920372
0.2333640260003449 0.4606741573033708 0.4509037616023448
0.23354989200015552 0.46458231558378116 0.4460185637518319
0.23373616600019886 0.46165119687347334 0.4430874450415241
0.23392188399975566 0.45969711773326827 0.44211040547142155
0.23412962000020343 0.4557889594528579 0.44406448461162684
0.23431691200039495 0.4538348803126526 0.44211040547142155
0.23450316700018448 0.45188080117244755 0.43917928676111373
0.23469044099965686 0.4509037616023448 0.441133365901319
0.23487641799965786 0.4430874450415241 0.4401563263312165
0.23506345100031467 0.4450415241817294 0.4450415241817294
0.23524944699966 0.4479726428920372 0.44406448461162684
0.23543540599985135 0.44894968246213973 0.4401563263312165
0.23562223499993706 0.4479726428920372 0.4382022471910112
0.23580847199991695 0.4528578407425501 0.43917928676111373
0.2359952639999392 0.4509037616023448 0.43917928676111373
0.23618101899955946 0.45481191988275516 0.43624816805080613
0.23636768100004701 0.4557889594528579 0.44211040547142155
0.23655375099951925 0.45969711773326827 0.43624816805080613
0.23674024699994334 0.46262823644357587 0.4382022471910112
0.23692668799958483 0.46165119687347334 0.4401563263312165
0.23711301699950127 0.45969711773326827 0.4382022471910112
0.2373209199995472 0.45969711773326827 0.43722520762090866
0.23750767499950598 0.4557889594528579 0.44406448461162684
0.23769404100039537 0.4528578407425501 0.4382022471910112
0.23788027800037526 0.45188080117244755 0.43917928676111373
0.23806951400001708 0.4450415241817294 0.4401563263312165
0.23825763999957417 0.44699560332193444 0.43917928676111373
0.2384438950002732 0.4509037616023448 0.4430874450415241
0.23863042799985124 0.44992672203224227 0.441133365901319
0.2388264600003822 0.44699560332193444 0.43917928676111373
0.23902177099989785 0.4430874450415241 0.44406448461162684
0.23920863700004702 0.44406448461162684 0.44211040547142155
0.23939520699968853 0.44406448461162684 0.441133365901319
0.23959351800021977 0.441133365901319 0.4401563263312165
0.23981664199982333 0.43917928676111373 0.44211040547142155
0.2400033229996552 0.44211040547142155 0.4430874450415241
0.2401893750002273 0.4401563263312165 0.4450415241817294
0.24037566700008028 0.4430874450415241 0.4430874450415241
0.2405812730003163 0.44406448461162684 0.44699560332193444
0.2407675839995136 0.44211040547142155 0.44699560332193444
0.24095550600031856 0.4479726428920372 0.44894968246213973
0.2411413720001292 0.4450415241817294 0.44894968246213973
0.2413280720002149 0.44406448461162684 0.44894968246213973
0.24151519699989876 0.4460185637518319 0.4479726428920372
0.2417015259998152 0.4450415241817294 0.4509037616023448
0.2418935039995631 0.4509037616023448 0.45188080117244755
0.24209986999994726 0.4528578407425501 0.4509037616023448
0.24230106899995008 0.45676599902296044 0.4528578407425501
0.24249743499967735 0.4606741573033708 0.45481191988275516
0.24269067099976382 0.4665363947239862 0.44992672203224227
0.2428769629996168 0.4704445530043966 0.4528578407425501
0.24306316299953323 0.4763067904250122 0.45481191988275516
0.2432500289996824 0.47728382999511476 0.457743038593063
0.24343670999951428 0.4753297508549097 0.45481191988275516
0.2436259650003194 0.4704445530043966 0.4557889594528579
0.24381360899951687 0.46458231558378116 0.45481191988275516
0.24400408699966647 0.45676599902296044 0.45481191988275516
0.24419074900015403 0.4509037616023448 0.4557889594528579
0.24437759699958406 0.4509037616023448 0.4538348803126526
0.24456375899990235 0.44699560332193444 0.45481191988275516
0.2447511439995651 0.44699560332193444 0.45481191988275516
0.2449379179997777 0.44992672203224227 0.4587200781631655
0.2451242099996307 0.4509037616023448 0.46165119687347334
0.24532728000031057 0.45188080117244755 0.46458231558378116
0.24551409000014246 0.4509037616023448 0.467513434294089
0.2457007530001647 0.4528578407425501 0.46946751343429405
0.24588708200008114 0.45676599902296044 0.4665363947239862
0.24607541099976515 0.4528578407425501 0.4684904738641915
0.24626379599976644 0.4538348803126526 0.4665363947239862
0.2464501989998098 0.45188080117244755 0.4655593551538837
0.24663713999962056 0.4528578407425501 0.4636052760136786
0.246824505999939 0.4509037616023448 0.4665363947239862
0.24704390799979592 0.44894968246213973 0.457743038593063
0.24723212600019906 0.4479726428920372 0.457743038593063
0.24741812199954438 0.44699560332193444 0.4587200781631655
0.24760384000001068 0.44406448461162684 0.45969711773326827
0.24778974400032894 0.4450415241817294 0.46262823644357587
0.24797607300024538 0.4430874450415241 0.4606741573033708
0.24816171699967526 0.44699560332193444 0.46262823644357587
0.24835021299986693 0.43722520762090866 0.4606741573033708
0.24853750500005845 0.4382022471910112 0.457743038593063
0.24872324199986906 0.43917928676111373 0.4606741573033708
0.24891201500031457 0.43624816805080613 0.4528578407425501
0.24910188099966035 0.43722520762090866 0.45481191988275516
0.24928793300023244 0.43722520762090866 0.4557889594528579
0.2494736879998527 0.4382022471910112 0.45676599902296044
0.24965918399993825 0.4401563263312165 0.4587200781631655
0.24984523500006617 0.44406448461162684 0.46165119687347334
0.2500448419996246 0.44992672203224227 0.4636052760136786
0.25023228200006997 0.45969711773326827 0.4665363947239862
0.25041883399990184 0.46262823644357587 0.4665363947239862
0.2506049960002201 0.46262823644357587 0.467513434294089
0.25079117699988274 0.4655593551538837 0.467513434294089
0.250977525000053 0.46165119687347334 0.46262823644357587
0.25117322400001285 0.46165119687347334 0.45969711773326827
0.2513594980000562 0.4655593551538837 0.4587200781631655
0.2515508639999098 0.4606741573033708 0.46458231558378116
0.2517370449995724 0.4587200781631655 0.4587200781631655
0.2519242819998908 0.4587200781631655 0.457743038593063
0.2521106479998707 0.4538348803126526 0.4528578407425501
0.25229634799961786 0.457743038593063 0.44894968246213973
0.25248217700027453 0.45676599902296044 0.4460185637518319
0.2526695619999373 0.4557889594528579 0.4430874450415241
0.2528556690003825 0.45481191988275516 0.44406448461162684
0.2530417759999182 0.4538348803126526 0.44406448461162684
0.25322799399964424 0.4557889594528579 0.4450415241817294
0.25341378600023745 0.4557889594528579 0.44211040547142155
0.2536002079996251 0.45188080117244755 0.44211040547142155
0.25378807400011283 0.45188080117244755 0.4401563263312165
0.25397473700013506 0.44894968246213973 0.4382022471910112
0.2542729150000014 0.4479726428920372 0.43429408891060084
0.2544770399999834 0.44699560332193444 0.43429408891060084
0.25467429499985883 0.4450415241817294 0.4352711284807034
0.25486225399981777 0.4479726428920372 0.43722520762090866
0.25504926800022076 0.4479726428920372 0.441133365901319
0.2552663010001197 0.4479726428920372 0.441133365901319
0.2554530369998247 0.44894968246213973 0.4430874450415241
0.25563912599955074 0.4509037616023448 0.4450415241817294
0.2558251399996152 0.44894968246213973 0.44211040547142155
0.25601113599987 0.4460185637518319 0.441133365901319
0.25621487199987314 0.4460185637518319 0.44406448461162684
0.2564076090002345 0.4479726428920372 0.43917928676111373
0.25661154899989924 0.44699560332193444 0.43917928676111373
0.2568064890001551 0.44699560332193444 0.4430874450415241
0.25700846600011573 0.4479726428920372 0.4382022471910112
0.2572130170001401 0.44992672203224227 0.44211040547142155
0.2574207159996149 0.4509037616023448 0.44211040547142155
0.2576130449997436 0.44992672203224227 0.4460185637518319
0.2578316509998331 0.44699560332193444 0.43722520762090866
0.258075849999841 0.4430874450415241 0.4401563263312165
0.25830612200024916 0.44406448461162684 0.4382022471910112
0.25856165400000464 0.44406448461162684 0.43722520762090866
0.2587763339997764 0.44211040547142155 0.4352711284807034
0.2589967550002257 0.4450415241817294 0.43624816805080613
0.2592059729995526 0.4430874450415241 0.43429408891060084
0.25940300499951263 0.4460185637518319 0.4382022471910112
0.25960096400012844 0.4430874450415241 0.4333170493404983
0.25979690399981337 0.44211040547142155 0.4352711284807034
0.2600078810000923 0.44211040547142155 0.4333170493404983
0.2602057280000736 0.43917928676111373 0.43722520762090866
0.26040340899999137 0.4401563263312165 0.4382022471910112
0.26062077499955194 0.4401563263312165 0.43624816805080613
0.2608463070000653 0.4401563263312165 0.4401563263312165
0.2610614129998794 0.43722520762090866 0.43917928676111373
0.26129781500003446 0.44211040547142155 0.441133365901319
0.2615240140003152 0.43917928676111373 0.4430874450415241
0.2617453060001935 0.441133365901319 0.4430874450415241
0.2619925589997365 0.4450415241817294 0.44699560332193444
0.26227160899998125 0.4430874450415241 0.4479726428920372
0.26250686299954396 0.4430874450415241 0.4479726428920372
0.2627071919996524 0.44699560332193444 0.44894968246213973
0.2629059099999722 0.4430874450415241 0.45188080117244755
0.26310692399965774 0.45481191988275516 0.4538348803126526
0.26329862300008244 0.4479726428920372 0.4528578407425501
0.2634855999995125 0.44992672203224227 0.457743038593063
0.2636723929999789 0.45481191988275516 0.45481191988275516
0.26385903699974733 0.457743038593063 0.46458231558378116
0.2640683469999203 0.457743038593063 0.4606741573033708
0.26426526799968997 0.4557889594528579 0.46262823644357587
0.26445461599996634 0.45676599902296044 0.46262823644357587
0.26464151900017896 0.45481191988275516 0.4606741573033708
0.26482803399994737 0.4538348803126526 0.46165119687347334
0.26501380700028676 0.45481191988275516 0.4655593551538837
0.26519952499984356 0.45676599902296044 0.46458231558378116
0.265438575999724 0.45676599902296044 0.46458231558378116
0.2656254789999366 0.4528578407425501 0.4655593551538837
0.2658134009998321 0.45676599902296044 0.45969711773326827
0.26599930399970617 0.4606741573033708 0.4636052760136786
0.26620185499996296 0.45481191988275516 0.4636052760136786
0.2663887210001121 0.45188080117244755 0.46165119687347334
0.2665744949999862 0.45676599902296044 0.46262823644357587
0.2667605280003045 0.4557889594528579 0.4587200781631655
0.26694604200019967 0.4509037616023448 0.46262823644357587
0.2671327050002219 0.45188080117244755 0.46165119687347334
0.2673306449996744 0.44992672203224227 0.4636052760136786
0.26752321499952814 0.45188080117244755 0.4587200781631655
0.2677194879997842 0.44992672203224227 0.45969711773326827
0.2679108909997012 0.4479726428920372 0.45969711773326827
0.2681005169997661 0.4509037616023448 0.4606741573033708
0.268286753999746 0.4509037616023448 0.4606741573033708
0.2684753229996204 0.4538348803126526 0.45676599902296044
0.26866139300000214 0.45481191988275516 0.45676599902296044
0.268891351000093 0.4557889594528579 0.457743038593063
0.2690783839998403 0.4557889594528579 0.457743038593063
0.2692644359995029 0.457743038593063 0.457743038593063
0.2694500979996519 0.457743038593063 0.45969711773326827
0.26963642699956836 0.4587200781631655 0.4587200781631655
0.2698227939999924 0.46165119687347334 0.45969711773326827
0.2700085670003318 0.46165119687347334 0.457743038593063
0.27022122899961687 0.45969711773326827 0.45676599902296044
0.27040785499957565 0.4587200781631655 0.45481191988275516
0.2705937949995132 0.4557889594528579 0.4528578407425501
0.27077967999957764 0.44992672203224227 0.457743038593063
0.2709658789999594 0.4460185637518319 0.4587200781631655
0.2711523939997278 0.441133365901319 0.45676599902296044
0.2713382419997288 0.441133365901319 0.457743038593063
0.2715239039998778 0.4450415241817294 0.457743038593063
0.27171030699992116 0.44406448461162684 0.45676599902296044
0.2718981549996897 0.4460185637518319 0.457743038593063
0.27211359499960963 0.44992672203224227 0.4557889594528579
0.27230031299950497 0.44992672203224227 0.45676599902296044
0.27248632699956943 0.4479726428920372 0.45676599902296044
0.27267232299982425 0.4450415241817294 0.45676599902296044
0.27285811499950796 0.43917928676111373 0.4587200781631655
0.2730703879997236 0.4382022471910112 0.45969711773326827
0.27325938400008454 0.43722520762090866 0.45676599902296044
0.27344738000010693 0.4333170493404983 0.45481191988275516
0.27363404300012917 0.43429408891060084 0.457743038593063
0.2738210759998765 0.43429408891060084 0.45481191988275516
0.2740072010001313 0.4382022471910112 0.4528578407425501
0.27420451200032403 0.43917928676111373 0.44894968246213973
0.2743905070001347 0.4401563263312165 0.44894968246213973
0.27457759600019926 0.43917928676111373 0.44699560332193444
0.27476357300020027 0.43722520762090866 0.4450415241817294
0.27495073600039177 0.4382022471910112 0.4430874450415241
0.2751429910003935 0.4382022471910112 0.4430874450415241
0.2753476159996353 0.4401563263312165 0.44406448461162684
0.2758532709995052 0.43917928676111373 0.44699560332193444
0.27605802600010065 0.441133365901319 0.43917928676111373
0.2762461889997212 0.44211040547142155 0.441133365901319
0.2764338699998916 0.4450415241817294 0.4382022471910112
0.2766951599996901 0.44699560332193444 0.4323400097703958
0.2768852669996704 0.4450415241817294 0.431362970200293
0.2770728559999043 0.4479726428920372 0.4333170493404983
0.27725938799994765 0.4479726428920372 0.4333170493404983
0.27744634699956805 0.44894968246213973 0.43429408891060084
0.27763293600037287 0.44699560332193444 0.43624816805080613
0.2778185979996124 0.4450415241817294 0.4382022471910112
0.27800561299955007 0.4479726428920372 0.4401563263312165
0.2781958859995939 0.44406448461162684 0.43917928676111373
0.27838438199978555 0.44211040547142155 0.44211040547142155
0.27857074799976544 0.441133365901319 0.441133365901319
0.2787567260002106 0.43917928676111373 0.43917928676111373
0.2789430920001905 0.44211040547142155 0.4382022471910112
0.27913047699985327 0.4460185637518319 0.4401563263312165
0.27931708399955824 0.44406448461162684 0.43722520762090866
0.27950391299964394 0.4430874450415241 0.43624816805080613
0.27968970500023715 0.44406448461162684 0.44406448461162684
0.2798760899995614 0.4479726428920372 0.4460185637518319
0.2800673450001341 0.44699560332193444 0.4460185637518319
0.28025441499994486 0.44894968246213973 0.44699560332193444
0.28044135500022094 0.44894968246213973 0.44699560332193444
0.28064081399952556 0.44992672203224227 0.44699560332193444
0.2808274580002035 0.44894968246213973 0.4528578407425501
0.28101365699967573 0.44211040547142155 0.45188080117244755
0.2812264860003779 0.44211040547142155 0.45188080117244755
0.28141585199955443 0.43917928676111373 0.4538348803126526
0.28160207000019 0.441133365901319 0.4538348803126526
0.2817876769995564 0.441133365901319 0.45188080117244755
0.2819737840000016 0.4382022471910112 0.457743038593063
0.2821630950002145 0.4430874450415241 0.4557889594528579
0.2823505349997504 0.44406448461162684 0.45188080117244755
0.2825371050003014 0.44699560332193444 0.4538348803126526
0.2827230269995198 0.4538348803126526 0.4528578407425501
0.2829173560003255 0.45188080117244755 0.45676599902296044
0.28310622200024227 0.4528578407425501 0.4538348803126526
0.2832928660000107 0.4538348803126526 0.4557889594528579
0.2834787689998848 0.4528578407425501 0.45676599902296044
0.2836652839996532 0.45481191988275516 0.4538348803126526
0.2838513910000984 0.4606741573033708 0.4538348803126526
0.2840373130002263 0.46165119687347334 0.44992672203224227
0.2842234939998889 0.46165119687347334 0.44992672203224227
0.28440867500012246 0.46262823644357587 0.44992672203224227
0.2845948929998485 0.45969711773326827 0.45676599902296044
0.2847814999995535 0.46458231558378116 0.4587200781631655
0.28497279200018966 0.46946751343429405 0.4587200781631655
0.2851640099997894 0.46262823644357587 0.45969711773326827
0.2853505610000866 0.46458231558378116 0.46165119687347334
0.2855377240002781 0.46262823644357587 0.4587200781631655
0.28572399800032144 0.45969711773326827 0.457743038593063
0.2859097339996879 0.457743038593063 0.45676599902296044
0.2860965820000274 0.4509037616023448 0.457743038593063
0.28628389299956325 0.44894968246213973 0.457743038593063
0.28647031400032574 0.4460185637518319 0.4587200781631655
0.2866566809998403 0.4450415241817294 0.4606741573033708
0.28684293599962984 0.441133365901319 0.4665363947239862
0.28702930199960974 0.43917928676111373 0.46946751343429405
0.28721516800032987 0.441133365901319 0.4704445530043966
0.2874018120000983 0.4401563263312165 0.47142159257449934
0.28760408600010123 0.4401563263312165 0.4704445530043966
0.28781093299949134 0.441133365901319 0.4733756717147044
0.2880036509995989 0.43917928676111373 0.46946751343429405
0.288190590999875 0.4401563263312165 0.4684904738641915
0.2883778830000665 0.4460185637518319 0.46946751343429405
0.2885651200003849 0.44406448461162684 0.46262823644357587
0.2887983560003704 0.4460185637518319 0.4655593551538837
0.28898694399958913 0.4430874450415241 0.4636052760136786
0.28917366200039396 0.44406448461162684 0.4636052760136786
0.28936028800035274 0.44699560332193444 0.4587200781631655
0.28956570900027145 0.4450415241817294 0.46262823644357587
0.28976018599951203 0.4460185637518319 0.4538348803126526
0.28996355199979007 0.44992672203224227 0.4538348803126526
0.2902072870001575 0.4587200781631655 0.4528578407425501
0.2904019679999692 0.46165119687347334 0.4538348803126526
0.29059440800028824 0.46165119687347334 0.44894968246213973
0.2907954040001641 0.4733756717147044 0.44992672203224227
0.2909924369996588 0.4636052760136786 0.4450415241817294
0.2912016540003606 0.46458231558378116 0.4450415241817294
0.2914090389995181 0.4636052760136786 0.4450415241817294
0.29161040500002855 0.46262823644357587 0.44211040547142155
0.29180847400039056 0.45969711773326827 0.4382022471910112
0.29200830300032976 0.45481191988275516 0.441133365901319
0.2922135389999312 0.4538348803126526 0.44211040547142155
0.2924228120000407 0.44992672203224227 0.4430874450415241
0.29266152899981535 0.45188080117244755 0.44211040547142155
0.29300678100025834 0.44992672203224227 0.44211040547142155
0.2932625719995485 0.4460185637518319 0.441133365901319
0.29347708499972214 0.44992672203224227 0.43917928676111373
0.2936806739999156 0.44992672203224227 0.441133365901319
0.2938790580001296 0.44699560332193444 0.44406448461162684
0.2940855910001119 0.45188080117244755 0.4460185637518319
0.2942917339996711 0.45481191988275516 0.44699560332193444
0.2944885079996311 0.4528578407425501 0.44406448461162684
0.2946846699996968 0.4528578407425501 0.4450415241817294
0.2948915169999964 0.4557889594528579 0.4401563263312165
0.295110883000234 0.4538348803126526 0.4333170493404983
0.2953385259997958 0.4528578407425501 0.431362970200293
0.2955631129998437 0.44894968246213973 0.42940889106008795
0.29580073800025275 0.44894968246213973 0.4323400097703958
0.2960290660003011 0.4450415241817294 0.43429408891060084
0.2962631350001175 0.44406448461162684 0.43722520762090866
0.2965014629999132 0.4401563263312165 0.44211040547142155
0.2967257909995169 0.4450415241817294 0.44699560332193444
0.2969559160001154 0.43917928676111373 0.4460185637518319
0.29717598499973974 0.44211040547142155 0.44992672203224227
0.29736790700007987 0.4450415241817294 0.44699560332193444
0.297555402999933 0.4460185637518319 0.44699560332193444
0.29776619400036 0.4382022471910112 0.44406448461162684
0.2979544119998536 0.441133365901319 0.4450415241817294
0.29816961100004846 0.4382022471910112 0.43722520762090866
0.29835740299949975 0.44211040547142155 0.4382022471910112
0.2985438069999873 0.44211040547142155 0.43917928676111373
0.2987294690001363 0.44699560332193444 0.441133365901319
0.29891542800032767 0.4509037616023448 0.44211040547142155
0.2991041459999906 0.44894968246213973 0.4430874450415241
0.2992908090000128 0.4460185637518319 0.43917928676111373
0.2994773049995274 0.4430874450415241 0.44211040547142155
0.2996643930000573 0.4430874450415241 0.43917928676111373
0.2998506849999103 0.4430874450415241 0.43624816805080613
0.30003755199959414 0.43917928676111373 0.4352711284807034
0.30022417700001824 0.43624816805080613 0.43624816805080613
0.30041106199951173 0.43624816805080613 0.4323400097703958
0.30059770600018965 0.44211040547142155 0.43624816805080613
0.3007838499997888 0.4430874450415241 0.44211040547142155
0.3009699379999802 0.4460185637518319 0.43917928676111373
0.30115637899962167 0.4479726428920372 0.44211040547142155
0.3013425780000034 0.4509037616023448 0.44211040547142155
0.3015284820003217 0.44894968246213973 0.4479726428920372
0.30171464399973047 0.4509037616023448 0.4479726428920372
0.301932047000264 0.4528578407425501 0.44894968246213973
0.3021499859996766 0.4557889594528579 0.4509037616023448
0.30233824100014317 0.45676599902296044 0.44992672203224227
0.30252473699965776 0.46165119687347334 0.4509037616023448
0.302711678000378 0.4606741573033708 0.4528578407425501
0.30289863599955424 0.46458231558378116 0.45481191988275516
0.3030858920001265 0.4587200781631655 0.4557889594528579
0.3032731100001911 0.4636052760136786 0.4538348803126526
0.30345997600034025 0.4587200781631655 0.457743038593063
0.30364732399993954 0.45969711773326827 0.4528578407425501
0.30383350499960216 0.457743038593063 0.457743038593063
0.3040199819997724 0.4587200781631655 0.457743038593063
0.3042063299999427 0.4636052760136786 0.45676599902296044
0.3043932889995631 0.4684904738641915 0.45969711773326827
0.30458009900030447 0.4684904738641915 0.45481191988275516
0.30476672500026325 0.4636052760136786 0.457743038593063
0.3049532389995875 0.46165119687347334 0.4557889594528579
0.30513971599975775 0.4528578407425501 0.4587200781631655
0.3053568779996567 0.44894968246213973 0.457743038593063
0.305543948000377 0.4382022471910112 0.45676599902296044
0.30573933300001954 0.4352711284807034 0.457743038593063
0.3059261440002956 0.43624816805080613 0.45676599902296044
0.3061231760002556 0.4333170493404983 0.457743038593063
0.30633654200028104 0.43624816805080613 0.45969711773326827
0.30655418500009546 0.4460185637518319 0.4636052760136786
0.3067414400002235 0.4450415241817294 0.46458231558378116
0.30692791799992847 0.44406448461162684 0.46458231558378116
0.30711504299961234 0.44699560332193444 0.467513434294089
0.3073016689995711 0.45188080117244755 0.46458231558378116
0.30748849799965683 0.4538348803126526 0.4665363947239862
0.3076755490001233 0.4538348803126526 0.4684904738641915
0.30786158199953206 0.4587200781631655 0.4636052760136786
0.3080481150000196 0.4557889594528579 0.4606741573033708
0.3082346109995342 0.45676599902296044 0.4587200781631655
0.30842544000006455 0.4538348803126526 0.45969711773326827
0.3086219730002995 0.4538348803126526 0.45676599902296044
0.30895703900023364 0.4528578407425501 0.45969711773326827
0.30918360899977415 0.45481191988275516 0.45969711773326827
0.30937380799969105 0.45481191988275516 0.45969711773326827
0.30956139600039023 0.457743038593063 0.4587200781631655
0.30975111499992636 0.46165119687347334 0.46262823644357587
0.309940813999674 0.46165119687347334 0.46165119687347334
0.31015738299993245 0.4636052760136786 0.46165119687347334
0.3103454160000183 0.4636052760136786 0.4655593551538837
0.3105327639996176 0.4606741573033708 0.45969711773326827
0.3107199260002744 0.45676599902296044 0.45969711773326827
0.31090760699953535 0.457743038593063 0.4557889594528579
0.31109371399998054 0.4538348803126526 0.45676599902296044
0.3112802099994951 0.4538348803126526 0.44992672203224227
0.3114662620000672 0.4557889594528579 0.4460185637518319
0.31165225800032204 0.4509037616023448 0.44699560332193444
0.31183823500032304 0.4538348803126526 0.4460185637518319
0.31202467499952036 0.45481191988275516 0.4460185637518319
0.3122108380002828 0.457743038593063 0.4460185637518319
0.31239737099986087 0.4538348803126526 0.4450415241817294
0.3125843669995447 0.4528578407425501 0.44699560332193444
0.31277099199996883 0.45481191988275516 0.44699560332193444
0.3129872649997196 0.4509037616023448 0.44699560332193444
0.313178964999679 0.4509037616023448 0.44211040547142155
0.3133658309998282 0.44992672203224227 0.441133365901319
0.31355167899982916 0.44894968246213973 0.43917928676111373
0.31373809999968216 0.4528578407425501 0.4382022471910112
0.31392565199985256 0.44992672203224227 0.4352711284807034
0.3141706280002836 0.44894968246213973 0.43429408891060084
0.31437028999971517 0.44699560332193444 0.43624816805080613
0.3145617489999495 0.44211040547142155 0.4382022471910112
0.31474902300033136 0.44211040547142155 0.43624816805080613
0.3149349440000151 0.44211040547142155 0.43722520762090866
0.3151213290002488 0.441133365901319 0.4382022471910112
0.3153080100000807 0.441133365901319 0.43917928676111373
0.31549987600010354 0.44211040547142155 0.4401563263312165
0.31568644599974505 0.44406448461162684 0.441133365901319
0.3158723309998095 0.4450415241817294 0.4382022471910112
0.31605904899970483 0.4479726428920372 0.43722520762090866
0.3162455450001289 0.44699560332193444 0.43624816805080613
0.31643181900017225 0.44894968246213973 0.4352711284807034
0.31661799999983486 0.4528578407425501 0.4352711284807034
0.3168045140000686 0.44894968246213973 0.4352711284807034
0.3169903620000696 0.4450415241817294 0.43429408891060084
0.3171763020000071 0.44406448461162684 0.43624816805080613
0.31736216799981776 0.4450415241817294 0.4401563263312165
0.3175483129998611 0.44699560332193444 0.4401563263312165
0.3177361790003488 0.4460185637518319 0.4401563263312165
0.31792330400003266 0.4479726428920372 0.441133365901319
0.31812031800018303 0.4450415241817294 0.4430874450415241
0.318306924999888 0.44406448461162684 0.441133365901319
0.31849392099957186 0.44406448461162684 0.4430874450415241
0.3186801390002074 0.44406448461162684 0.44211040547142155
0.3188667089998489 0.4460185637518319 0.4450415241817294
0.3190533349998077 0.44699560332193444 0.4450415241817294
0.31923960800031637 0.44894968246213973 0.44211040547142155
0.3194336779997684 0.44992672203224227 0.44699560332193444
0.3196202480003194 0.44992672203224227 0.44699560332193444
0.3198061510001935 0.44992672203224227 0.44992672203224227
0.31999251799970807 0.4538348803126526 0.44894968246213973
0.3201790510001956 0.4528578407425501 0.4509037616023448
0.3203649540000697 0.4528578407425501 0.44992672203224227
0.3205513200000496 0.45188080117244755 0.4528578407425501
0.3207376860000295 0.4528578407425501 0.4538348803126526
0.32092364500022086 0.4509037616023448 0.4509037616023448
0.3211092709998411 0.4509037616023448 0.45188080117244755
0.32129528499990556 0.44992672203224227 0.44894968246213973
0.3214865399995688 0.44992672203224227 0.4460185637518319
0.3216843879999942 0.44699560332193444 0.4538348803126526
0.3218745690001015 0.4528578407425501 0.4509037616023448
0.3220695829995748 0.44894968246213973 0.44699560332193444
0.32228257800034044 0.45188080117244755 0.4528578407425501
0.32246966699949553 0.45188080117244755 0.4509037616023448
0.32265590299994074 0.45481191988275516 0.4528578407425501
0.32284189900019555 0.45188080117244755 0.45676599902296044
0.32306459800020093 0.4538348803126526 0.4587200781631655
0.3232690750000984 0.45188080117244755 0.45969711773326827
0.32346096000037505 0.45676599902296044 0.46165119687347334
0.3237014360001922 0.4509037616023448 0.46165119687347334
0.3239124499996251 0.45188080117244755 0.46165119687347334
0.32414557399988553 0.4528578407425501 0.457743038593063
0.32434099599959154 0.44992672203224227 0.457743038593063
0.3245356580000589 0.4450415241817294 0.45676599902296044
0.3247322280003573 0.4460185637518319 0.4528578407425501
0.3249429079996844 0.4450415241817294 0.4528578407425501
0.3251623850001124 0.44406448461162684 0.45969711773326827
0.32540449099997204 0.44699560332193444 0.4606741573033708
0.3256387999999788 0.44699560332193444 0.45969711773326827
0.3258763510002609 0.4479726428920372 0.4636052760136786
0.32610915999975987 0.4460185637518319 0.4606741573033708
0.3263338959995963 0.4479726428920372 0.45969711773326827
0.32655600199996115 0.44992672203224227 0.467513434294089
0.32687532900035876 0.4538348803126526 0.4636052760136786
0.32708658299998206 0.45969711773326827 0.4655593551538837
0.32728672699977324 0.4636052760136786 0.4665363947239862
0.32748570399962773 0.4587200781631655 0.4665363947239862
0.32768260699958773 0.4557889594528579 0.46946751343429405
0.32787875099984376 0.4538348803126526 0.4665363947239862
0.32807133899950713 0.4479726428920372 0.46458231558378116
0.3282726489997003 0.4479726428920372 0.4636052760136786
0.32845977499982837 0.4450415241817294 0.46262823644357587
0.3286460489998717 0.4430874450415241 0.4606741573033708
0.3288337670001056 0.4450415241817294 0.4606741573033708
0.3290196139996624 0.44211040547142155 0.45969711773326827
0.3292084810000233 0.44211040547142155 0.45676599902296044
0.3293954949995168 0.4528578407425501 0.4538348803126526
0.32958208299987746 0.4450415241817294 0.45188080117244755
0.32977422699968884 0.4479726428920372 0.44894968246213973
0.32996159399954195 0.44699560332193444 0.44992672203224227
0.33016712599965103 0.44699560332193444 0.4528578407425501
0.3303546400002233 0.45481191988275516 0.4538348803126526
0.33054119200005516 0.45969711773326827 0.4509037616023448
0.3307472059996144 0.45969711773326827 0.4509037616023448
0.3309904230000029 0.45481191988275516 0.45481191988275516
0.33123467699988396 0.45188080117244755 0.45676599902296044
0.33146737500010204 0.45188080117244755 0.45481191988275516
0.3317006110000875 0.44894968246213973 0.45481191988275516
0.33194512399950327 0.44894968246213973 0.4557889594528579
0.33217924800010223 0.45188080117244755 0.45481191988275516
0.3323942810002336 0.4538348803126526 0.45481191988275516
0.3325987199996234 0.4655593551538837 0.4557889594528579
0.33279693799977395 0.4557889594528579 0.4557889594528579
0.33298963800007186 0.45481191988275516 0.44894968246213973
0.3332123549998869 0.4557889594528579 0.4479726428920372
0.3334286279996377 0.4528578407425501 0.4479726428920372
0.33362753100027476 0.45481191988275516 0.4450415241817294
0.3338203599996632 0.44992672203224227 0.4401563263312165
0.33400802300002397 0.4528578407425501 0.4430874450415241
0.3342326290003257 0.45188080117244755 0.44211040547142155
0.3344197360001999 0.4538348803126526 0.44699560332193444
0.33460684300007415 0.45188080117244755 0.4430874450415241
0.3347937649996311 0.457743038593063 0.44211040547142155
0.33498550100011926 0.45676599902296044 0.4401563263312165
0.33517173800009914 0.4538348803126526 0.4430874450415241
0.335358418999931 0.46165119687347334 0.4303859306301905
0.33554552599980525 0.4606741573033708 0.4284318514899854
0.3357328359998064 0.46262823644357587 0.4235466536394723
0.3359194619997652 0.46458231558378116 0.4235466536394723
0.3361066239995125 0.46262823644357587 0.42256961406936977
0.3362933050002539 0.4587200781631655 0.4235466536394723
0.3364794500002972 0.46165119687347334 0.4303859306301905
0.3366656680000233 0.45676599902296044 0.4284318514899854
0.33685181199962244 0.45676599902296044 0.4323400097703958
0.3370380110000042 0.4528578407425501 0.43429408891060084
0.33722435900017445 0.4528578407425501 0.4323400097703958
0.3374108179996256 0.45676599902296044 0.431362970200293
0.33759760999964783 0.45676599902296044 0.4303859306301905
0.3377836429999661 0.45969711773326827 0.4333170493404983
0.337969565000094 0.46262823644357587 0.4333170493404983
0.3381601529999898 0.4606741573033708 0.4323400097703958
0.33835937099956936 0.457743038593063 0.43624816805080613
0.33854651499950705 0.4557889594528579 0.43722520762090866
0.3387326399997619 0.4460185637518319 0.4401563263312165
0.33891880299961485 0.4430874450415241 0.44211040547142155
0.3392599250000785 0.4303859306301905 0.4430874450415241
0.3394841979998091 0.42745481191988266 0.4450415241817294
0.3397320439999021 0.4264777723497801 0.441133365901319
0.3399220589999459 0.4284318514899854 0.44406448461162684
0.3401085539999258 0.42452369320957506 0.43722520762090866
0.3402961800002231 0.4255007327796776 0.4352711284807034
0.3404839169998013 0.42452369320957506 0.43624816805080613
0.34066959800020413 0.4264777723497801 0.43624816805080613
0.3408557969996764 0.43624816805080613 0.43624816805080613
0.341041812000185 0.4264777723497801 0.441133365901319
0.34122878899961506 0.4284318514899854 0.441133365901319
0.34141471099974297 0.4264777723497801 0.4450415241817294
0.34162746499987406 0.4255007327796776 0.44699560332193444
0.34181707199968514 0.4264777723497801 0.4460185637518319
0.3420179009999629 0.4255007327796776 0.4479726428920372
0.34228213599999435 0.42940889106008795 0.4479726428920372
0.3425477230002798 0.4333170493404983 0.4509037616023448
0.3427422180002395 0.43624816805080613 0.4528578407425501
0.34293004800019844 0.43624816805080613 0.4557889594528579
0.3431171180000092 0.441133365901319 0.45188080117244755
0.3433048360002431 0.44211040547142155 0.45481191988275516
0.3434917940003288 0.4401563263312165 0.45676599902296044
0.34367975300028775 0.44406448461162684 0.4557889594528579
0.3438660820002042 0.44894968246213973 0.4538348803126526
0.3440523379995284 0.4509037616023448 0.4587200781631655
0.34423977799997374 0.45188080117244755 0.4606741573033708
0.3444263660003344 0.4587200781631655 0.4606741573033708
0.34461325099982787 0.4606741573033708 0.4587200781631655
0.34480021000035777 0.46165119687347334 0.4636052760136786
0.34498740999970323 0.46262823644357587 0.46458231558378116
0.3451738679996197 0.46165119687347334 0.4636052760136786
0.34536049399957847 0.4606741573033708 0.4606741573033708
0.3455468229994949 0.4587200781631655 0.4587200781631655
0.34573343000010937 0.4528578407425501 0.4606741573033708
0.34592057400004705 0.45676599902296044 0.457743038593063
0.34612449599990214 0.45481191988275516 0.457743038593063
0.34631730599994626 0.457743038593063 0.4538348803126526
0.3465041170002223 0.45969711773326827 0.4606741573033708
0.3466908720001811 0.4606741573033708 0.457743038593063
0.34687745999963226 0.45969711773326827 0.46165119687347334
0.3470645859997603 0.45969711773326827 0.457743038593063
0.3472512669995922 0.457743038593063 0.457743038593063
0.3474377259999528 0.45969711773326827 0.4587200781631655
0.3476248699998905 0.46262823644357587 0.45676599902296044
0.34785001299951546 0.45969711773326827 0.4606741573033708
0.3480386199998975 0.4636052760136786 0.4606741573033708
0.3482258379999621 0.46165119687347334 0.45969711773326827
0.3484127410001747 0.45969711773326827 0.4606741573033708
0.3485996070003239 0.45481191988275516 0.46262823644357587
0.34878613999990193 0.4587200781631655 0.4655593551538837
0.34897278399967036 0.4509037616023448 0.45969711773326827
0.3491594469996926 0.4538348803126526 0.4587200781631655
0.34934672100007447 0.4509037616023448 0.4587200781631655
0.3495651419998467 0.45188080117244755 0.45969711773326827
0.34975206299986894 0.45188080117244755 0.46262823644357587
0.34993863299951045 0.4538348803126526 0.46262823644357587
0.35015627699976903 0.4557889594528579 0.46458231558378116
0.3503432540001086 0.457743038593063 0.46262823644357587
0.35053052799958095 0.457743038593063 0.4655593551538837
0.3507170049997512 0.4606741573033708 0.46165119687347334
0.35090351899998495 0.457743038593063 0.4636052760136786
0.35108962599952065 0.4538348803126526 0.46262823644357587
0.35127651099992363 0.45188080117244755 0.46262823644357587
0.3514638400001786 0.44406448461162684 0.45969711773326827
0.35165018800034886 0.441133365901319 0.457743038593063
0.3518366469998 0.4401563263312165 0.4587200781631655
0.3520351059996756 0.431362970200293 0.4606741573033708
0.3522214719996555 0.43624816805080613 0.45969711773326827
0.352407282999593 0.43917928676111373 0.4587200781631655
0.35259555599986925 0.4382022471910112 0.457743038593063
0.35278214499976457 0.44406448461162684 0.457743038593063
0.3529682890002732 0.4430874450415241 0.4557889594528579
0.35315382199951273 0.4460185637518319 0.4557889594528579
0.3533403729998099 0.4450415241817294 0.4557889594528579
0.3535264060001282 0.4479726428920372 0.45188080117244755
0.35371314300027734 0.4479726428920372 0.4509037616023448
0.35389963800025726 0.44894968246213973 0.44992672203224227
0.3540885049997087 0.44992672203224227 0.44699560332193444
0.3543031669996708 0.4479726428920372 0.4509037616023448
0.3544968289997996 0.45481191988275516 0.4460185637518319
0.3546932689996538 0.45676599902296044 0.44406448461162684
0.3548808759996973 0.45969711773326827 0.44211040547142155
0.3550667979998252 0.46165119687347334 0.44211040547142155
0.3552527009996993 0.46946751343429405 0.43722520762090866
0.355439400999785 0.46946751343429405 0.4352711284807034
0.3556293960000403 0.4636052760136786 0.4401563263312165
0.35581620700031635 0.45969711773326827 0.42940889106008795
0.35603592499955994 0.4528578407425501 0.431362970200293
0.35624960499990266 0.45188080117244755 0.43429408891060084
0.35643835999962903 0.44406448461162684 0.43429408891060084
0.3566268369995669 0.441133365901319 0.4401563263312165
0.35681353699965257 0.4382022471910112 0.4401563263312165
0.35700014400026703 0.43917928676111373 0.441133365901319
0.3571866949996547 0.43722520762090866 0.43917928676111373
0.35737278400029027 0.4382022471910112 0.43917928676111373
0.35755953900024906 0.4382022471910112 0.4382022471910112
0.35774751600001764 0.4401563263312165 0.4401563263312165
0.3579362159998709 0.4460185637518319 0.43624816805080613
0.35814145200038183 0.4450415241817294 0.4333170493404983
0.3583287809997273 0.4509037616023448 0.4352711284807034
0.3585152770001514 0.4538348803126526 0.43429408891060084
0.3587015880002582 0.45481191988275516 0.43624816805080613
0.35888871299994207 0.45481191988275516 0.43624816805080613
0.35907482000038726 0.45676599902296044 0.43722520762090866
0.35926248299983854 0.45676599902296044 0.4382022471910112
0.35944949700024154 0.4557889594528579 0.43917928676111373
0.3596367709997139 0.45676599902296044 0.441133365901319
0.35982297000009567 0.457743038593063 0.4382022471910112
0.3600096139998641 0.457743038593063 0.44992672203224227
0.3601953699999285 0.45676599902296044 0.44211040547142155
0.3604037539998899 0.4557889594528579 0.441133365901319
0.3605928050001239 0.4587200781631655 0.44699560332193444
0.3607794310000827 0.457743038593063 0.4450415241817294
0.3609655379996184 0.4557889594528579 0.4450415241817294
0.3611516080000001 0.45676599902296044 0.44699560332193444
0.3613378259997262 0.45481191988275516 0.4430874450415241
0.3615238769998541 0.4528578407425501 0.4460185637518319
0.3617094470000666 0.45188080117244755 0.4450415241817294
0.3618962390000888 0.4509037616023448 0.4460185637518319
0.3620850320003228 0.4479726428920372 0.44699560332193444
0.3622725269997318 0.4450415241817294 0.4460185637518319
0.3624585229999866 0.4430874450415241 0.4557889594528579
0.3641037090001191 0.441133365901319 0.4557889594528579
0.364334222999787 0.4460185637518319 0.45676599902296044
0.3645294959997045 0.4460185637518319 0.4587200781631655
0.36472725099974923 0.45188080117244755 0.4587200781631655
0.3649281170000904 0.4557889594528579 0.4665363947239862
0.3651383340002212 0.457743038593063 0.4655593551538837
0.3654276609995577 0.46458231558378116 0.46946751343429405
0.3656794890002857 0.467513434294089 0.467513434294089
0.3665969869998662 0.4636052760136786 0.45481191988275516
0.36689572100021905 0.45969711773326827 0.4587200781631655
0.3670951240001159 0.46458231558378116 0.4606741573033708
0.3672874719995889 0.4587200781631655 0.457743038593063
0.3674778200002038 0.45676599902296044 0.45969711773326827
0.3676672599995072 0.45676599902296044 0.4587200781631655
0.36785618199974124 0.4557889594528579 0.45969711773326827
0.3680443439998271 0.4557889594528579 0.46262823644357587
0.36823289600033604 0.45676599902296044 0.46458231558378116
0.3684217059999355 0.4557889594528579 0.4665363947239862
0.36861083199983113 0.45676599902296044 0.467513434294089
0.36879903099998046 0.4587200781631655 0.4684904738641915
0.3689865460000874 0.457743038593063 0.4665363947239862
0.3691752639997503 0.457743038593063 0.4636052760136786
0.36936374099968816 0.46262823644357587 0.45969711773326827
0.369552940000176 0.45676599902296044 0.457743038593063
0.3697421589995429 0.4606741573033708 0.45481191988275516
0.36993011699996714 0.4538348803126526 0.4528578407425501
0.3701530010002898 0.44992672203224227 0.45481191988275516
0.37034253399997397 0.4460185637518319 0.4538348803126526
0.3705310670002291 0.44992672203224227 0.4528578407425501
0.37071956299951125 0.4450415241817294 0.4528578407425501
0.3709077249995971 0.4460185637518319 0.4538348803126526
0.371095757999683 0.44699560332193444 0.45481191988275516
0.37128405000021303 0.4479726428920372 0.4538348803126526
0.371473008999601 0.44894968246213973 0.45676599902296044
0.3716609860002791 0.4460185637518319 0.4557889594528579
0.37184935299956123 0.44699560332193444 0.45481191988275516
0.3720374409995202 0.4538348803126526 0.45481191988275516
0.37222547399960604 0.4450415241817294 0.45481191988275516
0.3724140989997977 0.44406448461162684 0.44992672203224227
0.3726018919996932 0.4450415241817294 0.4509037616023448
0.37278960999992705 0.4460185637518319 0.44992672203224227
0.37297729100009747 0.4460185637518319 0.44894968246213973
0.37317078599971865 0.4479726428920372 0.4479726428920372
0.3733640230002493 0.4509037616023448 0.4509037616023448
0.37358136999955605 0.45481191988275516 0.4509037616023448
0.3737814950000029 0.45481191988275516 0.4528578407425501
0.3739798799997516 0.45481191988275516 0.4509037616023448
0.3743018169998322 0.4557889594528579 0.44992672203224227
0.3745005159998982 0.46165119687347334 0.44699560332193444
0.3747477329998219 0.4665363947239862 0.44699560332193444
0.3753784780001297 0.4528578407425501 0.4401563263312165
0.37574326699996163 0.4430874450415241 0.43917928676111373
0.37598372399952495 0.44211040547142155 0.4401563263312165
0.3761992009995083 0.441133365901319 0.43917928676111373
0.37640380799984996 0.441133365901319 0.4401563263312165
0.3766063220000433 0.4401563263312165 0.43917928676111373
0.37681326100027945 0.4430874450415241 0.441133365901319
0.37701744199966924 0.4460185637518319 0.4401563263312165
0.37721247500030586 0.44699560332193444 0.4401563263312165
0.37741424799969536 0.4460185637518319 0.4450415241817294
0.37761094799952843 0.4479726428920372 0.441133365901319
0.3778108690003137 0.44992672203224227 0.43917928676111373
0.37852161299997533 0.44992672203224227 0.4401563263312165
0.3790669339996384 0.457743038593063 0.4450415241817294
0.379337002000284 0.45481191988275516 0.4430874450415241
0.37953855300020223 0.4557889594528579 0.44406448461162684
0.37973930800035305 0.457743038593063 0.441133365901319
0.37993895199997496 0.45676599902296044 0.44211040547142155
0.38014383599966095 0.457743038593063 0.457743038593063
0.3819893139998385 0.45676599902296044 0.4587200781631655
0.3823094919998766 0.457743038593063 0.45969711773326827
0.382538263999777 0.45676599902296044 0.45969711773326827
0.3827281679996304 0.4538348803126526 0.457743038593063
0.3829171449997375 0.4528578407425501 0.45676599902296044
0.38311967800018465 0.45188080117244755 0.4587200781631655
0.38330941399999574 0.4509037616023448 0.4606741573033708
0.3834975950003354 0.44992672203224227 0.46262823644357587
0.3836857759997656 0.44992672203224227 0.45969711773326827
0.3838736239995342 0.44992672203224227 0.4606741573033708
0.38406224899972585 0.44406448461162684 0.46165119687347334
0.38425500399989687 0.4430874450415241 0.46262823644357587
0.38444261099994037 0.44211040547142155 0.45969711773326827
0.38463055200008966 0.44211040547142155 0.4606741573033708
0.38481834399954096 0.44406448461162684 0.45969711773326827
0.3850060989998383 0.4450415241817294 0.4587200781631655
0.3851943720001145 0.4430874450415241 0.45969711773326827
0.3853823500003273 0.4450415241817294 0.4587200781631655
0.3855701049997151 0.4430874450415241 0.457743038593063
0.38575804500032973 0.44211040547142155 0.4557889594528579
0.38594572599959065 0.441133365901319 0.45676599902296044
0.38616805499987095 0.44406448461162684 0.4587200781631655
0.3863600320000842 0.44699560332193444 0.45676599902296044
0.386564026999622 0.4479726428920372 0.4606741573033708
0.38675263400000404 0.44894968246213973 0.457743038593063
0.38694175999989966 0.4528578407425501 0.46165119687347334
0.3871304960002817 0.45481191988275516 0.4606741573033708
0.38731878799990227 0.45481191988275516 0.46262823644357587
0.3875066179998612 0.4528578407425501 0.4636052760136786
0.38769385399973544 0.4538348803126526 0.4636052760136786
0.38788140599990584 0.45188080117244755 0.46262823644357587
0.38806843899965315 0.45676599902296044 0.46458231558378116
0.3882573600003525 0.45188080117244755 0.46458231558378116
0.3884456890000365 0.45188080117244755 0.4636052760136786
0.38863357399986853 0.4509037616023448 0.4606741573033708
0.38882106999972166 0.4528578407425501 0.46165119687347334
0.3890083619999132 0.45481191988275516 0.4606741573033708
0.3891963770001894 0.45481191988275516 0.46165119687347334
0.389383445999556 0.45676599902296044 0.457743038593063
0.3895733500003189 0.4528578407425501 0.4587200781631655
0.3897614750003413 0.4528578407425501 0.45676599902296044
0.3899497860002157 0.45481191988275516 0.45676599902296044
0.39014885500000673 0.4528578407425501 0.4557889594528579
0.39033694399950036 0.45188080117244755 0.45481191988275516
0.3905249030003688 0.46262823644357587 0.45188080117244755
0.3907134170003701 0.4528578407425501 0.4528578407425501
0.39090072799990594 0.4557889594528579 0.44894968246213973
0.3910886309995476 0.4538348803126526 0.4450415241817294
0.391276905000268 0.4528578407425501 0.44894968246213973
0.3914703259997623 0.45481191988275516 0.44894968246213973
0.3921104049995847 0.4509037616023448 0.44699560332193444
0.3923060489996715 0.44992672203224227 0.44894968246213973
0.3924953590003497 0.4509037616023448 0.44894968246213973
0.39270255799965526 0.44894968246213973 0.44894968246213973
0.39289392399950884 0.4509037616023448 0.44992672203224227
0.3930826050000178 0.44992672203224227 0.44992672203224227
0.3932706939995114 0.44894968246213973 0.44894968246213973
0.39345870800025295 0.44992672203224227 0.44894968246213973
0.3936466670002119 0.44699560332193444 0.4479726428920372
0.39383403299962083 0.44894968246213973 0.44699560332193444
0.39402191800036235 0.44992672203224227 0.4479726428920372
0.3942380979997324 0.44894968246213973 0.4460185637518319
0.3944265569998606 0.45188080117244755 0.44699560332193444
0.3946142940003483 0.44992672203224227 0.4460185637518319
0.3948030120000112 0.4509037616023448 0.4450415241817294
0.39499134099969524 0.45188080117244755 0.44406448461162684
0.39521620599953167 0.45188080117244755 0.4430874450415241
0.3954069800001889 0.44992672203224227 0.4401563263312165
0.39559510500021133 0.44992672203224227 0.4401563263312165
0.39578310100023373 0.44894968246213973 0.4382022471910112
0.39597183800015046 0.44894968246213973 0.43624816805080613
0.39615983400017285 0.4479726428920372 0.43722520762090866
0.3963475330001529 0.44699560332193444 0.43624816805080613
0.3965352510003868 0.45481191988275516 0.43917928676111373
0.3967228029996477 0.4479726428920372 0.4401563263312165
0.3969106129998181 0.44894968246213973 0.4430874450415241
0.3970984609995867 0.4509037616023448 0.44699560332193444
0.39732312300020567 0.44894968246213973 0.4460185637518319
0.397511322000355 0.44699560332193444 0.44699560332193444
0.3977009660002295 0.4479726428920372 0.4479726428920372
0.3978886100003365 0.44992672203224227 0.44699560332193444
0.39808153200010565 0.4509037616023448 0.44406448461162684
0.3982726759995785 0.4509037616023448 0.441133365901319
0.3984611899995798 0.44699560332193444 0.4382022471910112
0.3986486679996233 0.4509037616023448 0.43429408891060084
0.3988371260002168 0.44894968246213973 0.4401563263312165
0.3990247149995412 0.44992672203224227 0.43722520762090866
0.3992120069997327 0.44699560332193444 0.4382022471910112
0.3993998730002204 0.44894968246213973 0.43722520762090866
0.39958762799960823 0.45188080117244755 0.43917928676111373
0.3997747169996728 0.44894968246213973 0.4401563263312165
0.39996278699982213 0.4479726428920372 0.4401563263312165
0.4001501709999502 0.44992672203224227 0.441133365901319
0.40033774099993025 0.4509037616023448 0.4430874450415241
0.4005254410003545 0.45188080117244755 0.4460185637518319
0.40071347399953083 0.4538348803126526 0.44699560332193444
0.4009008590001031 0.4538348803126526 0.4460185637518319
0.40108829899963894 0.44992672203224227 0.44699560332193444
0.4012763869995979 0.4479726428920372 0.4479726428920372
0.4014640870000221 0.44699560332193444 0.4460185637518319
0.40165165700000216 0.4430874450415241 0.4460185637518319
0.4018408009997074 0.441133365901319 0.44699560332193444
0.40204220400028134 0.44211040547142155 0.4460185637518319
0.4022335509998811 0.441133365901319 0.4460185637518319
0.40242202900026314 0.44406448461162684 0.4479726428920372
0.4026096540001163 0.4450415241817294 0.4587200781631655
0.40279703899977903 0.4460185637518319 0.4538348803126526
0.403019071000017 0.45188080117244755 0.45481191988275516
0.4032196959997236 0.4528578407425501 0.45676599902296044
0.4034084510003595 0.4538348803126526 0.45969711773326827
0.4035967059999166 0.45481191988275516 0.45969711773326827
0.4037837389996639 0.45676599902296044 0.45969711773326827
0.4039713459997074 0.4528578407425501 0.457743038593063
0.40431148700008634 0.44894968246213973 0.45481191988275516
0.4045267410001543 0.45481191988275516 0.4557889594528579
0.40471705199979624 0.44894968246213973 0.4587200781631655
0.4049052139998821 0.44992672203224227 0.4606741573033708
0.4050931359997776 0.44894968246213973 0.45969711773326827
0.4052812059999269 0.4479726428920372 0.45969711773326827
0.40546820199961076 0.4479726428920372 0.4587200781631655
0.4056553270002041 0.4509037616023448 0.4587200781631655
0.4058428600001207 0.4509037616023448 0.46165119687347334
0.4060563929997443 0.4538348803126526 0.46262823644357587
0.40624925900010567 0.45481191988275516 0.46262823644357587
0.40643977299987455 0.45481191988275516 0.4655593551538837
0.4066322319995379 0.45481191988275516 0.46458231558378116
0.40683241300030204 0.44894968246213973 0.4655593551538837
0.40704161200028466 0.4450415241817294 0.46165119687347334
0.407240737000393 0.4430874450415241 0.4606741573033708
0.40743334400031017 0.441133365901319 0.46165119687347334
0.4076584869999351 0.4401563263312165 0.46165119687347334
0.407876760000363 0.43917928676111373 0.4636052760136786
0.40809418099979666 0.4382022471910112 0.4655593551538837
0.4083371939996141 0.4430874450415241 0.4606741573033708
0.4085807809997277 0.4479726428920372 0.46165119687347334
0.40880540600028326 0.45481191988275516 0.4606741573033708
0.4090111049999905 0.457743038593063 0.46165119687347334
0.40921117499965476 0.46165119687347334 0.46262823644357587
0.40941037399989 0.46262823644357587 0.4636052760136786
0.40960912900027324 0.46165119687347334 0.4636052760136786
0.4098065130001487 0.45969711773326827 0.46458231558378116
0.4099998430001506 0.457743038593063 0.4606741573033708
0.4102083380003023 0.45481191988275516 0.4557889594528579
0.41040909299954365 0.45481191988275516 0.4538348803126526
0.41061640299994906 0.4538348803126526 0.4509037616023448
0.4108842300001925 0.45188080117244755 0.4479726428920372
0.41186131999984354 0.4460185637518319 0.4538348803126526
0.41243025200037664 0.44211040547142155 0.4528578407425501
0.4126912829997309 0.43917928676111373 0.45188080117244755
0.4129133340002227 0.43917928676111373 0.45481191988275516
0.41318379099993763 0.4333170493404983 0.45481191988275516
0.41342210000038904 0.43722520762090866 0.4528578407425501
0.4136509099998875 0.43722520762090866 0.4479726428920372
0.4146896089996517 0.457743038593063 0.4479726428920372
