0.0 0.45188080117244755 0.42940889106008795
0.0002127659574468085 0.453149178852466 0.42053024729995825
0.000425531914893617 0.4556937528523072 0.41433618267391076
0.0006382978723404255 0.4572223600240946 0.41540261121318606
0.000851063829787234 0.4577183231394235 0.422922198859404
0.0010638297872340426 0.4603687160322683 0.4325534461627424
0.001276595744680851 0.46069169536756893 0.44740081730204423
0.0014893617021276596 0.45811594558729146 0.46220319220582706
0.001702127659574468 0.45921400896057224 0.47364969217518416
0.0019148936170212765 0.45969711773326827 0.4848998925866818
0.002127659574468085 0.4567696479243485 0.4958585285312281
0.002340425531914894 0.45788145283156106 0.5007164998763455
0.002553191489361702 0.458997604303918 0.5130123068003128
0.0027659574468085106 0.45885840798071625 0.5165081080403932
0.0029787234042553193 0.45830095870846 0.5226440522019082
0.0031914893617021275 0.46149964553209843 0.5369719302481065
0.003404255319148936 0.46262823644357587 0.5573794700332239
0.003617021276595745 0.46262823644357587 0.5708814916177186
0.003829787234042553 0.46483511482499784 0.5739765900405068
0.004042553191489362 0.4665363947239862 0.5621318321988571
0.00425531914893617 0.46694614816566715 0.5404126497789861
0.004468085106382979 0.467513434294089 0.5135234090723858
0.004680851063829788 0.46821301672796123 0.48631900570248865
0.004893617021276595 0.46764697840492636 0.45237959854967136
0.005106382978723404 0.47079532303312743 0.42910178264256604
0.005319148936170213 0.46491048173522614 0.4134086697924561
0.005531914893617021 0.4635070627297404 0.4023464229490301
0.00574468085106383 0.462143727877836 0.4040138846760434
0.005957446808510639 0.4602900335879304 0.4006906198116724
0.006170212765957446 0.45864110767234817 0.3990416938960902
0.006382978723404255 0.45907142592163164 0.3981436248168051
0.006595744680851064 0.45969711773326827 0.3957262794840488
0.006808510638297872 0.45969711773326827 0.3876030712521642
0.007021276595744681 0.46019093375355413 0.37641773497010916
0.00723404255319149 0.457033342441959 0.3667860244676305
0.007446808510638298 0.457743038593063 0.36436445591565025
0.007659574468085106 0.45604428898717586 0.3677555287764622
0.007872340425531916 0.4520384039619756 0.37327637218480453
0.008085106382978723 0.4501059647805766 0.38745942428263486
0.008297872340425531 0.44992672203224227 0.3967648635469687
0.00851063829787234 0.4478866570365548 0.41222091291585705
0.008723404255319148 0.4474590004736476 0.4313434424427681
0.008936170212765958 0.44830803270452096 0.4505246769888375
0.009148936170212766 0.44699560332193444 0.45740506912691575
0.009361702127659575 0.44653922091034093 0.46132982313889587
0.009574468085106383 0.4454183841967713 0.467136574279047
0.00978723404255319 0.444293079416427 0.4682618790593914
0.01 0.4413793883688331 0.4720706021879164
0.010212765957446808 0.44198693509364556 0.48150066421996507
0.010425531914893617 0.44056643714661303 0.488332795610719
0.010638297872340425 0.44140937760118354 0.4996287328781188
0.010851063829787235 0.44114872739396327 0.5056333390207342
0.011063829787234043 0.4401847575276124 0.5085206650420016
0.01127659574468085 0.43917928676111373 0.5095261358085001
0.01148936170212766 0.43917928676111373 0.5029686676020482
0.011702127659574468 0.4410244643916776 0.49899035552331356
0.011914893617021277 0.44041423515820377 0.4807156964971517
0.012127659574468085 0.44233747273594126 0.46327267758082846
0.012340425531914893 0.44620545295274033 0.4456193598325687
0.012553191489361702 0.44393268967810673 0.4244320224434623
0.01276595744680851 0.43883786592962504 0.4055712976217733
0.01297872340425532 0.4391613746437296 0.3943966755928517
0.013191489361702127 0.43356467888133776 0.38874467342703833
0.013404255319148937 0.4347347394936747 0.39344990377420186
0.013617021276595745 0.43372806755112475 0.4040528829144255
0.013829787234042552 0.4326220713330362 0.4136318351907463
0.014042553191489362 0.4320690605406395 0.41431815639795894
0.01425531914893617 0.4323400097703958 0.40609211441110876
0.01446808510638298 0.4333415124637307 0.3989249594010485
0.014680851063829787 0.43429408891060084 0.3900186768353361
0.014893617021276596 0.43368342908396096 0.38104539195870657
0.015106382978723404 0.4327905629169721 0.3725178426784112
0.015319148936170212 0.43448973691036774 0.36648706257398833
0.015531914893617021 0.43817037309941814 0.3605754125052449
0.01574468085106383 0.4356947630064001 0.36428882764477194
0.015957446808510637 0.43730825950284835 0.3791841965883311
0.016170212765957447 0.4389919030322447 0.39546691078696256
0.016382978723404256 0.4395354157644536 0.41255727366490025
0.016595744680851062 0.4425909286037424 0.4268463423438751
0.01680851063829787 0.4430874450415241 0.44116447858877617
0.01702127659574468 0.4430874450415241 0.4591227307803153
0.01723404255319149 0.4439333071431155 0.48813527695982617
0.017446808510638297 0.44406448461162684 0.525594994962415
0.017659574468085106 0.44940970419687515 0.5617904320270527
0.017872340425531916 0.44614167014404454 0.5976613542858323
0.018085106382978722 0.4506123255536977 0.6215428846095703
0.01829787234042553 0.45281570445262687 0.6176364853195675
0.01851063829787234 0.45442685462663773 0.5992700119598486
0.01872340425531915 0.45624472780587955 0.5660020498253611
0.018936170212765956 0.4576027174913316 0.5256057729454228
0.019148936170212766 0.457743038593063 0.49446952854355974
0.019361702127659575 0.457743038593063 0.4790279933501065
0.01957446808510638 0.4575132377251022 0.477054029127154
0.01978723404255319 0.45744662039946443 0.4749455476720042
0.02 0.4578433437855417 0.47064516338935414
0.02021276595744681 0.4562077410549311 0.4712817637043383
0.020425531914893616 0.457832880632244 0.4747382858342953
0.020638297872340425 0.4587200781631655 0.4753297508549097
0.020851063829787235 0.45501109723529726 0.47254801515900846
0.02106382978723404 0.4599673090093982 0.46572582089559644
0.02127659574468085 0.4630331310749939 0.4525233401280162
0.02148936170212766 0.4622481485066893 0.4380506731909048
0.02170212765957447 0.4655593551538837 0.4195151254621431
0.021914893617021276 0.4655593551538837 0.40646605831972543
0.022127659574468085 0.46486863616931773 0.39364507746893057
0.022340425531914895 0.46295154167516583 0.3877194947772665
0.0225531914893617 0.4673513033959264 0.3930638698884971
0.02276595744680851 0.4676072178414335 0.3961503415799427
0.02297872340425532 0.46892386739825853 0.4075832630119255
0.023191489361702126 0.4697597669518299 0.421158485990438
0.023404255319148935 0.46990293646654596 0.4336462788671512
0.023617021276595745 0.4696222439843085 0.44120116150799576
0.023829787234042554 0.4684904738641915 0.4467303490716149
0.02404255319148936 0.4701957803228948 0.4402987638278719
0.02425531914893617 0.46948530476724176 0.4334237973381844
0.02446808510638298 0.467513434294089 0.4262709706630713
0.024680851063829785 0.46728753464488093 0.42542729180640715
0.024893617021276595 0.4665363947239862 0.43234221554005775
0.025106382978723404 0.464606347287705 0.4451744496655477
0.025319148936170214 0.46165119687347334 0.4572837164536957
0.02553191489361702 0.46165119687347334 0.46226855274856693
0.02574468085106383 0.4631392320875379 0.46262823644357587
0.02595744680851064 0.4636052760136786 0.46089102043369734
0.026170212765957445 0.46262823644357587 0.4616918647414193
0.026382978723404255 0.4620696086206709 0.46458231558378116
0.026595744680851064 0.4587200781631655 0.46563964788673995
0.026808510638297874 0.4583308233819952 0.4700474929888729
0.02702127659574468 0.45723245961896525 0.47188805317050414
0.02723404255319149 0.45426524481608777 0.46954602691934477
0.0274468085106383 0.4521122349792644 0.47594653149704885
0.027659574468085105 0.4527503917673717 0.4834784131347627
0.027872340425531914 0.45287594278484117 0.4860047779568737
0.028085106382978724 0.4536924161630294 0.48131424294788844
0.028297872340425533 0.453644212715696 0.4752582944608177
0.02851063829787234 0.4557889594528579 0.4685452165688922
0.02872340425531915 0.4557889594528579 0.46262823644357587
0.02893617021276596 0.4563937062842653 0.4668614642634276
0.029148936170212764 0.45461080914220653 0.4737778931958018
0.029361702127659574 0.4555559605735393 0.48393515215934263
0.029574468085106383 0.4537813223470547 0.4989393744341656
0.029787234042553193 0.4515380535814642 0.5049836855489707
0.03 0.45118807869082794 0.5065950170981925
0.03021276595744681 0.45107842881160065 0.5029197484301232
0.030425531914893618 0.4479726428920372 0.4927565588483527
0.030638297872340424 0.44573890199097427 0.47858418063138575
0.030851063829787233 0.44592939348163996 0.4700025350554457
0.031063829787234043 0.44211040547142155 0.4674017486786476
0.03127659574468085 0.44211040547142155 0.46515920632521957
0.03148936170212766 0.4427993184045018 0.46222745014751815
0.03170212765957447 0.4430851994439082 0.4557799770623939
0.031914893617021274 0.44211040547142155 0.4475713663224423
0.03212765957446809 0.44136611960213384 0.44057580896600296
0.03234042553191489 0.441133365901319 0.4356353571806002
0.0325531914893617 0.44118080375483826 0.4351288149201457
0.03276595744680851 0.44116565384777634 0.43309581106931194
0.03297872340425532 0.4374428647421236 0.4379894250205258
0.033191489361702124 0.438180480447261 0.44389035066162535
0.03340425531914894 0.432416117251592 0.45226133857842865
0.03361702127659574 0.4344602889883538 0.4573376188468882
0.033829787234042556 0.43825446348233354 0.46247158756960904
0.03404255319148936 0.4349583286800693 0.46806052740727927
0.03425531914893617 0.4338718191248653 0.46640389472535493
0.03446808510638298 0.43429408891060084 0.4662359572911611
0.03468085106382979 0.4350924639394579 0.4689315198105575
0.03489361702127659 0.4334293100012316 0.47223024115350193
0.035106382978723406 0.43624816805080613 0.47017341794731077
0.03531914893617021 0.4368275800147291 0.46479815883221726
0.03553191489361702 0.4385465471160325 0.45268112143241324
0.03574468085106383 0.43855152470882236 0.43149986876811197
0.03595744680851064 0.4401563263312165 0.4049701175796664
0.036170212765957444 0.4422490212668726 0.3798660765783516
0.036382978723404256 0.4455589094086638 0.3547697420828365
0.03659574468085106 0.44316613214119954 0.3369835673987192
0.03680851063829787 0.44396838564803504 0.33433170593517647
0.03702127659574468 0.4430874450415241 0.34500181500822136
0.03723404255319149 0.4427468594813555 0.3627190489537496
0.0374468085106383 0.44257612952677533 0.37195573172301893
0.03765957446808511 0.4448548387501946 0.39156372061167005
0.03787234042553191 0.4445923895869276 0.41435944560605437
0.038085106382978726 0.4448980950183714 0.43547709308720955
0.03829787234042553 0.4450415241817294 0.45829486945947745
0.03851063829787234 0.4462314362290537 0.47792244742678014
0.03872340425531915 0.4477401728664678 0.48407594751800787
0.03893617021276596 0.44699560332193444 0.4838386642023338
0.03914893617021276 0.44748145907346965 0.47680330231061196
0.039361702127659576 0.4498156738210384 0.472872376282908
0.03957446808510638 0.45386769105343716 0.4640117689467684
0.03978723404255319 0.45740608217802353 0.4538687099876683
0.04 0.46078508295357506 0.4439377124399648
0.04021276595744681 0.46680657918108986 0.43525857089260733
0.04042553191489362 0.46262823644357587 0.4269905426162604
0.040638297872340426 0.4638062297544974 0.41708155499640004
0.04085106382978723 0.46358045296372463 0.40736964887038346
0.041063829787234045 0.4610549593119035 0.39945139729789886
0.04127659574468085 0.46207262780523284 0.3992642909994957
0.04148936170212766 0.4601849056012641 0.3960254858864904
0.04170212765957447 0.45969711773326827 0.40083900704399505
0.041914893617021276 0.45863564994860706 0.40557389930943255
0.04212765957446808 0.4579536094673966 0.4126644622955758
0.042340425531914895 0.4590572449458326 0.4167418374266528
0.0425531914893617 0.46016102189397545 0.41773364746754504
0.04276595744680851 0.4641971308066168 0.40789994289063913
0.04297872340425532 0.46154424660057874 0.40062545506195607
0.043191489361702126 0.4613794139018458 0.3933685192826996
0.04340425531914894 0.4635861368129494 0.4029235570633073
0.043617021276595745 0.46693726232963667 0.4262571146418645
0.04382978723404255 0.46238786024412487 0.46417105688904675
0.044042553191489364 0.45993664381039945 0.50990691694427
0.04425531914893617 0.4593307460871107 0.549157397366047
0.044468085106382976 0.46262823644357587 0.5772238134274501
0.04468085106382979 0.464662793677104 0.5911607082325772
0.044893617021276595 0.46479211526261843 0.5897153393809964
0.0451063829787234 0.4672110056613202 0.5693892804181907
0.045319148936170214 0.46456423251217854 0.5461653965391279
0.04553191489361702 0.46374348446618846 0.5172329851244123
0.045744680851063826 0.46458231558378116 0.4927115581032863
0.04595744680851064 0.46497339704134055 0.47004948710406136
0.046170212765957445 0.4665954547082351 0.4544575599772626
0.04638297872340425 0.4629963230393402 0.44443257120739094
0.046595744680851064 0.46143996054175757 0.43828138927948745
0.04680851063829787 0.458090398321943 0.4363350079830261
0.047021276595744683 0.45590539539917985 0.4353099404628107
0.04723404255319149 0.45848686726064963 0.4356262723107637
0.047446808510638296 0.4569527334294902 0.431535248761005
0.04765957446808511 0.4555477451519483 0.42529606557816096
0.047872340425531915 0.45424117008120046 0.416015711979429
0.04808510638297872 0.45325004466140084 0.41513856097335117
0.048297872340425534 0.45283270985840374 0.4138013888225929
0.04851063829787234 0.4500772495458696 0.41956276851275687
0.048723404255319146 0.4524767660544632 0.4310346146909462
0.04893617021276596 0.4514082392349863 0.44157401214359965
0.049148936170212765 0.4518304196118759 0.44957405110824095
0.04936170212765957 0.4507627411034176 0.4532809022393318
0.049574468085106384 0.4493061040443355 0.4576508134165781
0.04978723404255319 0.45016321827922395 0.4526109929681765
0.05 0.4476068869135719 0.4504177772585867
0.05021276595744681 0.44602074582194656 0.4460229278920613
0.050425531914893615 0.44564913242950416 0.4392036186294283
0.05063829787234043 0.4460185637518319 0.43551783560523927
0.050851063829787234 0.4477226821635239 0.43441906927485746
0.05106382978723404 0.44407830661519576 0.4381884251874423
0.05127659574468085 0.4430874450415241 0.441133365901319
0.05148936170212766 0.44381863912046643 0.4406459031820241
0.051702127659574465 0.4467589766763113 0.43769846091215503
0.05191489361702128 0.4499497724254227 0.43576541086404985
0.052127659574468084 0.4487832221079873 0.43438962061213
0.05234042553191489 0.44625190333168147 0.4348044493210042
0.0525531914893617 0.44949537284317276 0.43787873529920907
0.05276595744680851 0.44400781887859847 0.4440786510448839
0.05297872340425532 0.43964430824822387 0.44491351966098125
0.05319148936170213 0.43599339422269656 0.44406448461162684
0.053404255319148934 0.4352711284807034 0.4452051995560651
0.05361702127659575 0.43577620811108725 0.44699560332193444
0.05382978723404255 0.43435633023822995 0.4482568285303186
0.05404255319148936 0.4325599849375584 0.45046381126801954
0.05425531914893617 0.4332232819838194 0.4535535782426159
0.05446808510638298 0.43435375062721393 0.4529175024591632
0.054680851063829784 0.43640300717785935 0.45434740250159544
0.0548936170212766 0.43722520762090866 0.4516008685879096
0.0551063829787234 0.43885063575463806 0.4496846905020478
0.05531914893617021 0.4421977791166915 0.44424719663823337
0.05553191489361702 0.4430874450415241 0.4352104541750726
0.05574468085106383 0.43916815712355617 0.4229337187672727
0.055957446808510634 0.443663355390117 0.41242387263050606
0.05617021276595745 0.437288083083937 0.40829127329600107
0.05638297872340425 0.43856485818937424 0.4148640909335356
0.056595744680851066 0.4401563263312165 0.42472167687906426
0.05680851063829787 0.44051091632230954 0.4428119170752213
0.05702127659574468 0.44070592761886757 0.45603302099176224
0.05723404255319149 0.43960891962566867 0.4675548967935057
0.0574468085106383 0.4405210010926406 0.47880102139789665
0.057659574468085104 0.4419043904730666 0.48756619984786137
0.05787234042553192 0.44478253245452415 0.48989901383071327
0.05808510638297872 0.44699560332193444 0.5028623242751947
0.05829787234042553 0.44699560332193444 0.5116734239819578
0.05851063829787234 0.44750086806767436 0.5230860171025753
0.05872340425531915 0.44894968246213973 0.5418068754305632
0.058936170212765954 0.44958496980190327 0.5542581935866315
0.05914893617021277 0.45099435636202345 0.5537883980665915
0.05936170212765957 0.4522818437215364 0.5470762356776945
0.059574468085106386 0.4513291359468951 0.5281784863023272
0.05978723404255319 0.44992672203224227 0.5111590282092812
0.06 0.449181625702695 0.4983989574731719
0.06021276595744681 0.4498150868274261 0.48546272944362695
0.06042553191489362 0.44898918485068645 0.46446380841814094
0.06063829787234042 0.4529829461297939 0.4517318922573556
0.060851063829787236 0.45431626066772446 0.44213896319133966
0.06106382978723404 0.45647792986128977 0.4355591976423742
0.06127659574468085 0.4586659811553127 0.4292179048182275
0.06148936170212766 0.45969711773326827 0.4212304017581125
0.06170212765957447 0.4589963203384825 0.417536103174705
0.06191489361702127 0.4611804313910214 0.41096655245042396
0.062127659574468086 0.46165119687347334 0.40611531947924717
0.06234042553191489 0.4597757643475824 0.40701562756204246
0.0625531914893617 0.4606741573033708 0.4087108613702359
0.0627659574468085 0.46163184374167443 0.4143760093003842
0.06297872340425532 0.4631642650151767 0.42404860534408045
0.06319148936170213 0.4631912684223216 0.43503921084754454
0.06340425531914894 0.46429117006547027 0.4467241213308223
0.06361702127659574 0.462960092585031 0.4458711645353672
0.06382978723404255 0.46262823644357587 0.44410817726384977
0.06404255319148935 0.46377027800415166 0.4389317837754042
0.06425531914893617 0.4655593551538837 0.4368796681241952
0.06446808510638298 0.4648849400142683 0.4378304564818828
0.06468085106382979 0.4645336771346018 0.43759213128301155
0.06489361702127659 0.4649730819796608 0.44660533124766877
0.0651063829787234 0.4617589552944814 0.45160960167466985
0.06531914893617022 0.46316832569505473 0.4568691379558152
0.06553191489361702 0.4645631669427301 0.4721114025288358
0.06574468085106383 0.46565627927668285 0.48371981381041407
0.06595744680851064 0.46637364202325954 0.4994291879745363
0.06617021276595744 0.4661347156574218 0.5092981381789092
0.06638297872340425 0.467513434294089 0.5105330573497028
0.06659574468085107 0.4658956115988394 0.5022808232441938
0.06680851063829787 0.46458231558378116 0.4861505886920819
0.06702127659574468 0.46379378495711615 0.461290213665461
0.06723404255319149 0.46178141549847 0.43670353335566686
0.06744680851063829 0.46165119687347334 0.4060155664058379
0.06765957446808511 0.4620258536217601 0.390970088777186
0.06787234042553192 0.4630166232089563 0.3877967216243605
0.06808510638297872 0.4623785280542492 0.39616775168939566
0.06829787234042553 0.4640668407568978 0.40845977941862044
0.06851063829787234 0.45996183379659705 0.42479321977632645
0.06872340425531914 0.4574384511481183 0.43711045188176995
0.06893617021276596 0.45618673679053756 0.4471596844425812
0.06914893617021277 0.45756573374207565 0.45783355390822883
0.06936170212765957 0.4556583241546924 0.4696634663815423
0.06957446808510638 0.45219304793069987 0.47611036775054044
0.06978723404255319 0.45327958971029286 0.4810478846089623
0.06999999999999999 0.45068598572641777 0.4867305137538197
0.07021276595744681 0.4479073840914452 0.4961086170294316
0.07042553191489362 0.4463527793751702 0.5016842119477672
0.07063829787234042 0.445253029473418 0.4912038446415728
0.07085106382978723 0.44415582543552784 0.47386008532701757
0.07106382978723404 0.4442108946770465 0.4493996457967316
0.07127659574468086 0.448498089576685 0.4288777976485763
0.07148936170212766 0.4454702338965258 0.40602979067089323
0.07170212765957447 0.4448579313025762 0.3953960989856504
0.07191489361702127 0.44653769951617367 0.39267805924336935
0.07212765957446808 0.44506626993414466 0.3983785702479833
0.07234042553191489 0.4417620057947977 0.4089592195477028
0.0725531914893617 0.441133365901319 0.4170814483915485
0.07276595744680851 0.4402273128556206 0.41963849535906195
0.07297872340425532 0.44211040547142155 0.4203772608632026
0.07319148936170213 0.44183892994818297 0.42126598693071216
0.07340425531914893 0.4419217701549617 0.41161661198787985
0.07361702127659574 0.44360531697859823 0.4145289470917025
0.07382978723404256 0.4421391909378525 0.42764615959990643
0.07404255319148936 0.441133365901319 0.4434158538027708
0.07425531914893617 0.44028076609091366 0.45807940085720517
0.07446808510638298 0.4382022471910112 0.4606848369854838
0.07468085106382978 0.4379515086142364 0.46691250258914846
0.0748936170212766 0.4369977919544576 0.467968265626991
0.07510638297872341 0.43917928676111373 0.4624821448003028
0.07531914893617021 0.44017267162714147 0.45620392540624616
0.07553191489361702 0.44237158211967775 0.44445150386229465
0.07574468085106383 0.44234522809631105 0.4327341568790859
0.07595744680851063 0.44124512397728005 0.4208678341946337
0.07617021276595745 0.44014009330569814 0.41677230875082777
0.07638297872340426 0.4394608069391723 0.42089705510722325
0.07659574468085106 0.4406159293014362 0.4251567970687835
0.07680851063829787 0.4398987657192254 0.4366568835190656
0.07702127659574468 0.44157148366206483 0.45195060430505224
0.0772340425531915 0.44266511599389263 0.4655341705307713
0.0774468085106383 0.44443711761350835 0.4725394915801441
0.07765957446808511 0.4458418680359617 0.4735523674305746
0.07787234042553191 0.44509322193809786 0.46782362083229984
0.07808510638297872 0.45045351522183213 0.45556534200826
0.07829787234042553 0.4450415241817294 0.4389439486826553
0.07851063829787235 0.44471695786144355 0.4274648337476179
0.07872340425531915 0.44586907412140997 0.4206902797443756
0.07893617021276596 0.4485514162296987 0.41790217534607754
0.07914893617021276 0.44894968246213973 0.41952524973536603
0.07936170212765957 0.45393768056304457 0.4272661990637046
0.07957446808510638 0.45098650010806174 0.4437335305887591
0.0797872340425532 0.4545993591867904 0.45576844301459657
0.08 0.453561502559974 0.4650125996485264
0.08021276595744681 0.4568773031775087 0.46946751343429405
0.08042553191489361 0.46018881679960866 0.46897793388881304
0.08063829787234042 0.4604225482568361 0.4709477710974661
0.08085106382978724 0.4604140940363861 0.4688137506290124
0.08106382978723405 0.4606741573033708 0.4699914928974581
0.08127659574468085 0.463518465803248 0.4780293756707357
0.08148936170212766 0.4600885438456222 0.49252808842596685
0.08170212765957446 0.46338082791918883 0.5083906018541107
0.08191489361702127 0.46227850785487234 0.5158102480138274
0.08212765957446809 0.46210740646300175 0.5201443302975375
0.0823404255319149 0.46430660316574796 0.5239060169420059
0.0825531914893617 0.4669314139084141 0.5231006807983462
0.08276595744680851 0.46265102211898496 0.522227650219834
0.08297872340425531 0.46351183668142887 0.5147850909880124
0.08319148936170212 0.46255244119530586 0.5087681833258002
0.08340425531914894 0.4612508719155545 0.4965531404441233
0.08361702127659575 0.4606749538473784 0.4792339264152822
0.08382978723404255 0.4644294545726953 0.460461422788697
0.08404255319148936 0.46423095406403025 0.44070495939241844
0.08425531914893616 0.46192621818485424 0.4335920706518792
0.08446808510638298 0.46330655679135924 0.42504024975106924
0.08468085106382979 0.46551212994230834 0.4245000806037874
0.0848936170212766 0.4648846046454744 0.4329445878937822
0.0851063829787234 0.467513434294089 0.4401853314866761
0.08531914893617021 0.4682080967049889 0.44838492814373443
0.08553191489361701 0.46899286601200185 0.45375164613609814
0.08574468085106383 0.46968901621379366 0.4579645413725626
0.08595744680851064 0.4675480591605117 0.45799595470219434
0.08617021276595745 0.4699526926562875 0.4611593365253642
0.08638297872340425 0.4694437853028166 0.45874380629464295
0.08659574468085106 0.46419494380330645 0.4636052760136786
0.08680851063829788 0.4611452325021571 0.46335229382802046
0.08702127659574468 0.459324318290091 0.46150983811404445
0.08723404255319149 0.45822812785830247 0.44936616133114343
0.0874468085106383 0.45712551234244797 0.43115144550311807
0.0876595744680851 0.45676599902296044 0.416070797498212
0.08787234042553191 0.45589569881529207 0.4075774171223335
0.08808510638297873 0.4557889594528579 0.3992077102396787
0.08829787234042553 0.455488544367664 0.4039300679228997
0.08851063829787234 0.45411058330342136 0.4099938720510085
0.08872340425531915 0.45481191988275516 0.4164035167441534
0.08893617021276595 0.4538157617101241 0.42557720718979164
0.08914893617021276 0.4528578407425501 0.4342006748105606
0.08936170212765958 0.4528578407425501 0.44230489974551884
0.08957446808510638 0.4528578407425501 0.4449173476751075
0.08978723404255319 0.45089956872711623 0.447955871391123
0.09 0.44942013010472276 0.44343124470222745
0.0902127659574468 0.44646535061845716 0.4382857130278633
0.09042553191489362 0.44587419930702205 0.43457164728569836
0.09063829787234043 0.44211040547142155 0.42950959784836823
0.09085106382978723 0.44332021068419664 0.4242909275669025
0.09106382978723404 0.4411423588674219 0.42792984225577974
0.09127659574468085 0.4401563263312165 0.4362452910075534
0.09148936170212765 0.44211378511347493 0.4499807963050964
0.09170212765957447 0.44256796208813404 0.46724767475240137
0.09191489361702128 0.43969441172183266 0.4795486819670146
0.09212765957446808 0.4407490029012987 0.47968680041554734
0.09234042553191489 0.4401563263312165 0.466693161872096
0.0925531914893617 0.4407968859642723 0.4468859250721507
0.0927659574468085 0.44266733859896845 0.4263505720523708
0.09297872340425532 0.44144937789467853 0.4119221776148732
0.09319148936170213 0.4420595652106888 0.4080157010392964
0.09340425531914893 0.44391523045992526 0.41692437029226403
0.09361702127659574 0.44211040547142155 0.4353956286003889
0.09382978723404255 0.44014316903077083 0.4561497254440801
0.09404255319148937 0.43624816805080613 0.47336219068623375
0.09425531914893617 0.43451297198635114 0.48928956990964845
0.09446808510638298 0.4326132566299521 0.5005008839413315
0.09468085106382979 0.430675004181343 0.5068493727904138
0.09489361702127659 0.42750689284537324 0.5123704529763237
0.0951063829787234 0.4286229829462224 0.5019223329928342
0.09531914893617022 0.43050457148401444 0.49332821115725023
0.09553191489361702 0.43152314733316793 0.4810477879155036
0.09574468085106383 0.43301523317921287 0.47195363381082395
0.09595744680851064 0.4350132592217128 0.45577464138254997
0.09617021276595744 0.43503596081352525 0.43667001151664275
0.09638297872340426 0.4363263370666162 0.4137241940129229
0.09659574468085107 0.43429408891060084 0.39367563649553117
0.09680851063829787 0.4365492171194257 0.38596812433380906
0.09702127659574468 0.4369326835201118 0.389485996239275
0.09723404255319149 0.43519980969016425 0.4014812327729015
0.09744680851063829 0.4373213186129175 0.4216727558412621
0.09765957446808511 0.4388138677350612 0.44420700162534443
0.09787234042553192 0.4398664329056075 0.4697466009292821
0.09808510638297872 0.4401563263312165 0.4918245910933149
0.09829787234042553 0.44292437144562485 0.5106648469692083
0.09851063829787234 0.44475298642462524 0.5218734273032057
0.09872340425531914 0.4472799818718256 0.5159740511630198
0.09893617021276596 0.4479726428920372 0.5004339615477934
0.09914893617021277 0.4479726428920372 0.4762813335914795
0.09936170212765957 0.44981941847914997 0.4447506501144547
0.09957446808510638 0.4490663062495001 0.40781039794909346
0.09978723404255319 0.4505146409720483 0.38581427905832316
0.1 0.4509037616023448 0.37313130996096866
0.10021276595744681 0.4527934844500955 0.3802673092389128
0.10042553191489362 0.45391347671457366 0.4006139960234072
0.10063829787234042 0.4555780671594158 0.4213236157829948
0.10085106382978723 0.45813354709706844 0.4394740889143402
0.10106382978723404 0.45746250801880145 0.4490851303094576
0.10127659574468086 0.4590771694306091 0.4557145708820983
0.10148936170212766 0.4590710732108083 0.46161322408706074
0.10170212765957447 0.45822512060688136 0.46625672708967963
0.10191489361702127 0.46023010682444226 0.4755519367399485
0.10212765957446808 0.4638647810632968 0.4850923552878668
0.10234042553191489 0.46548799935274704 0.4987292863820458
0.1025531914893617 0.46459459950330245 0.5105523110566882
0.10276595744680851 0.4655238831817286 0.5142694457703929
0.10297872340425532 0.46383675470878644 0.5161339341041105
0.10319148936170212 0.4614859887313213 0.5156589837050993
0.10340425531914893 0.46130490803643764 0.514757622496049
0.10361702127659575 0.4653748695202594 0.5156525578746085
0.10382978723404256 0.46293472899375904 0.5163654127992183
0.10404255319148936 0.4613224623330302 0.5131238876509211
0.10425531914893617 0.46350180131254215 0.5071621379242115
0.10446808510638297 0.4616834012495199 0.49884310928946474
0.10468085106382978 0.4591167265537663 0.4861646745644329
0.1048936170212766 0.45935561220985077 0.46686873372503457
0.1051063829787234 0.4617698609300478 0.4472606585525902
0.10531914893617021 0.4611549376891382 0.42295752166373074
0.10553191489361702 0.45936973388303254 0.40105429560469574
0.10574468085106382 0.46074353290588177 0.38111769850999466
0.10595744680851064 0.46000000445612355 0.35973458799859587
0.10617021276595745 0.4588725993415652 0.3397538060244932
0.10638297872340426 0.4623930306748183 0.3260416859028991
0.10659574468085106 0.46318561938868424 0.3191411459586093
0.10680851063829787 0.4621332888666463 0.32149101310690015
0.10702127659574467 0.461083441285758 0.3345175020502714
0.1072340425531915 0.459401169528748 0.35547819527170493
0.1074468085106383 0.4632004943372649 0.37641144881540994
0.1076595744680851 0.4582509039684253 0.39478291037006535
0.10787234042553191 0.45624119119808837 0.410102603164342
0.10808510638297872 0.4551387072958263 0.4308628210733544
0.10829787234042552 0.45202150085937787 0.4426653459807332
0.10851063829787234 0.45203364473115276 0.4550576287822943
0.10872340425531915 0.4536337428082658 0.47168002598254943
0.10893617021276596 0.4526450124763539 0.4836202009645612
0.10914893617021276 0.45192388534790745 0.49515823501970524
0.10936170212765957 0.4518692235252801 0.5036870536822197
0.10957446808510639 0.4492171479236184 0.5105959976544149
0.1097872340425532 0.4509037616023448 0.5173424523693209
0.11 0.45152276069810504 0.5170329528214408
0.1102127659574468 0.4518260905309104 0.5122384119526596
0.11042553191489361 0.4487820702203788 0.5019700837303058
0.11063829787234042 0.44655575933101294 0.4938430650489753
0.11085106382978724 0.4465423683912845 0.48796069555744054
0.11106382978723404 0.44523097897682107 0.48411318512095153
0.11127659574468085 0.4415914620307901 0.4778412383291635
0.11148936170212766 0.4401563263312165 0.46999187036972695
0.11170212765957446 0.44248303580986403 0.4607196210273674
0.11191489361702127 0.4398463841764412 0.4519453128113197
0.11212765957446809 0.4404940623571795 0.44568082772586887
0.1123404255319149 0.4399053076339182 0.43891925632411916
0.1125531914893617 0.4399103276912331 0.43430104390043167
0.1127659574468085 0.43872998945826136 0.4276117018486781
0.11297872340425531 0.4398070097157472 0.4276404161459922
0.11319148936170213 0.4394044303557211 0.4289766571736885
0.11340425531914894 0.4377826153598509 0.427874443751043
0.11361702127659574 0.43609164293094826 0.4260477424131741
0.11382978723404255 0.43781197498563884 0.4221129374397637
0.11404255319148936 0.4382022471910112 0.4108486707171391
0.11425531914893616 0.4345680699976998 0.4008188682052701
0.11446808510638298 0.43570201074176146 0.39271226965724754
0.11468085106382979 0.4347018577520308 0.3937509608746669
0.1148936170212766 0.43692336306455815 0.4021232889982667
0.1151063829787234 0.4371167760487764 0.42007106622667845
0.11531914893617021 0.4356951125373115 0.44131796944319396
0.11553191489361703 0.4352711284807034 0.4599162227878334
0.11574468085106383 0.4352711284807034 0.4753086591491768
0.11595744680851064 0.4372033611713637 0.48308052806709556
0.11617021276595745 0.4381685316610662 0.48125941933541516
0.11638297872340425 0.4364467845710196 0.46777927301247957
0.11659574468085106 0.43844611450906684 0.4494436982897708
0.11680851063829788 0.43917928676111373 0.4310454107328783
0.11702127659574468 0.4396553624804564 0.4158050014729039
0.11723404255319149 0.4412792810364043 0.4099918316053742
0.1174468085106383 0.44281146993318626 0.4107182783648899
0.1176595744680851 0.4430874450415241 0.4050776235434991
0.11787234042553191 0.44604804051119973 0.40699593446646404
0.11808510638297873 0.44922448190860015 0.4144480150471066
0.11829787234042553 0.45116049005294934 0.42567897123729537
0.11851063829787234 0.4526562610708671 0.432409940817925
0.11872340425531915 0.45412106477390907 0.43647510941889595
0.11893617021276595 0.45515915693457815 0.44063290655377163
0.11914893617021277 0.455742810988646 0.4449492272533056
0.11936170212765958 0.45503057307428213 0.44396205780763187
0.11957446808510638 0.4569648311756867 0.45408507604596476
0.11978723404255319 0.457743038593063 0.4713173979687577
0.12 0.458465642390345 0.49037210538855003
0.1202127659574468 0.46078701550232 0.5084996469193916
0.12042553191489362 0.46111267905165104 0.5207443837665033
0.12063829787234043 0.45858029498293024 0.5275312358166897
0.12085106382978723 0.461401878734192 0.5310210063507572
0.12106382978723404 0.4637492650166085 0.5304450503390375
0.12127659574468085 0.46454830853438944 0.5272488762679136
0.12148936170212765 0.4667692396453224 0.5176361771370017
0.12170212765957447 0.4652696433492177 0.5043142744070924
0.12191489361702128 0.46447270862835294 0.4885840115577601
0.12212765957446808 0.46311816826204494 0.4733784957815399
0.12234042553191489 0.4590370756471952 0.4620463357115441
0.1225531914893617 0.45969711773326827 0.45253554303723376
0.12276595744680852 0.4588928808191647 0.4412108922419491
0.12297872340425532 0.45757872323967885 0.43604498699662647
0.12319148936170213 0.4606741573033708 0.43512681502775813
0.12340425531914893 0.4606741573033708 0.43299324399125844
0.12361702127659574 0.4606741573033708 0.4320959444996507
0.12382978723404255 0.4606741573033708 0.4352031594695007
0.12404255319148937 0.4612553082077688 0.43159896081562205
0.12425531914893617 0.46347073170119873 0.43116115373157343
0.12446808510638298 0.4655593551538837 0.4353080518370784
0.12468085106382978 0.4647776890738202 0.4400913165811414
0.12489361702127659 0.46262823644357587 0.4479726428920372
0.1251063829787234 0.46262823644357587 0.4479726428920372
0.12531914893617022 0.46262823644357587 0.4479726428920372
0.125531914893617 0.4617653209456742 0.44106931890882317
0.12574468085106383 0.46242950250102466 0.437043103821011
0.12595744680851065 0.46345213113431766 0.4428393255767392
0.12617021276595744 0.4636052760136786 0.4423240403377912
0.12638297872340426 0.46279047914781407 0.4437399992031505
0.12659574468085105 0.46262823644357587 0.4462162804911781
0.12680851063829787 0.46122391344428704 0.4498042493205123
0.1270212765957447 0.46143284217456604 0.4524211313447354
0.12723404255319148 0.4559527107117382 0.4564193945936345
0.1274468085106383 0.4545808416724156 0.4666945749102188
0.1276595744680851 0.45241021181430313 0.4758720682834998
0.12787234042553192 0.45188080117244755 0.48765765794629556
0.1280851063829787 0.45283788775463374 0.4966649974938358
0.12829787234042553 0.4479726428920372 0.49877870053737183
0.12851063829787235 0.4483562952202015 0.4983950482092075
0.12872340425531914 0.4482573673580706 0.4934859120488232
0.12893617021276596 0.4454675821548961 0.48961057353514126
0.12914893617021275 0.4460185637518319 0.4988641535724845
0.12936170212765957 0.4466503512865847 0.5071680880969985
0.1295744680851064 0.4501011390327606 0.5093254801661041
0.12978723404255318 0.45182429419989983 0.51136720100361
0.13 0.4478009518133173 0.5019142489635428
0.1302127659574468 0.44623880039174374 0.4894887698886217
0.13042553191489362 0.44563891849452886 0.46892597197518454
0.13063829787234044 0.4449019897186475 0.4496473547775487
0.13085106382978723 0.4452916252887958 0.42952341123999427
0.13106382978723405 0.44126496104064616 0.4155708051419182
0.13127659574468084 0.4418339950429893 0.4060885435212522
0.13148936170212766 0.441133365901319 0.400168571491305
0.13170212765957448 0.44155179811827544 0.40986809965803617
0.13191489361702127 0.44212774905903807 0.4120815117181376
0.1321276595744681 0.43847797599378974 0.42227790025275413
0.13234042553191488 0.4401563263312165 0.4284318514899854
0.1325531914893617 0.4387494267266003 0.43124565069921766
0.1327659574468085 0.4412395769430725 0.4323400097703958
0.13297872340425532 0.4403711334889839 0.4279918298143012
0.13319148936170214 0.439200980380552 0.42639099787202706
0.13340425531914893 0.4401563263312165 0.42256961406936977
0.13361702127659575 0.4413439587320526 0.42316343026978787
0.13382978723404254 0.44281017205822176 0.4253599015785117
0.13404255319148936 0.44060150578021334 0.4264777723497801
0.13425531914893618 0.4401563263312165 0.4291754004906024
0.13446808510638297 0.4377095831952979 0.4295703495848843
0.1346808510638298 0.4362661254005974 0.4303679732803992
0.13489361702127659 0.43429408891060084 0.4331525926327388
0.1351063829787234 0.4351498047724099 0.4423882212428977
0.13531914893617022 0.4376290624505168 0.45612761927463025
0.13553191489361702 0.4372605787247437 0.4633385479967027
0.13574468085106384 0.4383223110618839 0.4656794190247564
0.13595744680851063 0.44101321368931784 0.460794309515372
0.13617021276595745 0.4409850703721788 0.45035244441838795
0.13638297872340424 0.4408586850976411 0.4393009704057227
0.13659574468085106 0.44429959999887514 0.43046299848755704
0.13680851063829788 0.44476273440289743 0.4261989825709482
0.13702127659574467 0.4453025298030137 0.4310719361409188
0.1372340425531915 0.44659673715512227 0.44354486336324717
0.13744680851063829 0.44699560332193444 0.4560188518881881
0.1376595744680851 0.4504788878562525 0.4729335989636764
0.13787234042553193 0.44889193936983857 0.4917107476769579
0.13808510638297872 0.4495889833659832 0.5047374544337676
0.13829787234042554 0.4479050018202719 0.505921110360869
0.13851063829787233 0.44760002300092283 0.5007826200961835
0.13872340425531915 0.44603613218412885 0.4894101145663332
0.13893617021276597 0.4450415241817294 0.4752922054666868
0.13914893617021276 0.4457979430507123 0.46234456614670405
0.13936170212765958 0.44757031322207913 0.45814536826302105
0.13957446808510637 0.4496532764283015 0.46194462243372386
0.1397872340425532 0.4518108433885732 0.4692226611907338
0.13999999999999999 0.45479558695669486 0.4743037125066261
0.1402127659574468 0.4538348803126526 0.47048846122091725
0.14042553191489363 0.4540791005144279 0.4606744748293735
0.14063829787234042 0.4544296192352663 0.44945971081791103
0.14085106382978724 0.4546753866556122 0.43693083418652146
0.14106382978723403 0.4545288257662601 0.42968279195149595
0.14127659574468085 0.4534142335066203 0.42467284809953143
0.14148936170212767 0.4538348803126526 0.4197665543021455
0.14170212765957446 0.4545478819729769 0.4143834458270137
0.14191489361702128 0.45481191988275516 0.3973118305600835
0.14212765957446807 0.45662154887245526 0.37878139504869207
0.1423404255319149 0.45969711773326827 0.3638886206322295
0.1425531914893617 0.46013338073839855 0.3636557564440309
0.1427659574468085 0.46532124846203127 0.3779706474810829
0.14297872340425533 0.46203055428616563 0.40339114617025984
0.14319148936170212 0.4650640497139301 0.43265888818288956
0.14340425531914894 0.4649351479433816 0.4575256683917719
0.14361702127659573 0.4638129465800319 0.4768922196437701
0.14382978723404255 0.46452086509550883 0.4811305377872528
0.14404255319148937 0.46458231558378116 0.4700452324062468
0.14425531914893616 0.46480583362825384 0.4615360303533749
0.14446808510638298 0.4655593551538837 0.44280597473794214
0.14468085106382977 0.4655593551538837 0.43017435623265066
0.1448936170212766 0.46492385614863097 0.4213937803077582
0.1451063829787234 0.46533683433001505 0.41413434331155596
0.1453191489361702 0.46469297449353447 0.4136655990286932
0.14553191489361703 0.46650838143035606 0.41480932409580945
0.14574468085106382 0.46522216951145023 0.4182247120397049
0.14595744680851064 0.4632950918747666 0.4279822058909735
0.14617021276595746 0.46262823644357587 0.4415922331240523
0.14638297872340425 0.4617459416830011 0.4551583224535149
0.14659574468085107 0.4606741573033708 0.46020971681560463
0.14680851063829786 0.46139324141501903 0.46262823644357587
0.14702127659574468 0.4642386719892701 0.4609032530330448
0.14723404255319147 0.4587916086895227 0.44812762569914444
0.1474468085106383 0.46055485277936337 0.4433857063515426
0.14765957446808511 0.4598101371431599 0.44481548536194615
0.1478723404255319 0.463168193714841 0.45805805911262726
0.14808510638297873 0.4601203409145888 0.4779930270034896
0.14829787234042552 0.4615135571030215 0.49474646366344927
0.14851063829787234 0.45874943636399795 0.5065950170981925
0.14872340425531916 0.46325031527202365 0.5046427330190904
0.14893617021276595 0.45969711773326827 0.48433497354189836
0.14914893617021277 0.45969711773326827 0.4739083985257207
0.14936170212765956 0.459223212285522 0.465173135729968
0.14957446808510638 0.4587200781631655 0.46012776325160315
0.1497872340425532 0.4551568087969477 0.45961089550472
0.15 0.45124966588295307 0.4603282530227626
0.15021276595744681 0.44846124965405004 0.45855726722713575
0.1504255319148936 0.44264419351205364 0.4598687597292537
0.15063829787234043 0.4395569447730823 0.46411596815334644
0.15085106382978725 0.4360589956352975 0.46458231558378116
0.15106382978723404 0.4347775486751644 0.46507589538932015
0.15127659574468086 0.43306634648742587 0.4639223652563171
0.15148936170212765 0.43184619627486776 0.4587518404260254
0.15170212765957447 0.43085722632888257 0.4508463479811472
0.15191489361702126 0.43078349357852924 0.4441857603939102
0.15212765957446808 0.43322368988325616 0.4434359256407122
0.1523404255319149 0.4347428384935609 0.44728527209652974
0.1525531914893617 0.436218091556127 0.4560819820224955
0.15276595744680851 0.43619825989065575 0.47443813534148394
0.1529787234042553 0.43362663674007484 0.4888002529723496
0.15319148936170213 0.43162188002197 0.49467023215188954
0.15340425531914895 0.4323400097703958 0.49682462139716654
0.15361702127659574 0.4323400097703958 0.4927756820474103
0.15382978723404256 0.4332502579420155 0.4819810693537491
0.15404255319148935 0.4348073039724275 0.46907238900588766
0.15425531914893617 0.43583027353542064 0.45661889138101863
0.154468085106383 0.43883675832893904 0.4509163980339504
0.15468085106382978 0.4401563263312165 0.4514544890098492
0.1548936170212766 0.43751034176891285 0.4501168114642451
0.1551063829787234 0.4390803778185609 0.44777482500693155
0.15531914893617021 0.43642131138345824 0.4405521154775522
0.155531914893617 0.43722520762090866 0.4317678342440632
0.15574468085106383 0.43631402048753276 0.42706507078992156
0.15595744680851065 0.4364704408323328 0.4255007327796776
0.15617021276595744 0.43722520762090866 0.4225394472044115
0.15638297872340426 0.43810543783142825 0.4224728047097868
0.15659574468085105 0.4416633755062652 0.42776130654225086
0.15680851063829787 0.4382699901968631 0.434192474401823
0.1570212765957447 0.4430539184423211 0.43914576016191076
0.15723404255319148 0.43917928676111373 0.44896905796598696
0.1574468085106383 0.44050200239428355 0.4571116750860277
0.1576595744680851 0.44406448461162684 0.4606741573033708
0.15787234042553192 0.4446163444454655 0.462329736804887
0.15808510638297874 0.44643186539611224 0.4677762996568274
0.15829787234042553 0.45136267596668866 0.46946751343429405
0.15851063829787235 0.45037988408509577 0.47111948453926367
0.15872340425531914 0.44899872677007285 0.47234958783666875
0.15893617021276596 0.45267561161769604 0.47710160087026077
0.15914893617021275 0.4509037616023448 0.4772012780312876
0.15936170212765957 0.4505455389891823 0.4831460674157304
0.1595744680851064 0.4508723569881574 0.4831460674157304
0.15978723404255318 0.4500300045104522 0.48623072851905585
0.16 0.4512324767388255 0.4865094024151194
0.1602127659574468 0.45278701942834104 0.486077186126038
0.16042553191489362 0.45203280500611026 0.48772725759891783
0.16063829787234044 0.45584839742599165 0.4827807622436069
0.16085106382978723 0.4608149668952427 0.4778982156555507
0.16106382978723405 0.45726844264063066 0.47491085023295315
0.16127659574468084 0.45735553114456423 0.46709284305016746
0.16148936170212766 0.45993327293923764 0.4563044948597631
0.16170212765957448 0.4597978294136585 0.4441952735258168
0.16191489361702127 0.45885774335673873 0.4402022147290742
0.1621276595744681 0.4618409623885542 0.4417026624465617
0.16234042553191488 0.4619688735101883 0.4463722548784834
0.1625531914893617 0.4625659924969021 0.4565792671829388
0.1627659574468085 0.4651996220688578 0.46386284941372924
0.16297872340425532 0.4640399894936889 0.4653419984138786
0.16319148936170214 0.4654118930235343 0.45381634458982123
0.16340425531914893 0.4607467910977806 0.44547029363932894
0.16361702127659575 0.46207882666050043 0.4224152893730232
0.16382978723404254 0.46291181982061774 0.40271309906987446
0.16404255319148936 0.46165119687347334 0.3842757906919709
0.16425531914893618 0.46521580818477926 0.3693477581673842
0.16446808510638297 0.46614230178885113 0.3590456564772309
0.1646808510638298 0.4655593551538837 0.35194141938503987
0.16489361702127658 0.4661345018785026 0.3514189793310161
0.1651063829787234 0.46805921967671293 0.35273037333955887
0.16531914893617022 0.46834127258628133 0.35657852713612426
0.16553191489361702 0.4668741440409913 0.36225849327818926
0.16574468085106384 0.4665363947239862 0.3784338398359278
0.16595744680851063 0.46368332948926616 0.402888874861363
0.16617021276595745 0.4620935695335964 0.42820906581195584
0.16638297872340424 0.4613976021891076 0.45687801652504173
0.16659574468085106 0.4599878808417784 0.48542519703339926
0.16680851063829788 0.46054625440716185 0.5050885980947185
0.16702127659574467 0.45928705403041525 0.5094957994133315
0.1672340425531915 0.4613325875277826 0.5136573060858863
0.16744680851063828 0.4629017420281249 0.5163654127992183
0.1676595744680851 0.45969711773326827 0.5145314672829644
0.16787234042553192 0.45891270306558285 0.510434328725125
0.16808510638297872 0.45656485133707353 0.5070691874535779
0.16829787234042554 0.4537446664929618 0.5000187253432984
0.16851063829787233 0.45240761222975207 0.49419983286488467
0.16872340425531915 0.45188080117244755 0.48824810557438775
0.16893617021276597 0.45188080117244755 0.4794674176613446
0.16914893617021276 0.45188080117244755 0.4713813577947995
0.16936170212765958 0.45188080117244755 0.4631925545861165
0.16957446808510637 0.45188080117244755 0.4540516316616104
0.1697872340425532 0.4532363137168578 0.44133598411506225
0.17 0.4506977670484611 0.42746425091106965
0.1702127659574468 0.4496658898432671 0.41683995502035065
0.17042553191489362 0.44992672203224227 0.41475329750854906
0.17063829787234042 0.44992672203224227 0.4219815187963526
0.17085106382978724 0.4479753989277789 0.4323262295916875
0.17106382978723403 0.44699560332193444 0.45414142983648265
0.17127659574468085 0.4468239004924588 0.47140942196527813
0.17148936170212767 0.4454687017391552 0.48894918064467247
0.17170212765957446 0.44406448461162684 0.5000700513744272
0.17191489361702128 0.4431478203255748 0.5003951981026522
0.17212765957446807 0.4403086370632711 0.4966004820285022
0.1723404255319149 0.4376913041445457 0.48617569481937156
0.1725531914893617 0.43722520762090866 0.47428812565370243
0.1727659574468085 0.4381121711136255 0.4655593551538837
0.17297872340425532 0.43633688080390415 0.46542628602423664
0.17319148936170212 0.438736558151124 0.46209392548346306
0.17340425531914894 0.4408128299604191 0.45905604585146836
0.17361702127659576 0.4396956487664355 0.4554396507691586
0.17382978723404255 0.43917928676111373 0.4492421953081525
0.17404255319148937 0.43843073139526073 0.43951004966340396
0.17425531914893616 0.4399876396577335 0.4327617264541032
0.17446808510638298 0.43636652419541666 0.4311854359833773
0.17468085106382977 0.43781529421681986 0.42920575743836814
0.1748936170212766 0.4368948349267462 0.43428001039821595
0.1751063829787234 0.4382022471910112 0.43952496775985633
0.1753191489361702 0.438784418855939 0.4446263958908859
0.17553191489361702 0.4399037087503694 0.4542398232144898
0.17574468085106382 0.4392879418164043 0.4611079215970206
0.17595744680851064 0.4391056695269756 0.4616880054905424
0.17617021276595746 0.43686519212896746 0.46262823644357587
0.17638297872340425 0.43462067460532333 0.46262823644357587
0.17659574468085107 0.4333170493404983 0.4616965072135506
0.17680851063829786 0.4349905825366968 0.4573270909109738
0.17702127659574468 0.43624816805080613 0.4502967623229104
0.1772340425531915 0.4339169104519121 0.44253304182795117
0.1774468085106383 0.4342393309122152 0.4328328317558661
0.1776595744680851 0.4363949591237719 0.4277712916616394
0.1778723404255319 0.4382022471910112 0.4187278827979938
0.17808510638297873 0.4385169914516034 0.41223534342381146
0.17829787234042552 0.4409877752015745 0.403772126176922
0.17851063829787234 0.4430874450415241 0.39589401804424507
0.17872340425531916 0.4445858070426818 0.39550596996802856
0.17893617021276595 0.4468348283758398 0.39977615406482087
0.17914893617021277 0.44901113655613556 0.4037048177012721
0.17936170212765956 0.4505215345087104 0.4165520494952979
0.17957446808510638 0.45319717068196247 0.4291514616169446
0.1797872340425532 0.45529524938934424 0.43720790669270093
0.18 0.45676599902296044 0.4478056041728102
0.1802127659574468 0.4583205455398803 0.4602310407038642
0.1804255319148936 0.46098430617659536 0.4724398911684386
0.18063829787234043 0.45690728752534654 0.4769110539709519
0.18085106382978725 0.4589803775794455 0.4812731026533492
0.18106382978723404 0.45819664911381225 0.4814187935358997
0.18127659574468086 0.4562644815230197 0.48193126681054677
0.18148936170212765 0.45500942111913395 0.4798304128444564
0.18170212765957447 0.45632801717203886 0.46710913082105127
0.18191489361702126 0.4538622246947028 0.45852367093922763
0.18212765957446808 0.45214151072344316 0.4481700387936767
0.1823404255319149 0.45528849188013265 0.44027075719097014
0.1825531914893617 0.4562580590459693 0.43718636723702886
0.1827659574468085 0.4557889594528579 0.43624816805080613
0.1829787234042553 0.45626405566495226 0.43767345668708924
0.18319148936170213 0.4585499347074746 0.44243316391718623
0.18340425531914895 0.46255030996975094 0.44406448461162684
0.18361702127659574 0.4616889265160875 0.44406448461162684
0.18382978723404256 0.46261258452530596 0.44384535775584805
0.18404255319148935 0.46175500124267205 0.43183919179897273
0.18425531914893617 0.46025083690523166 0.4226839508048609
0.184468085106383 0.4603159830395612 0.4128309769898392
0.18468085106382978 0.4601089309542014 0.409456286437103
0.1848936170212766 0.46065604148400047 0.41589562037692435
0.1851063829787234 0.4624105781269706 0.4269241364184513
0.1853191489361702 0.464165114769941 0.43795265245997966
0.185531914893617 0.46591965141291114 0.4489811685015066
0.18574468085106383 0.4665363947239862 0.45795645383676076
0.18595744680851065 0.4665363947239862 0.46581878107260394
0.18617021276595744 0.46735762443546164 0.4722428222859747
0.18638297872340426 0.4702152176048344 0.47510041545534737
0.18659574468085105 0.46999054676229335 0.4697239796888649
0.18680851063829787 0.4675139832537614 0.4583317875496185
0.1870212765957447 0.4659738151036 0.4538348803126526
0.18723404255319148 0.46504433717485716 0.4538348803126526
0.1874468085106383 0.46411485924611423 0.4538348803126526
0.1876595744680851 0.4631853813173714 0.4538348803126526
0.18787234042553191 0.4610544029529202 0.45422833868531654
0.18808510638297873 0.4591619796593388 0.45216051090571585
0.18829787234042553 0.46049333912139834 0.4457647969096193
0.18851063829787235 0.4602147961546974 0.443048566859687
0.18872340425531914 0.45465026659993163 0.4504679395993747
0.18893617021276596 0.4497949801585758 0.45900561087529096
0.18914893617021278 0.4490694713617614 0.4713392604211361
0.18936170212765957 0.44894968246213973 0.48286254071801615
0.1895744680851064 0.44397120695024445 0.4851001465559355
0.18978723404255318 0.44762946660265374 0.48419174224370964
0.19 0.4470797616360651 0.4796587007059733
0.1902127659574468 0.4442044110329251 0.48575069114300884
0.19042553191489361 0.445958087735244 0.48506990854764154
0.19063829787234043 0.4440894694264387 0.48396070568955596
0.19085106382978723 0.44439916696978055 0.4819476716578337
0.19106382978723405 0.44470886451312247 0.4799346376261112
0.19127659574468084 0.44501856205646434 0.477921603594389
0.19148936170212766 0.4453282595998062 0.47590856956266653
0.19170212765957448 0.44563795714314813 0.47389553553094405
0.19191489361702127 0.44594765468649 0.47188250149922184
0.1921276595744681 0.44250578452225514 0.4559653639643612
0.19234042553191488 0.4392054313313153 0.4370738248988843
0.1925531914893617 0.44198656280055276 0.4184022645333091
0.19276595744680852 0.44086140878154617 0.40093172097596735
0.19297872340425531 0.4382894522820036 0.3947675888669422
0.19319148936170213 0.4378484664399287 0.39527423123476146
0.19340425531914893 0.4397044002879683 0.4025101097112687
0.19361702127659575 0.4375704303026414 0.4169353423802956
0.19382978723404254 0.4354107511393407 0.43108340584266086
0.19404255319148936 0.43429408891060084 0.452672773070365
0.19425531914893618 0.43429408891060084 0.4739407863514174
0.19446808510638297 0.43429408891060084 0.4846348853571526
0.1946808510638298 0.4317841749631515 0.48524054814355494
0.19489361702127658 0.43420262609052906 0.48036738673887547
0.1951063829787234 0.43242125298419987 0.4731319420732921
0.19531914893617022 0.4329293009618724 0.47102617557233545
0.19553191489361701 0.4334878896369153 0.4761077109903616
0.19574468085106383 0.4378853774123468 0.4872389443042585
0.19595744680851063 0.43745794979502517 0.5003618248825509
0.19617021276595745 0.4400766051575594 0.509173882227247
0.19638297872340427 0.4428300119832258 0.5113261571308703
0.19659574468085106 0.44270336028779056 0.5103639286701793
0.19680851063829788 0.44470054307274914 0.5021885116271743
0.19702127659574467 0.44577196922269113 0.48782202492294513
0.1972340425531915 0.4468564495634425 0.4682032765652304
0.19744680851063828 0.4479365202120656 0.4542683524723115
0.1976595744680851 0.4434807294424981 0.45203811493283713
0.19787234042553192 0.45184057591282406 0.4510043247514035
0.19808510638297872 0.45014227130383905 0.4548189877306725
0.19829787234042554 0.4518682464237934 0.4470520996908781
0.19851063829787233 0.44992672203224227 0.4386604520855516
0.19872340425531915 0.44972365532334885 0.42249302612064094
0.19893617021276597 0.4498900758335198 0.413812904137169
0.19914893617021276 0.45287624903246193 0.40949946712487423
0.19936170212765958 0.4538521824016079 0.40234362373436827
0.19957446808510637 0.45055256595504 0.39451642305423856
0.1997872340425532 0.449113438847624 0.3956677247401714
0.2 0.447674311740208 0.3968190264261042
0.2002127659574468 0.44623518463279216 0.39797032811203686
0.20042553191489362 0.4443729954449549 0.4055486821977521
0.20063829787234042 0.44654706545069534 0.421004939035784
0.20085106382978724 0.44867447825825657 0.4393280780408997
0.20106382978723403 0.450654049929365 0.45793605174931834
0.20127659574468085 0.4527284617220034 0.4722930485994803
0.20148936170212767 0.45502777797061106 0.47902205104746415
0.20170212765957446 0.4583345848133789 0.4757152442046963
0.20191489361702128 0.46100599706699913 0.4585663455601301
0.20212765957446807 0.463989345527632 0.4351296910793839
0.2023404255319149 0.46458231558378116 0.4157018846391891
0.2025531914893617 0.46540777869682937 0.4086439042600102
0.2027659574468085 0.46653512896823685 0.4056376368695903
0.20297872340425532 0.4676072837797755 0.4058443072379143
0.20319148936170212 0.4683171451089595 0.4271401471134358
0.20340425531914894 0.46955760295418797 0.44567912339535215
0.20361702127659576 0.4708077929070002 0.46330431726982474
0.20382978723404255 0.47142159257449934 0.4855928965037512
0.20404255319148937 0.4709670161876824 0.5033687233980075
0.20425531914893616 0.46992115418855135 0.5049375163967039
0.20446808510638298 0.46946751343429405 0.5051203560640565
0.20468085106382977 0.4690069480939304 0.49957471921398666
0.2048936170212766 0.4680246781238361 0.49109872824472584
0.2051063829787234 0.4665686794147272 0.48189035855039186
0.2053191489361702 0.4655593551538837 0.47203577355477566
0.20553191489361702 0.46488848404050764 0.46611315786741375
0.20574468085106382 0.46217448147582896 0.46056925873719434
0.20595744680851064 0.46631711159320766 0.45689756890142763
0.20617021276595746 0.46165119687347334 0.45110273544899826
0.20638297872340425 0.46143151008667715 0.44198901110754313
0.20659574468085107 0.46032067956267436 0.4367883362282254
0.20680851063829786 0.4587314992449844 0.42850037798089813
0.20702127659574468 0.4553611906887914 0.4201877661650982
0.2072340425531915 0.453207274171816 0.41928906192979604
0.2074468085106383 0.45165069855911316 0.4286920617348385
0.2076595744680851 0.4505966358326148 0.44657911969980313
0.2078723404255319 0.45008842955916156 0.4669073706379328
0.20808510638297872 0.45088320892497946 0.4800710799638646
0.20829787234042554 0.44986273529534687 0.49137865257564217
0.20851063829787234 0.4450415241817294 0.5042129367005208
0.20872340425531916 0.4443578226554363 0.5064494789401814
0.20893617021276595 0.444457232593898 0.49497967195760656
0.20914893617021277 0.4480287514742386 0.47808282258177026
0.20936170212765956 0.4488775145981453 0.44582982387331255
0.20957446808510638 0.4467996383854127 0.4178244271399813
0.2097872340425532 0.4446840593331583 0.3943068664581341
0.21 0.4432645160431827 0.38295052013832936
0.2102127659574468 0.4426172180673259 0.37287294790439984
0.2104255319148936 0.4450415241817294 0.36942922295104763
0.21063829787234042 0.4448244690131166 0.3753458406401812
0.21085106382978724 0.4422630894868112 0.38516755543455256
0.21106382978723404 0.4428540659709068 0.3970360153838018
0.21127659574468086 0.44211040547142155 0.4123586280314882
0.21148936170212765 0.4416514590196796 0.4323400097703958
0.21170212765957447 0.43939462428919346 0.4340627099950334
0.2119148936170213 0.4398106938501015 0.4429213861801357
0.21212765957446808 0.4410918385442868 0.45323216029576313
0.2123404255319149 0.44005579216263874 0.46235806161782805
0.2125531914893617 0.44115014347843484 0.474162978517908
0.2127659574468085 0.44037738332004556 0.484215918600619
0.2129787234042553 0.43825398107192326 0.4917583549634615
0.21319148936170212 0.4430014889412704 0.4911342961770585
0.21340425531914894 0.4408484347857936 0.49207514932633756
0.21361702127659574 0.4372647490136361 0.48799172387351575
0.21382978723404256 0.43917928676111373 0.4846715585768505
0.21404255319148935 0.43917928676111373 0.4795680878652622
0.21425531914893617 0.4362651194348234 0.46854132801624376
0.214468085106383 0.4378309499390061 0.45958643841784397
0.21468085106382978 0.4362715849654446 0.4481014359225487
0.2148936170212766 0.43882586118166156 0.4388604325398917
0.2151063829787234 0.43549324505687753 0.42563427609044496
0.2153191489361702 0.43408690363513225 0.4120588074773301
0.21553191489361703 0.43578688313034336 0.4037879833207117
0.21574468085106382 0.4368967454089015 0.39296335301796087
0.21595744680851064 0.43789370728517457 0.39068726801441367
0.21617021276595744 0.43672288707318313 0.3883456275904306
0.21638297872340426 0.437116994309022 0.39347797335318807
0.21659574468085105 0.43825212463779456 0.4042303107479456
0.21680851063829787 0.44045887497298364 0.4152196075024815
0.2170212765957447 0.44211040547142155 0.45058640883617945
0.21723404255319148 0.4422221023322971 0.511740840957415
0.2174468085106383 0.4425740735299492 0.51256210708527
0.2176595744680851 0.4429260447276013 0.5133833732131248
0.2178723404255319 0.4432780159252534 0.5142046393409797
0.21808510638297873 0.4436299871229055 0.5150259054688346
0.21829787234042553 0.4439819583205576 0.5158471715966895
0.21851063829787234 0.44433392951820966 0.5166684377245443
0.21872340425531914 0.4446859007158617 0.5174897038523991
0.21893617021276596 0.44503787191351385 0.518310969980254
0.21914893617021278 0.45102582958209125 0.5171226308593512
0.21936170212765957 0.45225961770221046 0.5157273372540822
0.2195744680851064 0.44727290954678145 0.5148272929962837
0.21978723404255318 0.44848460774094573 0.5166448402875299
0.22 0.4493408527568813 0.5192983038430289
0.2202127659574468 0.44992672203224227 0.5220771399882885
0.2204255319148936 0.4498510042260425 0.5201978532734289
0.22063829787234043 0.4492551277056899 0.519500161671893
0.22085106382978723 0.4520046116721258 0.5186505901564875
0.22106382978723405 0.4527841226229802 0.5022808601885449
0.22127659574468084 0.45521283741275764 0.4638378318443255
0.22148936170212766 0.45919822844444974 0.43904405079664294
0.22170212765957448 0.46357752355141646 0.4187898109269219
0.22191489361702127 0.467435270075434 0.39054876037908903
0.2221276595744681 0.464295493325272 0.3595283331910018
0.22234042553191488 0.46396948019654777 0.3363022656035172
0.2225531914893617 0.467513434294089 0.3250176803471826
0.22276595744680852 0.467513434294089 0.3234679542447772
0.2229787234042553 0.46872285481101883 0.3288662479215383
0.22319148936170213 0.4672753339397705 0.34241951845051855
0.22340425531914893 0.4665363947239862 0.36271505620073247
0.22361702127659575 0.46946751343429405 0.38377547234200166
0.22382978723404254 0.4690404114810124 0.4142619548543917
0.22404255319148936 0.4678980235490482 0.4413745588009228
0.22425531914893618 0.46939118885083836 0.46781873262791196
0.22446808510638297 0.4665363947239862 0.485675043729273
0.2246808510638298 0.46587027646705015 0.49362685700429554
0.22489361702127658 0.46624414804296643 0.4935009564787958
0.2251063829787234 0.4642864088296895 0.4891664866262615
0.22531914893617022 0.4644798100978098 0.48278406076145575
0.225531914893617 0.4635144722679978 0.477162758334207
0.22574468085106383 0.4606741573033708 0.4727369375831532
0.22595744680851063 0.46043976886504345 0.4689987365576393
0.22617021276595745 0.46016134958351684 0.46658497059359183
0.22638297872340427 0.4623643491384603 0.4607526669537309
0.22659574468085106 0.46263000835860635 0.45432605797024955
0.22680851063829788 0.46226902746020715 0.4479151960486794
0.22702127659574467 0.4641280276848412 0.44279183731983146
0.2272340425531915 0.4601950009108687 0.43860055373309154
0.22744680851063828 0.45967002795856887 0.4342669991359015
0.2276595744680851 0.45823627406893663 0.4339218044582844
0.22787234042553192 0.45486972954066546 0.43812998511862333
0.22808510638297871 0.4544947993240818 0.44005061947832536
0.22829787234042553 0.4511588107445656 0.43821663285727114
0.22851063829787233 0.44894968246213973 0.4337734919747543
0.22872340425531915 0.44793708524994524 0.4283251785637098
0.22893617021276597 0.44873330545464474 0.4249214987354409
0.22914893617021276 0.4492561003140952 0.42519431492772214
0.22936170212765958 0.4497568467445079 0.42711506134441385
0.22957446808510637 0.4508702689285219 0.4283983588161625
0.2297872340425532 0.4562697769574249 0.4338971112581724
0.23 0.45188080117244755 0.4296886477998455
0.2302127659574468 0.45188080117244755 0.42598355724823345
0.23042553191489362 0.4523548368798145 0.4211764751026376
0.23063829787234041 0.4522787224771394 0.41692410099272714
0.23085106382978723 0.45054900356136524 0.4170621346897339
0.23106382978723405 0.44992672203224227 0.4207330418006996
0.23127659574468085 0.4508210236698204 0.42606408268715823
0.23148936170212767 0.44699560332193444 0.4341869750862772
0.23170212765957446 0.44680309251183226 0.43291754220070233
0.23191489361702128 0.4453578080670794 0.43626226200783214
0.23212765957446807 0.4445312777733067 0.4396026266760509
0.2323404255319149 0.4438421527701783 0.4459308515475231
0.2325531914893617 0.4409168522028358 0.4561849919244344
0.2327659574468085 0.4393034116833131 0.46980796858590773
0.23297872340425532 0.43723788254949253 0.4840407199500379
0.23319148936170211 0.4371061674625423 0.47792846739329
0.23340425531914893 0.43699326137294847 0.46799374498276325
0.23361702127659575 0.438793577098344 0.4626792980962885
0.23382978723404255 0.43767961112404563 0.4546754547550981
0.23404255319148937 0.43590726971400445 0.46208340609087906
0.23425531914893616 0.43606365845444783 0.48000940427763944
0.23446808510638298 0.4334559704417907 0.5017607181424997
0.2346808510638298 0.4304672877202238 0.5182373803596877
0.2348936170212766 0.43157746004279857 0.5278753977979439
0.2351063829787234 0.4323400097703958 0.5247571215904233
0.2353191489361702 0.43095279631919486 0.5119502903724233
0.23553191489361702 0.430002099787612 0.4914158929948249
0.23574468085106381 0.43105782581736635 0.47538846955254593
0.23595744680851063 0.43449081407992857 0.4628200219055016
0.23617021276595745 0.4361876948155272 0.4606741573033708
0.23638297872340425 0.43722520762090866 0.4650961245538435
0.23659574468085107 0.4380401315602586 0.4744775573470617
0.23680851063829786 0.4420903172503481 0.4905429590881735
0.23702127659574468 0.44190805458561694 0.5029903851464892
0.2372340425531915 0.43780140931518263 0.510152447741712
0.2374468085106383 0.44040686073119106 0.5098058769269059
0.2376595744680851 0.44375551913024336 0.5015593898698228
0.2378723404255319 0.44486634078551274 0.4843452894074248
0.23808510638297872 0.446919156177732 0.4689873803015076
0.23829787234042554 0.44885213586422423 0.4518823747633951
0.23851063829787233 0.4486659700601928 0.4407763544810053
0.23872340425531915 0.45053763272597697 0.4281912450713484
0.23893617021276595 0.45191713006465084 0.4141648732699385
0.23914893617021277 0.4538348803126526 0.400074189842106
0.23936170212765956 0.4530709888963197 0.38528191769416836
0.23957446808510638 0.45465141567536743 0.3672656047662153
0.2397872340425532 0.4564976368681688 0.3499466512960283
0.24 0.45243553731139263 0.3442215364148476
0.2402127659574468 0.45481191988275516 0.3462979301394946
0.2404255319148936 0.4552617885193412 0.3603204004805307
0.24063829787234042 0.4552092582932007 0.3756064888804014
0.24085106382978724 0.4555259727546592 0.39100471893531913
0.24106382978723404 0.45661800354615645 0.40930625569257273
0.24127659574468086 0.45676599902296044 0.4404233084864522
0.24148936170212765 0.4600185671250163 0.47278915714902386
0.24170212765957447 0.461421926258347 0.5069936012188478
0.2419148936170213 0.4584967021916494 0.5377340585942951
0.24212765957446808 0.45969711773326827 0.5618296138743591
0.2423404255319149 0.4603518014632369 0.5782811497546184
0.2425531914893617 0.46217421527160185 0.5848271799325541
0.2427659574468085 0.461756795192753 0.5805065747715646
0.2429787234042553 0.45792140266656073 0.5656296113083742
0.24319148936170212 0.4627852390381195 0.544186523745153
0.24340425531914894 0.4593097945319901 0.5218054007509259
0.24361702127659574 0.4627312843820458 0.5008862020780651
0.24382978723404256 0.46399157832719273 0.4801242361517639
0.24404255319148935 0.4645977287998944 0.4605816780066906
0.24425531914893617 0.46635309580324125 0.4421120694930334
0.244468085106383 0.4674698891655708 0.42050939792942504
0.24468085106382978 0.47132828816461075 0.39744118500891323
0.2448936170212766 0.47066611215175586 0.3777674466199545
0.2451063829787234 0.47142159257449934 0.3622707989799511
0.2453191489361702 0.4718860644492138 0.35757243474721084
0.24553191489361703 0.46940395315853795 0.3622775530230884
0.24574468085106382 0.46897761531877563 0.3781019086554975
0.24595744680851064 0.4634065996475623 0.3972303537486548
0.24617021276595744 0.46077426353161166 0.41510366930739206
0.24638297872340426 0.46426291249594936 0.4298691653852285
0.24659574468085105 0.46292445039504854 0.43929870528121695
0.24680851063829787 0.46403648822370785 0.4483766067119193
0.2470212765957447 0.46458231558378116 0.45667827329488697
0.24723404255319148 0.4652893704440456 0.4587200781631655
0.2474468085106383 0.4638683421671709 0.4587200781631655
0.2476595744680851 0.4636052760136786 0.45779481660520244
0.2478723404255319 0.4636052760136786 0.4649379988451519
0.24808510638297873 0.4636052760136786 0.47410322641578917
0.24829787234042552 0.4619150061495975 0.4837542466234809
0.24851063829787234 0.45969711773326827 0.49879891913123786
0.24872340425531914 0.4569230995216009 0.5108824789342389
0.24893617021276596 0.4557889594528579 0.517539775217358
0.24914893617021278 0.4520070309119397 0.5145375633985054
0.24936170212765957 0.45261287845654175 0.5041510133859706
0.2495744680851064 0.44852954992562555 0.49584431214530017
0.24978723404255318 0.44635020851793344 0.4889904101081438
0.25 0.4486404720453171 0.47933672577458936
0.2502127659574468 0.4470732266857335 0.4683031629773079
0.25042553191489364 0.4481341346958478 0.45319700184464917
0.25063829787234043 0.44730163358253655 0.44080368420560684
0.2508510638297872 0.4419471317188347 0.4277269348408607
0.251063829787234 0.4413809410873416 0.42867058589334933
0.25127659574468086 0.4408147504558483 0.42961423694583817
0.25148936170212766 0.4402485598243552 0.4305578879983267
0.25170212765957445 0.439682369192862 0.43150153905081534
0.2519148936170213 0.4391161785613687 0.4324451901033042
0.2521276595744681 0.4385499879298756 0.4333888411557928
0.2523404255319149 0.43798379729838244 0.4343324922082814
0.2525531914893617 0.4374176066668893 0.43527614326076997
0.2527659574468085 0.436851416035396 0.43621979431325886
0.2529787234042553 0.43628522540390285 0.4371634453657474
0.2531914893617021 0.4370357838974846 0.44037567100762276
0.25340425531914895 0.43497312016167194 0.4416963877661282
0.25361702127659574 0.4329417838125553 0.4259739877698721
0.25382978723404254 0.4323400097703958 0.3991288047218267
0.2540425531914894 0.4323400097703958 0.3960090365650647
0.2542553191489362 0.4323400097703958 0.39288926840830357
0.25446808510638297 0.4323400097703958 0.3897695002515424
0.25468085106382976 0.4323400097703958 0.3866497320947812
0.2548936170212766 0.4319053517719656 0.3871807423991922
0.2551063829787234 0.431196184244443 0.39001741250928224
0.2553191489361702 0.43048701671692047 0.39285408261937227
0.25553191489361704 0.43373009618348757 0.39771731437068825
0.25574468085106383 0.43660340348635135 0.4021404498337486
0.2559574468085106 0.43684289219650757 0.40591743935942626
0.2561702127659574 0.43551415024019935 0.41146012242505714
0.25638297872340426 0.43643084047922337 0.4166800044424838
0.25659574468085106 0.4430750130065909 0.41966750344057263
0.25680851063829785 0.4400628768648384 0.4266179465493472
0.2570212765957447 0.4384775178106073 0.4297759185528828
0.2572340425531915 0.4413179701125115 0.4344246746076532
0.2574468085106383 0.44180279785574234 0.4401021096081514
0.25765957446808513 0.441133365901319 0.4463762980818155
0.2578723404255319 0.441691091262728 0.4513230758110385
0.2580851063829787 0.44142333660846444 0.4570873813689594
0.2582978723404255 0.44276659434307825 0.46541341727942587
0.25851063829787235 0.4447343921114369 0.4673598682589427
0.25872340425531914 0.4431795334194808 0.47868537886757995
0.25893617021276594 0.44529242420536186 0.4833398946225793
0.2591489361702128 0.44775969828656637 0.49606052643253484
0.2593617021276596 0.4463235070835716 0.4974967176355295
0.25957446808510637 0.4455091335581982 0.49784348178443405
0.2597872340425532 0.4466214729866072 0.49803043986671724
0.26 0.44773162352681745 0.5002507409471375
0.2602127659574468 0.45486904268851736 0.504180979575817
0.2604255319148936 0.4529353190419138 0.5086110788778886
0.26063829787234044 0.457743038593063 0.5127350490935707
0.26085106382978723 0.4588149599364593 0.5119995106363714
0.261063829787234 0.46125924431584564 0.5052260249704621
0.2612765957446809 0.4601534213571401 0.5025579941730643
0.26148936170212767 0.4623107158400553 0.4896249877237322
0.26170212765957446 0.4636052760136786 0.47391728047559045
0.26191489361702125 0.4645229070120962 0.45857475859665275
0.2621276595744681 0.4636052760136786 0.4463795678756413
0.2623404255319149 0.46423577734774385 0.43959962098382394
0.2625531914893617 0.4655133385905824 0.4428384594569921
0.26276595744680853 0.4636052760136786 0.4479110896271569
0.2629787234042553 0.46239386243973046 0.45295525596711245
0.2631914893617021 0.4623870914197801 0.4555478144290621
0.26340425531914896 0.4652132275942744 0.45320396830215937
0.26361702127659575 0.46176416655072644 0.44688263364468134
0.26382978723404255 0.46946751343429405 0.43905903166326243
0.26404255319148934 0.46946751343429405 0.418906795970782
0.2642553191489362 0.46867069331631256 0.4047267400459049
0.264468085106383 0.46813158827332707 0.3906063682539068
0.26468085106382977 0.46991399612269524 0.37879709352325425
0.2648936170212766 0.46756462595325476 0.3756717147044455
0.2651063829787234 0.46728369283752846 0.38015550338569826
0.2653191489361702 0.467513434294089 0.39731165013852476
0.265531914893617 0.46075005917481915 0.42219978947085385
0.26574468085106384 0.46376001142496115 0.448445703229945
0.26595744680851063 0.4660060770695006 0.47194668836972015
0.2661702127659574 0.46694872386325836 0.49181691874536404
0.2663829787234043 0.46250351242412635 0.5056907158305619
0.26659574468085107 0.46370126706603376 0.5081594223467933
0.26680851063829786 0.46213182723441854 0.5141066922665953
0.2670212765957447 0.46165119687347334 0.5125317426836741
0.2672340425531915 0.46143016762946387 0.5044023166860377
0.2674468085106383 0.45920480745719566 0.49339361142874366
0.2676595744680851 0.45735991825404987 0.4901576658533852
0.26787234042553193 0.45573604272849894 0.485759685779885
0.2680851063829787 0.4522280219958873 0.4763391018751207
0.2682978723404255 0.4532447770089109 0.4759133882225178
0.26851063829787236 0.4501850203369753 0.47539432543109295
0.26872340425531915 0.4489830672971359 0.4724987866495904
0.26893617021276595 0.44894968246213973 0.46377396367351453
0.26914893617021274 0.4499347710578324 0.4508152223208532
0.2693617021276596 0.45177194712578744 0.4306062855733484
0.2695744680851064 0.4532381396822861 0.40801308547634996
0.26978723404255317 0.4538348803126526 0.38304377292295205
0.27 0.4538348803126526 0.3646156396156359
0.2702127659574468 0.4538348803126526 0.35970322676620725
0.2704255319148936 0.44842737224264484 0.36930909541710305
0.27063829787234045 0.45149619194880664 0.3897659109315234
0.27085106382978724 0.44925461543488504 0.41581541471000316
0.27106382978723403 0.44702500561937064 0.44849394685187854
0.2712765957446808 0.4521475347836556 0.4763352798767646
0.2714893617021277 0.4472450381512158 0.5015431834064886
0.27170212765957447 0.44682770343074496 0.5147471334413924
0.27191489361702126 0.44307068121747245 0.5158559382341024
0.2721276595744681 0.44536638198502365 0.5128295775055242
0.2723404255319149 0.4435457288297546 0.507292521446145
0.2725531914893617 0.44211040547142155 0.4977829314994736
0.2727659574468085 0.4410821844875372 0.49078324902831494
0.27297872340425533 0.43917928676111373 0.48385569781037824
0.2731914893617021 0.4396976195292092 0.47889235395658974
0.2734042553191489 0.4409830370183489 0.47728382999511476
0.27361702127659576 0.4394523578769318 0.4768671264331413
0.27382978723404255 0.4383780629940934 0.47685785100645733
0.27404255319148935 0.43624816805080613 0.4731793763085739
0.2742553191489362 0.43542818008234474 0.46732165273219284
0.274468085106383 0.4362240872273466 0.46081864224412783
0.2746808510638298 0.4333170493404983 0.4485332987321704
0.27489361702127657 0.4330731313895987 0.43454211016101296
0.2751063829787234 0.4323400097703958 0.4226850933959028
0.2753191489361702 0.43285191463752387 0.41107642311034465
0.275531914893617 0.4326686184541773 0.40401464871866266
0.27574468085106385 0.4331259097177727 0.404600622562072
0.27595744680851064 0.4323946974067149 0.40313819793995626
0.27617021276595743 0.4352711284807034 0.4070154445264871
0.2763829787234042 0.43506189547527724 0.4079140205178309
0.2765957446808511 0.43565773946351743 0.4082549331560601
0.27680851063829787 0.43725934209220607 0.40983396518673876
0.27702127659574466 0.43886069031693375 0.4113676436813642
0.2772340425531915 0.4382594749427623 0.41642040433193206
0.2774468085106383 0.4376283956087647 0.425849519369876
0.2776595744680851 0.4390084016539184 0.43568724165615064
0.27787234042553194 0.43825635331468843 0.44553160863873675
0.27808510638297873 0.44035061221361094 0.45109804748473925
0.2782978723404255 0.44344952086305905 0.45365384240188517
0.2785106382978723 0.4465176850033591 0.453153072906876
0.27872340425531916 0.44869829159417196 0.4526064498745823
0.27893617021276595 0.44699560332193444 0.44828179681805097
0.27914893617021275 0.4476380125368814 0.44730338218172566
0.2793617021276596 0.4479726428920372 0.44721178660717514
0.2795744680851064 0.44973199697889726 0.45667205079966533
0.2797872340425532 0.4499080116793336 0.4658400104475139
0.27999999999999997 0.44919391609834525 0.4802149487054226
0.2802127659574468 0.4528578407425501 0.48073201032160634
0.2804255319148936 0.4536357394659126 0.48412777315173233
0.2806382978723404 0.45676599902296044 0.47929230920838306
0.28085106382978725 0.45760776306774315 0.4730750097712012
0.28106382978723404 0.4581887908280557 0.46379442294832
0.28127659574468084 0.4590277229888303 0.4600318151054872
0.2814893617021277 0.46121081331844055 0.46348135669619905
0.2817021276595745 0.46078278258418165 0.46979280131953155
0.28191489361702127 0.4616421768996891 0.473402731636057
0.28212765957446806 0.4609299281500292 0.47720198838831673
0.2823404255319149 0.4616530236888706 0.480464232340291
0.2825531914893617 0.4591938575205678 0.4719248527871996
0.2827659574468085 0.4606353683635852 0.4704833419441822
0.28297872340425534 0.462076879206603 0.4690418311011644
0.28319148936170213 0.4635183900496204 0.46760032025814696
0.2834042553191489 0.465901099373444 0.4663165974257091
0.2836170212765957 0.4697661159833865 0.46468707898401357
0.28382978723404256 0.4636338358683998 0.4564804004757488
0.28404255319148936 0.46388457889064527 0.45397297025329386
0.28425531914893615 0.46413532191289075 0.4514655400308389
0.284468085106383 0.4643860649351363 0.4489581098083833
0.2846808510638298 0.4645288526053424 0.4468886773650569
0.2848936170212766 0.4642828462762689 0.44639666470691
0.2851063829787234 0.4640368399471954 0.44590465204876295
0.2853191489361702 0.46379083361812196 0.44541263939061604
0.285531914893617 0.4635086393418141 0.4424323340413873
0.2857446808510638 0.46311536002873116 0.43181379258814967
0.28595744680851065 0.4627220807156481 0.4211952511349093
0.28617021276595744 0.4623071953153372 0.41737729127600465
0.28638297872340424 0.4618855384713055 0.4156906638998778
0.2865957446808511 0.4614638816272737 0.41400403652375045
0.2868085106382979 0.46104222478324197 0.41231740914762355
0.28702127659574467 0.4606205679392103 0.4106307817714967
0.28723404255319146 0.4601989110951786 0.4089441543953698
0.2874468085106383 0.4597772542511468 0.40725752701924245
0.2876595744680851 0.46044320262654514 0.4064395910188771
0.2878723404255319 0.46136435366028405 0.4058254903297178
0.28808510638297874 0.46228550469402324 0.40521138964055836
0.28829787234042553 0.45968168459929615 0.4058247737630317
0.2885106382978723 0.45551373242944415 0.4074874349945558
0.28872340425531917 0.4538988611876577 0.41071717747812847
0.28893617021276596 0.4531539178835744 0.4210595756643124
0.28914893617021276 0.45237172298463757 0.4279313215692403
0.28936170212765955 0.4530920317626772 0.43523085299110925
0.2895744680851064 0.45373643318127344 0.4464123522773486
0.2897872340425532 0.4508092209762449 0.4575854109993621
0.29 0.4479726428920372 0.4698025350594773
0.2902127659574468 0.44789503314162826 0.4785713085668529
0.2904255319148936 0.4472015583836514 0.4822720053764861
0.2906382978723404 0.44849124414784836 0.4831460674157304
0.2908510638297872 0.44663495745891624 0.4817034839636574
0.29106382978723405 0.4460185637518319 0.4787423619261056
0.29127659574468084 0.44475557310976643 0.4751033929600535
0.29148936170212764 0.4425341336328795 0.4710801452465835
0.2917021276595745 0.44745347444997224 0.4659919955222711
0.2919148936170213 0.4459744396010685 0.46284885719739316
0.29212765957446807 0.44452810490161165 0.4666577354938928
0.2923404255319149 0.44240090698316076 0.46233773493183666
0.2925531914893617 0.44141971646027234 0.45914960400159577
0.2927659574468085 0.43688171959331706 0.45441041915217983
0.2929787234042553 0.4347759713213439 0.4509303110995778
0.29319148936170214 0.43646754204817206 0.4543335435157485
0.29340425531914893 0.4357679196421752 0.46430083449736315
0.2936170212765957 0.43613384536956534 0.46826182850171
0.29382978723404257 0.43717984555380535 0.47635215249211554
0.29404255319148936 0.4354272721040775 0.479353874928836
0.29425531914893616 0.4368178808439626 0.4831061517798876
0.29446808510638295 0.4382022471910112 0.47784373956200765
0.2946808510638298 0.43765133369152937 0.4745292624977055
0.2948936170212766 0.4379083457107545 0.46693352742583516
0.2951063829787234 0.4398345525485458 0.45397233075980686
0.29531914893617023 0.4373130552686815 0.44429874500568783
0.295531914893617 0.43722520762090866 0.4367963183050205
0.2957446808510638 0.4369854941742058 0.43259790900038964
0.29595744680851066 0.43661915631294995 0.42778901279518367
0.29617021276595745 0.43822989956829994 0.4220396157183854
0.29638297872340424 0.43727562128284725 0.41553909365378716
0.29659574468085104 0.4377859680299692 0.403572418493365
0.2968085106382979 0.4372985987709049 0.3902309624858362
0.2970212765957447 0.4381070095353195 0.38758666485705995
0.29723404255319147 0.4420989266850787 0.37961430934388435
0.2974468085106383 0.44196019845849216 0.3837512405309234
0.2976595744680851 0.44699560332193444 0.3961488855125884
0.2978723404255319 0.44820758681120926 0.41697095001643225
0.29808510638297875 0.44992672203224227 0.44119918268344976
0.29829787234042554 0.44992672203224227 0.4649515376355549
0.29851063829787233 0.44992672203224227 0.4862777699847378
0.2987234042553191 0.45084385022410883 0.500073754516981
0.298936170212766 0.4488833283396882 0.5118783396834147
0.29914893617021276 0.4478419034550786 0.5182576284280307
0.29936170212765956 0.44751630765922 0.524181729360039
0.2995744680851064 0.4500190173485782 0.5256075092086236
0.2997872340425532 0.449756083058562 0.526815056772118
0.3 0.44978611986043204 0.5195777358531467
0.3002127659574468 0.4532657079694963 0.5077713858453474
0.30042553191489363 0.45465322771705435 0.4915473794875588
0.3006382978723404 0.45845124289276534 0.47536084354880764
0.3008510638297872 0.45778845287248265 0.4613099572152464
0.30106382978723406 0.45848202546505157 0.4562402360714389
0.30127659574468085 0.4587200781631655 0.45481191988275516
0.30148936170212765 0.4587200781631655 0.4544001112555894
0.3017021276595745 0.4587200781631655 0.4536057044886869
0.3019148936170213 0.45861466074926 0.4523834623799751
0.3021276595744681 0.4568153725728863 0.4442866655862931
0.30234042553191487 0.45772089238087443 0.4291874289382022
0.3025531914893617 0.4574125427317416 0.41808679045798725
0.3027659574468085 0.4621563270308629 0.40639863004566223
0.3029787234042553 0.4636052760136786 0.4031590244492776
0.30319148936170215 0.46260961109691057 0.4094633939329793
0.30340425531914894 0.46354602829908087 0.416934310314459
0.30361702127659573 0.46534890243421656 0.42862708484462
0.3038297872340425 0.46465850015725196 0.44487579514976944
0.3040425531914894 0.4637861534425902 0.46078238230673796
0.30425531914893617 0.4663382597384675 0.4786707748937461
0.30446808510638296 0.4648950296296782 0.48511959527214127
0.3046808510638298 0.46401574107592586 0.48705422569614076
0.3048936170212766 0.46413023926212926 0.48388969144457744
0.3051063829787234 0.4664406929466038 0.47851369854566744
0.30531914893617024 0.4649863152486787 0.480087156887525
0.30553191489361703 0.4636052760136786 0.48703354415023514
0.3057446808510638 0.4655418413757273 0.4996506574385361
0.3059574468085106 0.4623818499109994 0.5123425678127231
0.30617021276595746 0.46118962794687246 0.5178040212959218
0.30638297872340425 0.4622383753651265 0.5124668020147245
0.30659574468085105 0.46217566632427814 0.4950566891804864
0.3068085106382979 0.4631992876992434 0.46796860888591235
0.3070212765957447 0.4648741158455414 0.4380252018067785
0.3072340425531915 0.46632207937626635 0.41622826393186196
0.30744680851063827 0.4656393851059331 0.3993440740975464
0.3076595744680851 0.46843571995724825 0.394290220443338
0.3078723404255319 0.46695351547154806 0.39502586649898364
0.3080851063829787 0.46361959575276857 0.3968027194190949
0.30829787234042555 0.46073617267673994 0.40799944037598296
0.30851063829787234 0.4567230689259631 0.42545987321484746
0.30872340425531913 0.45698302503311944 0.4366822200711242
0.308936170212766 0.46096277432964156 0.44383678473002375
0.3091489361702128 0.45535717628810823 0.4477389615754573
0.30936170212765957 0.4567051507618834 0.44487926215219054
0.30957446808510636 0.4539859542535857 0.43762807146339683
0.3097872340425532 0.4537279090563848 0.4395679844217437
0.31 0.45188080117244755 0.4290839083270698
0.3102127659574468 0.45188080117244755 0.4257951551157181
0.31042553191489364 0.44953285354277855 0.4200272760794879
0.31063829787234043 0.4450074693047899 0.4136400384306886
0.3108510638297872 0.44282306668986293 0.40986809965803617
0.311063829787234 0.44137365979209997 0.4091313539787146
0.31127659574468086 0.441133365901319 0.41145803276479215
0.31148936170212765 0.441133365901319 0.41279264667884713
0.31170212765957445 0.4413451230243568 0.41538856887766246
0.3119148936170213 0.44265043561806433 0.4219265631995441
0.3121276595744681 0.4414656946111593 0.4304657168678641
0.3123404255319149 0.44167770610027735 0.44209654153130906
0.3125531914893617 0.44060452506815045 0.45122632998728335
0.3127659574468085 0.4401563263312165 0.4612654544401756
0.3129787234042553 0.44083276791041714 0.46593519874218253
0.3131914893617021 0.44037988977562653 0.46804334697537137
0.31340425531914895 0.4392850543774977 0.4658766580030356
0.31361702127659574 0.43917928676111373 0.4615936098078009
0.31382978723404253 0.43917928676111373 0.4535795195611625
0.3140425531914894 0.4387079205844486 0.442920376386736
0.3142553191489362 0.437924493679032 0.43624816805080613
0.31446808510638297 0.43824966422924927 0.4320648666574157
0.31468085106382976 0.43664657041935767 0.4286120863229848
0.3148936170212766 0.4341664930078925 0.43149056610300157
0.3151063829787234 0.4325084851373601 0.43395713817667214
0.3153191489361702 0.4323400097703958 0.4315113245297568
0.31553191489361704 0.4315620029229403 0.42790109756292605
0.31574468085106383 0.4344218761746646 0.4213396627588593
0.3159574468085106 0.4351949468241899 0.42572039643950266
0.31617021276595747 0.43596801747371544 0.43010113012014717
0.31638297872340426 0.43674108812324075 0.43448186380079057
0.31659574468085105 0.43690586301504597 0.44201537670884955
0.31680851063829785 0.4364752216679559 0.4573300879840423
0.3170212765957447 0.4379417491651385 0.48727210992540687
0.3172340425531915 0.4404080995435722 0.5235522963291498
0.3174468085106383 0.4413781167941295 0.5211272532027564
0.3176595744680851 0.44234813404468715 0.5187022100763625
0.3178723404255319 0.44331815129524443 0.5162771669499692
0.3180851063829787 0.4443956289292648 0.5106031740061764
0.3182978723404255 0.4458316538352005 0.4940888875879162
0.31851063829787235 0.44726767874113654 0.4775746011696517
0.31872340425531914 0.448463312554294 0.468268098704333
0.31893617021276593 0.44942713649195576 0.46591208463449313
0.3191489361702128 0.4503909604296178 0.46355607056465264
0.3193617021276596 0.45135478436727955 0.46120005649481277
0.31957446808510637 0.4523186083049413 0.4588440424249729
0.3197872340425532 0.4532824322426033 0.45648802835513247
0.32 0.45424625618026504 0.4541320142852926
0.3202127659574468 0.4552100801179268 0.4517760002154527
0.3204255319148936 0.45617390405558855 0.44941998614561285
0.32063829787234044 0.4562020701432155 0.4437431762939506
0.32085106382978723 0.4548604581705536 0.4325647058796226
0.321063829787234 0.4558459973309171 0.41728884889398926
0.32127659574468087 0.4567961412394256 0.40293839601792264
0.32148936170212766 0.4572494137790558 0.40157857839903177
0.32170212765957445 0.4577026863186861 0.4002187607801409
0.32191489361702125 0.4570521108276661 0.4007886317224072
0.3221276595744681 0.45778029536443543 0.40310333621006295
0.3223404255319149 0.4587200781631655 0.40461535759916095
0.3225531914893617 0.45927827153658485 0.4031685721772916
0.3227659574468085 0.4613234613400303 0.4002090048115669
0.3229787234042553 0.4633250259557519 0.39716658524670256
0.3231914893617021 0.460768685416644 0.39716658524670256
0.32340425531914896 0.4606741573033708 0.39812201358792887
0.32361702127659575 0.46252501681296 0.4104393545471722
0.32382978723404254 0.4623442178331267 0.42724276542428996
0.32404255319148934 0.46387980239486576 0.44655567524472517
0.3242553191489362 0.46262823644357587 0.4676811189041587
0.324468085106383 0.46372176790908237 0.48493855025366
0.32468085106382977 0.46525684877289636 0.5031039813806258
0.3248936170212766 0.47077400856303575 0.5124600862952617
0.3251063829787234 0.47406440500264496 0.5123451337951914
0.3253191489361702 0.47028500428297365 0.5074125079468721
0.325531914893617 0.47041042483115775 0.5037662829076013
0.32574468085106384 0.4684904738641915 0.49945801102599285
0.32595744680851063 0.4680297020477225 0.49613346367246297
0.3261702127659574 0.46688910707109116 0.49354079033975384
0.32638297872340427 0.4665538983564519 0.4900378553038452
0.32659574468085106 0.4661667076153658 0.4858395207731764
0.32680851063829786 0.4657976942150994 0.47549703994040626
0.3270212765957447 0.4620685924520325 0.4601809626881227
0.3272340425531915 0.46640136786279623 0.4496566683098623
0.3274468085106383 0.4614897504636321 0.43854186223280417
0.3276595744680851 0.4600891828097107 0.4283385199023802
0.3278723404255319 0.45914360963258916 0.4222760592312016
0.3280851063829787 0.46080930371461043 0.41672288399446694
0.3282978723404255 0.45681389948648193 0.409630003035311
0.32851063829787236 0.4589263553760605 0.4046224721231867
0.32872340425531915 0.45301723983364856 0.4001887891519236
0.32893617021276594 0.45350448906979857 0.40254736996149654
0.32914893617021274 0.4500203858664054 0.4077735247665862
0.3293617021276596 0.45081346936201805 0.42542661561284256
0.3295744680851064 0.44992672203224227 0.43627144178438393
0.32978723404255317 0.44992672203224227 0.4465522815805607
0.33 0.4494509056437073 0.4561885554622948
0.3302127659574468 0.4483704728075066 0.4643307949703337
0.3304255319148936 0.4472823442003554 0.4682037329857706
0.33063829787234045 0.4461828573108353 0.4766179339751832
0.33085106382978724 0.4488329310073215 0.48388960407619647
0.33106382978723403 0.4469021275478492 0.489475683706772
0.3312765957446808 0.44556023114242854 0.4932060037727537
0.33148936170212767 0.44300712185328633 0.4881427499543098
0.33170212765957446 0.4401953889748687 0.4793941597099293
0.33191489361702126 0.4385789811450115 0.4681260834616823
0.3321276595744681 0.4396697610443559 0.45186516518692144
0.3323404255319149 0.4384378338678749 0.43766168811198825
0.3325531914893617 0.43822052519683813 0.42544589876219674
0.3327659574468085 0.43989531742389637 0.4192469819980818
0.33297872340425533 0.4382022471910112 0.4165507094141021
0.3331914893617021 0.4382022471910112 0.41549356618063277
0.3334042553191489 0.4375071333330506 0.41579596829549004
0.33361702127659576 0.43578495531034656 0.4204636926616138
0.33382978723404255 0.43584343149364424 0.4252635626782947
0.33404255319148934 0.43420110097039577 0.42579541665631004
0.3342553191489362 0.4357110598962297 0.4270967398168317
0.334468085106383 0.43445711734869 0.4238727105156507
0.3346808510638298 0.4342861928456155 0.4215530941743405
0.33489361702127657 0.43332070218478713 0.4167256408701986
0.3351063829787234 0.4342689792858214 0.4100438670314919
0.3353191489361702 0.43429408891060084 0.4108608587082963
0.335531914893617 0.4343452131122027 0.4120266756046487
0.33574468085106385 0.4352403403030091 0.41560718436787464
0.33595744680851064 0.43733663032271564 0.41963849535906195
0.33617021276595743 0.43903003022887194 0.4205340345525128
0.3363829787234042 0.43895339377374154 0.4280045547221121
0.33659574468085107 0.4396900866183425 0.43815768704665636
0.33680851063829786 0.43722520762090866 0.4473711657245783
0.33702127659574466 0.4367340655646848 0.45188080117244755
0.3372340425531915 0.4377626939963172 0.45188080117244755
0.3374468085106383 0.43917928676111373 0.4506422445106811
0.3376595744680851 0.43917928676111373 0.4491903527658227
0.33787234042553194 0.4425845870376942 0.4515036576695752
0.33808510638297873 0.4430874450415241 0.4576848426622243
0.3382978723404255 0.4460185637518319 0.46699582265493894
0.3385106382978723 0.4460185637518319 0.4819694101221667
0.33872340425531916 0.4462949008072636 0.49304477176838046
0.33893617021276595 0.4483700410139569 0.49749690705749083
0.33914893617021274 0.4511106466164385 0.4963187373556167
0.3393617021276596 0.4494288273413836 0.48454600243023266
0.3395744680851064 0.44894968246213973 0.4738384799113054
0.3397872340425532 0.44967623188247663 0.46583476633260945
0.34 0.44992672203224227 0.4628963877202122
0.3402127659574468 0.44905036077184945 0.4652573202247545
0.3404255319148936 0.45087182187258035 0.466520424859104
0.3406382978723404 0.45363515716329217 0.4738749795881056
0.34085106382978725 0.4525186142887117 0.47762305644895314
0.34106382978723404 0.45735574099774773 0.47437581793678746
0.34127659574468083 0.46390599701989205 0.46856535041565345
0.3414893617021277 0.46195618044290604 0.45845788356942485
0.3417021276595745 0.4593285583230862 0.4495755191932083
0.34191489361702126 0.45824975800583156 0.44844296304937115
0.34212765957446806 0.45690018113914893 0.451478254823882
0.3423404255319149 0.4591184740980799 0.4605065431145518
0.3425531914893617 0.4571658109965934 0.47528477012695
0.3427659574468085 0.4586739537522149 0.48109973945362394
0.34297872340425534 0.4588081734275006 0.48589300393495094
0.34319148936170213 0.45969711773326827 0.4953309673625648
0.3434042553191489 0.46033654697117143 0.5013722089154802
0.34361702127659577 0.4620860709426329 0.5035566069561013
0.34382978723404256 0.46208031000189903 0.5079284966080486
0.34404255319148935 0.46098725560678594 0.5091752928452279
0.34425531914893615 0.4606741573033708 0.5108957111908993
0.344468085106383 0.4660546270907002 0.5078932350904858
0.3446808510638298 0.4646504483691284 0.5042321412459038
0.3448936170212766 0.46610728893575204 0.49105700470107455
0.3451063829787234 0.46336152636735034 0.4780212018884682
0.3453191489361702 0.4629870410126382 0.46747474231481434
0.345531914893617 0.46407809391552834 0.4535818887756243
0.3457446808510638 0.46458231558378116 0.4395317703765628
0.34595744680851065 0.47166686320795387 0.426769671331696
0.34617021276595744 0.46776898730211114 0.4210777571459615
0.34638297872340423 0.4665363947239862 0.41123286309291934
0.3465957446808511 0.4645048905984349 0.4067047059916897
0.3468085106382979 0.4643126476451552 0.4036521764216823
0.34702127659574467 0.4670533306712432 0.4032020421543297
0.3472340425531915 0.4655593551538837 0.40812473220292445
0.3474468085106383 0.4659047562309556 0.41360834784471423
0.3476595744680851 0.46610831779172457 0.4199456865857445
0.3478723404255319 0.463963633456058 0.4231882961970929
0.34808510638297874 0.4632738235254733 0.41806782239060175
0.34829787234042553 0.4628467553363308 0.4079266114124198
0.3485106382978723 0.4582735587513841 0.40247619922387234
0.34872340425531917 0.4548220891412213 0.39716658524670256
0.34893617021276596 0.45545520838756004 0.4046203590383543
0.34914893617021275 0.4528013409553298 0.4629860684293043
0.34936170212765955 0.4521242475699881 0.4672743265364683
0.3495744680851064 0.45144715418464626 0.47156258464363343
0.3497872340425532 0.45077006079930454 0.4758508427507974
0.35 0.4500929674139629 0.4801391008579614
0.3502127659574468 0.45065322092386 0.48990997497493843
0.3504255319148936 0.4515834396208102 0.5003929213198746
0.3506382978723404 0.451444536561945 0.5060633537456486
0.35085106382978726 0.4507994890269759 0.5096111151879785
0.35106382978723405 0.45015444149200695 0.5131588766303075
0.35127659574468084 0.4488823948431698 0.5164999880371584
0.35148936170212763 0.4472977697483589 0.5135953799336755
0.3517021276595745 0.4457513083141108 0.5027701498939389
0.3519148936170213 0.4442048468798631 0.4919449198542052
0.35212765957446807 0.44274194008996254 0.48355613465523134
0.3523404255319149 0.4412873740484851 0.47541056482295796
0.3525531914893617 0.4398328080070081 0.46726499499068674
0.3527659574468085 0.43958051616696975 0.4644077348253906
0.3529787234042553 0.44030908299846083 0.4658648684883727
0.35319148936170214 0.4410376498299521 0.4673220021513552
0.35340425531914893 0.4417662166614432 0.4687791358143374
0.3536170212765957 0.4391543242275476 0.46761996265687283
0.35382978723404257 0.43421577384119997 0.4636425347509708
0.35404255319148936 0.433625067571053 0.4565540595092066
0.35425531914893615 0.4325106579824778 0.4500354709894784
0.354468085106383 0.43079478428273493 0.44175716937014603
0.3546808510638298 0.42940889106008795 0.427418462787046
0.3548936170212766 0.42940889106008795 0.4123592182481051
0.3551063829787234 0.42940889106008795 0.4098678142068703
0.3553191489361702 0.42990164054559604 0.40857101983184163
0.355531914893617 0.43218514951170206 0.4116156984533163
0.3557446808510638 0.4332831806823717 0.4165380333581213
0.35595744680851066 0.43335760577025273 0.4245541105318909
0.35617021276595745 0.4375114173184637 0.42755021515240105
0.35638297872340424 0.4405850484055795 0.42736004630407776
0.35659574468085103 0.44109496175107415 0.4235466536394723
0.3568085106382979 0.44057404234890984 0.42401157216873775
0.3570212765957447 0.44161661961271986 0.4269926225030835
0.35723404255319147 0.44430822098579165 0.4262340359756152
0.3574468085106383 0.4481663653947981 0.4223758915666088
0.3576595744680851 0.4469578050019149 0.42159257449926724
0.3578723404255319 0.4491949243563333 0.4239748449526433
0.35808510638297875 0.4453142772103588 0.43005862699583514
0.35829787234042554 0.4479640361475446 0.4450644755003763
0.35851063829787233 0.44607098714240856 0.45011260618073895
0.3587234042553191 0.4478394025114259 0.4537904668524489
0.35893617021276597 0.4509037616023448 0.45978169995607804
0.35914893617021276 0.45022607394934466 0.46496065131967895
0.35936170212765955 0.45073366845156787 0.4736288193471401
0.3595744680851064 0.4555953605540303 0.4828363091776063
0.3597872340425532 0.44619865856773977 0.48625728094194587
0.36 0.4481946536821472 0.48714322210580324
0.3602127659574468 0.44894968246213973 0.4823359705037839
0.3604255319148936 0.44993959121926796 0.4737934109711144
0.3606382978723404 0.4521651771532174 0.4596605650080838
0.3608510638297872 0.45592755311187744 0.45020735132876416
0.36106382978723406 0.4576497746375438 0.4436470287746393
0.36127659574468085 0.4572506252073981 0.44013296472753494
0.36148936170212764 0.4567120726221844 0.4369016492162528
0.3617021276595745 0.45617352003697054 0.4336703337049698
0.3619148936170213 0.45563496745175686 0.4304390181936877
0.3621276595744681 0.4550964148665432 0.42720770268240554
0.36234042553191487 0.45481191988275516 0.4251658400102351
0.3625531914893617 0.45519340519864093 0.4244283218806036
0.3627659574468085 0.45847685642252184 0.42391148625043784
0.3629787234042553 0.45727964954546035 0.42750507339478
0.36319148936170215 0.4595282913245214 0.4343659266753582
0.36340425531914894 0.4589222893651563 0.44436780141461296
0.36361702127659573 0.4605835201063823 0.4527057467322098
0.3638297872340425 0.4597282738904766 0.5085335181597934
0.36404255319148937 0.4600226431288665 0.5083863335405985
0.36425531914893616 0.46031701236725625 0.5082391489214036
0.36446808510638296 0.4606113816056461 0.5080919643022087
0.3646808510638298 0.46090575084403596 0.5079447796830138
0.3648936170212766 0.4612001200824257 0.5077975950638188
0.3651063829787234 0.4614944893208155 0.507650410444624
0.36531914893617023 0.4626196897186024 0.5075720566682951
0.365531914893617 0.4630284172829778 0.5023803280919883
0.3657446808510638 0.4619334684603565 0.49044148473873883
0.3659574468085106 0.4600270002900136 0.47730904619538156
0.36617021276595746 0.45782102233240074 0.4556307491458018
0.36638297872340425 0.462501149052522 0.43920317089831246
0.36659574468085104 0.46105623337439894 0.42416346653107906
0.3668085106382979 0.46198891014260757 0.41642381373557025
0.3670212765957447 0.46203344953120074 0.41318147102607117
0.3672340425531915 0.4618432981548884 0.414165971555619
0.36744680851063827 0.45851977390638615 0.4195212803304054
0.3676595744680851 0.457743038593063 0.4267140753757849
0.3678723404255319 0.4567540895973683 0.43037402120459833
0.3680851063829787 0.4557889594528579 0.4298504787907252
0.36829787234042555 0.4552416704636798 0.43288729875957377
0.36851063829787234 0.4538348803126526 0.43429408891060084
0.36872340425531913 0.45295141930121013 0.4373862024506498
0.368936170212766 0.4499848438491533 0.441133365901319
0.36914893617021277 0.4460624913981112 0.441133365901319
0.36936170212765956 0.4469204941358247 0.4438391570532976
0.36957446808510636 0.44699560332193444 0.44156576412289533
0.3697872340425532 0.44699560332193444 0.44299206933930624
0.37 0.44722728498212205 0.436839071520596
0.3702127659574468 0.44992672203224227 0.4301171077063892
0.37042553191489364 0.44869087144934156 0.42097464920781685
0.3706382978723404 0.44910304759472314 0.4169946520651553
0.3708510638297872 0.4534321445326894 0.4097561314074712
0.371063829787234 0.45241071160908936 0.4033765591888199
0.37127659574468086 0.44764022868330416 0.4028998975950441
0.37148936170212765 0.448947106435854 0.4059560773381972
0.37170212765957444 0.44627301637584327 0.41564388169258876
0.3719148936170213 0.44771506685565987 0.425198639008549
0.3721276595744681 0.44699560332193444 0.43995250756465254
0.3723404255319149 0.44699560332193444 0.4542949377356701
0.3725531914893617 0.4510842528993227 0.46262823644357587
0.3727659574468085 0.4496882485531994 0.461347318611187
0.3729787234042553 0.44835891272722156 0.4599925026007273
0.3731914893617021 0.4481760190628041 0.45814979093459673
0.37340425531914895 0.44706938504108146 0.4550332650401962
0.37361702127659574 0.44534787342175325 0.45755922904904867
0.37382978723404253 0.4497323537044456 0.4550062882105519
0.3740425531914894 0.44598063033754654 0.4554590647723475
0.37425531914893617 0.44155692679079644 0.45527878670261523
0.37446808510638296 0.4424855767457498 0.4569926960444065
0.37468085106382976 0.4384309706232282 0.4562712646537857
0.3748936170212766 0.43635542373735975 0.4557889594528579
0.3751063829787234 0.43619520824670033 0.45671303921885464
0.3753191489361702 0.43396781678588703 0.45546446413218283
0.37553191489361704 0.43083514201699463 0.4581181310618051
0.37574468085106383 0.4305041459992741 0.4572016181771592
0.3759574468085106 0.4337218865625023 0.4588874432892601
0.37617021276595747 0.43283530424412614 0.459215372636896
0.37638297872340426 0.43272277436861933 0.4594856073596127
0.37659574468085105 0.4322855367477546 0.460158401006999
0.37680851063829784 0.43526523738306583 0.4622986291884501
0.3770212765957447 0.4387813000001916 0.46282722982403696
0.3772340425531915 0.4373747131462433 0.46713967048075233
0.3774468085106383 0.43535595482661776 0.4677255001588749
0.3776595744680851 0.4380366575202169 0.4722363421647402
0.3778723404255319 0.44211040547142155 0.47365930250448346
0.3780851063829787 0.4431395836731914 0.4811919882755251
0.37829787234042556 0.44378708070577916 0.4791012491489415
0.37851063829787235 0.44309871311557675 0.47482432895877946
0.37872340425531914 0.44717679274872973 0.47088582520502203
0.37893617021276593 0.44894968246213973 0.47172504854040476
0.3791489361702128 0.4587004567734073 0.47239863214460187
0.3793617021276596 0.45290462227663403 0.47547009545716157
0.37957446808510636 0.453472556337317 0.47789854558988165
0.3797872340425532 0.45156361154910407 0.4763067904250122
0.38 0.45135852464011056 0.4790353686516061
0.3802127659574468 0.4530671631838458 0.4803894848285303
0.3804255319148936 0.4552760348654954 0.4799584864117413
0.38063829787234044 0.45337709119782466 0.4713714317703007
0.38085106382978723 0.45370511594278295 0.46184203663219797
0.381063829787234 0.4538348803126526 0.45231439433898585
0.38127659574468087 0.4558735580267481 0.4373562614521089
0.38148936170212766 0.45698581568552715 0.4257940515391846
0.38170212765957445 0.457743038593063 0.4131644559998127
0.3819148936170213 0.45823151456894207 0.4059600289959702
0.3821276595744681 0.45934273814506293 0.40124694191613924
0.3823404255319149 0.45894162710918435 0.3998761550109914
0.3825531914893617 0.45955285431203824 0.4045391767509981
0.3827659574468085 0.46059341660412195 0.4100888423087776
0.3829787234042553 0.4616339788962054 0.41563850786655576
0.3831914893617021 0.46267454118828877 0.42118817342433384
0.38340425531914896 0.4637151034803725 0.4267378389821134
0.38361702127659575 0.46432498678758455 0.4335502649679639
0.38382978723404254 0.46278032944376235 0.44667985239045227
0.38404255319148933 0.46351849133882594 0.4586557016350366
0.3842553191489362 0.4626716396041265 0.4765025731052035
0.384468085106383 0.46527466410147605 0.4905159682846156
0.38468085106382977 0.46726342472848476 0.5098321540799636
0.3848936170212766 0.467513434294089 0.5191568412043805
0.3851063829787234 0.467513434294089 0.5268717011873549
0.3853191489361702 0.467513434294089 0.5345865611703293
0.38553191489361704 0.467513434294089 0.5423014211533057
0.38574468085106384 0.46674318704117057 0.5450631881994399
0.38595744680851063 0.46446396520483546 0.5362033780362352
0.3861702127659574 0.4636052760136786 0.5238424220587213
0.38638297872340427 0.4636052760136786 0.5150606328579558
0.38659574468085106 0.46173779953972593 0.4798630188908885
0.38680851063829785 0.4597212234691786 0.4425563615857625
0.3870212765957447 0.4591947137877111 0.4390959817980785
0.3872340425531915 0.45868623154998506 0.43604508837172257
0.3874468085106383 0.4581777493122591 0.4329941949453666
0.3876595744680851 0.4576692670745331 0.42994330151901067
0.3878723404255319 0.45716078483680694 0.42689240809265394
0.3880851063829787 0.45638307296180847 0.42241759987323924
0.3882978723404255 0.4549759245125508 0.4127922301596727
0.38851063829787236 0.45727788719523904 0.40113038438711396
0.38872340425531915 0.4606730880126108 0.39048711852718165
0.38893617021276594 0.4557889594528579 0.3762087618574176
0.3891489361702128 0.4557889594528579 0.37422421621218627
0.3893617021276596 0.4557889594528579 0.37223967056695545
0.3895744680851064 0.45321658830608197 0.37176355642403514
0.38978723404255317 0.4506203769995472 0.37176355642403514
0.39 0.4478460434976495 0.37106999691250425
0.3902127659574468 0.44699560332193444 0.37219164095105123
0.3904255319148936 0.44499887241524994 0.3734061729630327
0.39063829787234045 0.44281784752831915 0.3743409541058942
0.39085106382978724 0.44211040547142155 0.3812764528172875
0.39106382978723403 0.44338637771026784 0.39054599936085643
0.3912765957446808 0.4454761132381735 0.39961075578575234
0.39148936170212767 0.4460185637518319 0.4076884151471152
0.39170212765957446 0.4432527100540828 0.4107349625530996
0.39191489361702125 0.4430874450415241 0.4106965707662076
0.3921276595744681 0.4428798314308921 0.40785299203477354
0.3923404255319149 0.44244874160301817 0.4023141815794373
0.3925531914893617 0.44121195774525723 0.3958385616184406
0.39276595744680853 0.43917928676111373 0.39048403615288146
0.3929787234042553 0.43917928676111373 0.39171865484108753
0.3931914893617021 0.4398159044728289 0.39962460408344297
0.3934042553191489 0.44398418755341096 0.41680912306721823
0.39361702127659576 0.43966027768777943 0.43944989765798914
0.39382978723404255 0.43934216430550405 0.46990207924890776
0.39404255319148934 0.44211040547142155 0.49841621194221075
0.3942553191489362 0.44211040547142155 0.5263704246071699
0.394468085106383 0.442560531520289 0.5537020813095432
0.3946808510638298 0.44080201435651917 0.5716680014605111
0.39489361702127657 0.4370820559178094 0.5797381739366515
0.3951063829787234 0.43459547021417333 0.5734128841611419
0.3953191489361702 0.4333390524631163 0.5520009028978902
0.395531914893617 0.4345139510564955 0.5208837971716196
0.39574468085106385 0.43553235739654717 0.4891440570228899
0.39595744680851064 0.4344324137487447 0.46435761798893904
0.39617021276595743 0.43624816805080613 0.4488042829181292
0.3963829787234043 0.43560787330490297 0.4495235874030506
0.39659574468085107 0.43837566892107205 0.45731374694309257
0.39680851063829786 0.43917928676111373 0.472336612842059
0.39702127659574465 0.44013390662765567 0.4829218703801223
0.3972340425531915 0.44190208025104916 0.4901936696268208
0.3974468085106383 0.4401563263312165 0.49170256360883996
0.3976595744680851 0.44079686560789016 0.4903218446998774
0.39787234042553193 0.44211040547142155 0.48900830483634583
0.3980851063829787 0.4430757290209395 0.48900830483634583
0.3982978723404255 0.4422199649651366 0.4902379846006727
0.3985106382978723 0.44562603009882673 0.49545504817405883
0.39872340425531916 0.4452341179479947 0.5047513055798957
0.39893617021276595 0.4450415241817294 0.5074977139826382
0.39914893617021274 0.4453710898238019 0.505123629064981
0.3993617021276596 0.44699560332193444 0.497583529077925
0.3995744680851064 0.44786375635020076 0.482604574012973
0.3997872340425532 0.44838079812924825 0.4646076455758207
0.4 0.4472683371695238 0.43579566537489645
0.4002127659574468 0.45117350225217373 0.4042000376945983
0.4004255319148936 0.4557500306054142 0.36817656113503533
0.4006382978723404 0.457743038593063 0.34449812428277393
0.40085106382978725 0.457743038593063 0.3220107366328868
0.40106382978723404 0.45839245917957927 0.31477055106482693
0.40127659574468083 0.45969711773326827 0.31965917362591145
0.4014893617021277 0.4583717800739193 0.33521354137519244
0.40170212765957447 0.45629520722458716 0.35527011579710327
0.40191489361702126 0.45518462629745887 0.37859231526679626
0.40212765957446805 0.4542626558754037 0.40289707019611865
0.4023404255319149 0.4547581025424498 0.42865544829581165
0.4025531914893617 0.45529448081067514 0.4564383683804569
0.4027659574468085 0.45541708944816145 0.4737037003921375
0.40297872340425533 0.45505901212425903 0.48725600035399397
0.4031914893617021 0.45735792344942455 0.4926597196876639
0.4034042553191489 0.4567664653867014 0.48901017029130966
0.40361702127659577 0.45899119281865414 0.47926604741121254
0.40382978723404256 0.4609380088951205 0.4731118201229547
0.40404255319148935 0.462792923336035 0.4743015095822046
0.40425531914893614 0.4650933672527172 0.4808611916776674
0.404468085106383 0.4649166772753526 0.49890469819204986
0.4046808510638298 0.46302874223423895 0.5260146839674686
0.4048936170212766 0.4653609881300237 0.5547048542999713
0.4051063829787234 0.46378496572991446 0.5697319558531947
0.4053191489361702 0.4626739973778653 0.5818499444632366
0.405531914893617 0.4643000700356201 0.5811106302772283
0.4057446808510638 0.46343611064329565 0.564078052327392
0.40595744680851065 0.4647596327068397 0.5336807631966352
0.40617021276595744 0.4631896228871905 0.5043114721310644
0.40638297872340423 0.463821118070893 0.48047634829323516
0.4065957446808511 0.46397890465186736 0.46367252826023436
0.40680851063829787 0.46328996260098315 0.45408799506131536
0.40702127659574466 0.4604174301558704 0.45028687824354335
0.4072340425531915 0.461560320821357 0.44992672203224227
0.4074468085106383 0.45945052346864834 0.4418638112068016
0.4076595744680851 0.45655085922035327 0.4381035877480777
0.4078723404255319 0.45508978023314917 0.43429408891060084
0.40808510638297874 0.45625512310858646 0.4328419432330405
0.4082978723404255 0.45564540052100855 0.4319779057287245
0.4085106382978723 0.4538348803126526 0.42633876439696905
0.40872340425531917 0.4502881549314246 0.42097696782834704
0.40893617021276596 0.4508127759846408 0.40023629402399635
0.40914893617021275 0.45279065720808964 0.38587880337946434
0.40936170212765954 0.4550197207619293 0.38530357648602204
0.4095744680851064 0.4573938194377168 0.38453568873130484
0.4097872340425532 0.45605875171380744 0.39042943772968
0.41 0.45676599902296044 0.3944074337210205
0.4102127659574468 0.45676599902296044 0.3971808865887137
0.4104255319148936 0.4561584318665941 0.3981436248168051
0.4106382978723404 0.45506709123000044 0.4017529659310917
0.41085106382978726 0.4539723358566412 0.40218923864120404
0.41106382978723405 0.45097640031447056 0.4125328764238828
0.41127659574468084 0.4492160571826288 0.4104899729341533
0.41148936170212763 0.4510718020462182 0.404307733787483
0.4117021276595745 0.44872450122225754 0.3917292721023267
0.41191489361702127 0.4498619978126037 0.38307605244904724
0.41212765957446806 0.44662238732732085 0.376648754274548
0.4123404255319149 0.4486645094204522 0.3755291281836018
0.4125531914893617 0.4445562090746837 0.37565889599242336
0.4127659574468085 0.4428693202515324 0.3782233760246979
0.4129787234042553 0.44077607903369714 0.3786028334147533
0.41319148936170214 0.4401563263312165 0.3829132023296755
0.41340425531914893 0.4401563263312165 0.3885460042456581
0.4136170212765957 0.44201107365036213 0.39305976332417336
0.41382978723404257 0.44500146199938806 0.4086773951154466
0.41404255319148936 0.4373295200583996 0.42527906885000943
0.41425531914893615 0.4401563263312165 0.44952922999799994
0.414468085106383 0.4405439779112697 0.4844870267059778
0.4146808510638298 0.44160514093157166 0.5038648354454682
0.4148936170212766 0.440878824741386 0.5273918471361727
0.4151063829787234 0.4416347954757481 0.5445188232809043
0.4153191489361702 0.441133365901319 0.5574330490302735
0.415531914893617 0.43973277258183546 0.5669116063018714
0.4157446808510638 0.4431238476543287 0.5565029547264707
0.41595744680851066 0.4432251020489997 0.5533250399505913
0.41617021276595745 0.4422043183667435 0.5531208832141401
0.41638297872340424 0.44118353468448734 0.5529167264776889
0.4165957446808511 0.4401627510022309 0.5527125697412375
0.4168085106382979 0.43917928676111373 0.5523805620917381
0.41702127659574467 0.43917928676111373 0.5486793506883926
0.41723404255319146 0.4370550663903508 0.5469226055855801
0.4174468085106383 0.4383656015600774 0.5177153815123563
0.4176595744680851 0.43917928676111373 0.49541483028574235
0.4178723404255319 0.43917928676111373 0.47989398417573714
0.41808510638297874 0.4403516466593576 0.45637623422547063
0.41829787234042554 0.44176225662007995 0.4154266439542321
0.41851063829787233 0.4417098218660854 0.37785050509055684
0.4187234042553191 0.4439822456456331 0.3710332337519136
0.41893617021276597 0.4450415241817294 0.3695131937157481
0.41914893617021276 0.4452149836500623 0.3756663944615255
0.41936170212765955 0.4458450074401059 0.3898419297375086
0.4195744680851064 0.44647503123014975 0.4040174650134954
0.4197872340425532 0.44709438816096353 0.4173108945031171
0.42 0.4476630115781783 0.42640886917855153
0.42021276595744683 0.4483567918651899 0.4348203109586674
0.4204255319148936 0.44955423187293736 0.4419699745636094
0.4206382978723404 0.4509037616023448 0.4490992796507519
0.4208510638297872 0.4511323594578576 0.45686930058237046
0.42106382978723406 0.4517416284662536 0.46235272165793334
0.42127659574468085 0.45188080117244755 0.46586834052612175
0.42148936170212764 0.45344516038919935 0.4681007539407382
0.4217021276595745 0.45740632555181604 0.4684904738641915
0.4219148936170213 0.4587200781631655 0.4636946082480535
0.4221276595744681 0.45889512439625146 0.46590944762005554
0.42234042553191486 0.46000596215599443 0.4681311231395413
0.4225531914893617 0.4611119558180051 0.47209430452210027
0.4227659574468085 0.46165119687347334 0.4775094234642427
0.4229787234042553 0.4604277995960154 0.480461306412778
0.42319148936170214 0.4590323078850665 0.4798623685791219
0.42340425531914894 0.4574346239155875 0.47441745570690236
0.42361702127659573 0.45559115780975595 0.46750445781003414
0.4238297872340426 0.4570270566329738 0.45837993268316907
0.42404255319148937 0.459432407986583 0.4493155031222336
0.42425531914893616 0.45905367554034854 0.4442075307387719
0.42446808510638295 0.46057187953040607 0.4405654374230754
0.4246808510638298 0.459705626676623 0.44403044883820786
0.4248936170212766 0.46238180834183507 0.43959000026401507
0.4251063829787234 0.46262823644357587 0.4319083548385721
0.42531914893617023 0.467353372711419 0.41658352119022796
0.425531914893617 0.4644258740220092 0.39644045519303917
0.4257446808510638 0.46262823644357587 0.38039727778699833
0.4259574468085106 0.4619175757291251 0.3650118039876832
0.42617021276595746 0.4624759416383046 0.3486449496804378
0.42638297872340425 0.4674208664314658 0.33965084561832226
0.42659574468085104 0.4638300855294002 0.33715215568964585
0.4268085106382979 0.46580662512841053 0.3444425694451771
0.4270212765957447 0.46577253697340065 0.3581648799708924
0.4272340425531915 0.46458231558378116 0.3741399792499715
0.4274468085106383 0.46652494972493946 0.3912471228308524
0.4276595744680851 0.46906994630479737 0.415645945810456
0.4278723404255319 0.46763883867594075 0.42884457134175485
0.4280851063829787 0.467513434294089 0.4391686002377019
0.42829787234042555 0.46792940654425547 0.4548554979789267
0.42851063829787234 0.4688469705674337 0.47381131350231687
0.42872340425531913 0.46711146575926976 0.4895775639728364
0.428936170212766 0.46558522235885325 0.5040101485456034
0.42914893617021277 0.46241332433524174 0.5192865964269276
0.42936170212765956 0.45933346798665575 0.5385087072624243
0.42957446808510635 0.4563181060863222 0.5557323811463082
0.4297872340425532 0.45392685027368157 0.5621023326719822
0.43 0.45268378871791504 0.554857566951709
0.4302127659574468 0.45135120387545713 0.5345866213170107
0.43042553191489363 0.45109136543354494 0.511087899472802
0.4306382978723404 0.44702654796238234 0.4901400676086875
0.4308510638297872 0.4448207789296779 0.4737211907454719
0.43106382978723407 0.44406448461162684 0.46434247187219735
0.43127659574468086 0.4432029974445653 0.46102081451249444
0.43148936170212765 0.44209323975714937 0.46363960744222293
0.43170212765957444 0.4412853968291601 0.46525529329820153
0.4319148936170213 0.4423975821900329 0.4636052760136786
0.4321276595744681 0.4435092071478981 0.4640270381200526
0.4323404255319149 0.44406448461162684 0.4656895235915641
0.4325531914893617 0.44273411405806123 0.4711926916614657
0.4327659574468085 0.44132087743203446 0.4773233119116401
0.4329787234042553 0.44021809458690625 0.48283722613728164
0.4331914893617021 0.4382022471910112 0.4863614068415941
0.43340425531914895 0.4380146157730988 0.4917129096482008
0.43361702127659574 0.4375219953076404 0.4963544806906204
0.43382978723404253 0.4374549108706087 0.5031187535492857
0.4340425531914894 0.436731644598066 0.510966478974697
0.43425531914893617 0.4366080417226942 0.5103484645978381
0.43446808510638296 0.4385075979075706 0.5010176633825157
0.4346808510638298 0.43917928676111373 0.48458430684465176
0.4348936170212766 0.43829719205673023 0.4555317157686134
0.4351063829787234 0.4401563263312165 0.42482296109091433
0.4353191489361702 0.4401563263312165 0.3892893617958057
0.43553191489361703 0.43970748522481995 0.3706551051767751
0.4357446808510638 0.43917928676111373 0.359456061616687
0.4359574468085106 0.43773913541525045 0.3587542620969496
0.43617021276595747 0.43680321488585905 0.3705888999590455
0.43638297872340426 0.4362539284168988 0.3843210616830517
0.43659574468085105 0.43624816805080613 0.40100388206262855
0.43680851063829784 0.43624816805080613 0.41812899475781595
0.4370212765957447 0.43624816805080613 0.4331318901748941
0.4372340425531915 0.4377799387857049 0.44488406129540303
0.4374468085106383 0.4417728024157743 0.4478882421281254
0.4376595744680851 0.4431337927680251 0.44276301095601694
0.4378723404255319 0.4442382184962172 0.4334684258973603
0.4380851063829787 0.4459596842974457 0.41663684109439386
0.43829787234042555 0.44966977581296197 0.4045197546759814
0.43851063829787235 0.45078427795299875 0.39790465751811266
0.43872340425531914 0.44992672203224227 0.4002747362284353
