0.0 0.4587200781631655 0.44894968246213973
0.0002127659574468085 0.4609751561922004 0.4494006980679467
0.000425531914893617 0.4632302342212353 0.4498517136737536
0.0006382978723404255 0.4614425559475895 0.44848490865484963
0.000851063829787234 0.45857682586818044 0.4500699743272274
0.0010638297872340426 0.457743038593063 0.4528501997576253
0.001276595744680851 0.457743038593063 0.45268041704220024
0.0014893617021276596 0.4588622637529795 0.45355963891232215
0.001702127659574468 0.4579213721913169 0.45362808952145434
0.0019148936170212765 0.4586538806761803 0.4528578407425501
0.002127659574468085 0.45744946231789146 0.4528578407425501
0.002340425531914894 0.4566500050355411 0.4528578407425501
0.002553191489361702 0.4574761328445127 0.4528578407425501
0.0027659574468085106 0.4565520809697694 0.45271522870708936
0.0029787234042553193 0.4538348803126526 0.45091308358227494
0.0031914893617021275 0.4538348803126526 0.4518367107264069
0.003404255319148936 0.45283661411673426 0.45188080117244755
0.003617021276595745 0.4520971338399989 0.4514481358373449
0.003829787234042553 0.4536788548876645 0.4484407191670015
0.004042553191489362 0.4526172796874441 0.4506632005472388
0.00425531914893617 0.4526190212514547 0.4506649421112495
0.004468085106382979 0.4538348803126526 0.451400225356484
0.004680851063829788 0.4521457495467623 0.451466805190975
0.004893617021276595 0.4509037616023448 0.45059968660354116
0.005106382978723404 0.4480570708425481 0.4506383947221914
0.005319148936170213 0.44841970144272836 0.44947966348155105
0.005531914893617021 0.44823350910802623 0.44966585581625323
0.00574468085106383 0.4464313819702375 0.450697352493142
0.005957446808510639 0.44430592836257216 0.4509037616023448
0.006170212765957446 0.4450066169608893 0.4527880263008699
0.006382978723404255 0.4450415241817294 0.4528578407425501
0.006595744680851064 0.4450415241817294 0.4510320644812993
0.006808510638297872 0.4460237513502916 0.45188080117244755
0.007021276595744681 0.44692784128558016 0.45208408728151034
0.00723404255319149 0.4461851064497899 0.4544788344868391
0.007446808510638298 0.44793243740794664 0.45094396708643536
0.007659574468085106 0.44695510284793444 0.4518403006984475
0.007872340425531916 0.4458125615130237 0.45100676272174894
0.008085106382978723 0.44406448461162684 0.4517165074652112
0.008297872340425531 0.44406448461162684 0.45028113214688265
0.00851063829787234 0.44406448461162684 0.4486437252747263
0.008723404255319148 0.443658045202963 0.4522872405811114
0.008936170212765958 0.44250727631464415 0.4532395740478188
0.009148936170212766 0.44406448461162684 0.45163135217269734
0.009361702127659575 0.4431769901187997 0.45294738581982547
0.009574468085106383 0.4414710044928585 0.4509037616023448
0.00978723404255319 0.4425213300068579 0.45049283706690846
0.01 0.44266305819413526 0.44907794833746467
0.010212765957446808 0.4428104388115631 0.44867267623217866
0.010425531914893617 0.44378250300264444 0.4493627588142776
0.010638297872340425 0.44442937545967864 0.44830812549657584
0.010851063829787235 0.4458076233546812 0.4493456757845575
0.011063829787234043 0.44485484905857536 0.44913635758529374
0.01127659574468085 0.4460185637518319 0.4465361879577349
0.01148936170212766 0.4460185637518319 0.4472865149873494
0.011702127659574468 0.44555356928677364 0.4500208233122144
0.011914893617021277 0.4450415241817294 0.4489365972185217
0.012127659574468085 0.4459881412945914 0.44945341347581125
0.012340425531914893 0.44789608474932396 0.44894968246213973
0.012553191489361702 0.44775262149518696 0.44894968246213973
0.01276595744680851 0.4460185637518319 0.4496753963098127
0.01297872340425532 0.4460185637518319 0.4505435104539018
0.013191489361702127 0.4483340077930625 0.44915490735183217
0.013404255319148937 0.44951867014702873 0.44938992150728835
0.013617021276595745 0.44699560332193444 0.4513984335213532
0.013829787234042552 0.4487950808516595 0.450981062407585
0.014042553191489362 0.4509037616023448 0.4494891766488019
0.01425531914893617 0.4524041420881087 0.4484495556335518
0.01446808510638298 0.45267546509790213 0.44739293528466184
0.014680851063829787 0.45188080117244755 0.44895046740205374
0.014893617021276596 0.4532310685275124 0.4506018557097747
0.015106382978723404 0.45309611943498557 0.4509037616023448
0.015319148936170212 0.4514160830556152 0.44946200391541
0.015531914893617021 0.4509037616023448 0.44894968246213973
0.01574468085106383 0.4527426528753157 0.44894968246213973
0.015957446808510637 0.4539654111808081 0.45116482333865565
0.016170212765957447 0.4557889594528579 0.45444770230299036
0.016382978723404256 0.4557451482387938 0.45201223481463987
0.016595744680851062 0.4548753360637801 0.4546216713396804
0.01680851063829787 0.45656931386034716 0.4530545259051633
0.01702127659574468 0.4558969490352752 0.4476435408164382
0.01723404255319149 0.4539981735757725 0.44878638919901986
0.017446808510638297 0.4574647624581583 0.4480422119257634
0.017659574468085106 0.4560582180845531 0.4479726428920372
0.017872340425531916 0.45501061364506873 0.4510860261231933
0.018085106382978722 0.45549681282302107 0.4498261223516501
0.01829787234042553 0.4574826270114387 0.45233701757930145
0.01851063829787234 0.45713502284276036 0.45544594201091726
0.01872340425531915 0.454046954085777 0.4566811695137107
0.018936170212765956 0.45451108855693784 0.45406116604581953
0.019148936170212766 0.45523499655820254 0.4524347640671028
0.019361702127659575 0.45616383188547316 0.4524431098213705
0.01957446808510638 0.4577282259005729 0.45472304372781447
0.01978723404255319 0.45689908415639396 0.44974819326274096
0.02 0.454591081636341 0.4511245998487592
0.02021276595744681 0.455509679355539 0.4507642684771899
0.020425531914893616 0.45676599902296044 0.4490908846659673
0.020638297872340425 0.4561043264547616 0.44830347917613655
0.020851063829787235 0.4550546578691675 0.4496778964213767
0.02106382978723404 0.45561975802445803 0.4517115997440477
0.02127659574468085 0.45495381110553346 0.45132943527067965
0.02148936170212766 0.455702776293339 0.45374869715313376
0.02170212765957447 0.4548751035914729 0.4529210244512678
0.021914893617021276 0.4555251413670553 0.4542842837111501
0.022127659574468085 0.4557889594528579 0.4533665076704155
0.022340425531914895 0.45534815577141036 0.45166039933172375
0.0225531914893617 0.45398473056335903 0.450978686727698
0.02276595744680851 0.4551546462651703 0.450243878626086
0.02297872340425532 0.4566723213711307 0.45081008395051514
0.023191489361702126 0.4575464985895402 0.4516842611689248
0.023404255319148935 0.4569051367683842 0.4510428993477686
0.023617021276595745 0.45324606482150065 0.45031710590210156
0.023829787234042554 0.4523596586224495 0.4495627477772161
0.02404255319148936 0.4545500112849006 0.4494734996578489
0.02425531914893617 0.45319522733658624 0.4521830675544777
0.02446808510638298 0.45237273471315625 0.4528578407425501
0.024680851063829785 0.45188080117244755 0.4530103994431553
0.024893617021276595 0.45188080117244755 0.4536501545903801
0.025106382978723404 0.45188080117244755 0.4538348803126526
0.025319148936170214 0.4516069986567828 0.4543824853439821
0.02553191489361702 0.4509636141227008 0.4556692544121459
0.02574468085106383 0.44905242362940695 0.452086283506982
0.02595744680851064 0.4498065180831086 0.45016712993050956
0.026170212765957445 0.4481529206341308 0.45258742412940967
0.026382978723404255 0.44699646017844347 0.4538331665996346
0.026595744680851064 0.4479424261754437 0.45194123460563446
0.026808510638297874 0.44712648234758123 0.45005760105788906
0.02702127659574468 0.451449604647196 0.4549351188899699
0.02723404255319149 0.4457028920789522 0.45657703676661104
0.0274468085106383 0.4442688865054311 0.45213017296517044
0.027659574468085105 0.44555082840376026 0.45387644918661174
0.027872340425531914 0.4415479920625854 0.4540668246012141
0.028085106382978724 0.4444845407182889 0.45167077311911635
0.028297872340425533 0.4460185637518319 0.4540317246808286
0.02851063829787234 0.44720619127591077 0.4540075181667397
0.02872340425531915 0.4473183394174445 0.4528578407425501
0.02893617021276596 0.4448222520705251 0.4535822911596865
0.029148936170212764 0.44489232464013123 0.4538348803126526
0.029361702127659574 0.444097932148468 0.45289128827939124
0.029574468085106383 0.44377355325567547 0.4483647047286951
0.029787234042553193 0.44874684665289427 0.45129086348277353
0.03 0.44470819264264666 0.44894968246213973
0.03021276595744681 0.44631032126784864 0.44963496451622553
0.030425531914893618 0.4436291358212249 0.44996216936200856
0.030638297872340424 0.4450930273803339 0.45014273122570464
0.030851063829787233 0.4441135759134851 0.45306528215868186
0.031063829787234043 0.4439365652641632 0.4538348803126526
0.03127659574468085 0.4448871698906385 0.45465756559166426
0.03148936170212766 0.4450415241817294 0.45389271401535947
0.03170212765957447 0.4459513777094582 0.449993908074616
0.031914893617021274 0.44523789174618944 0.45051102647342467
0.03212765957446809 0.4463424237130008 0.44894968246213973
0.03234042553191489 0.44611894909781274 0.44982633668626143
0.0325531914893617 0.44611761376893105 0.4487515824279414
0.03276595744680851 0.4476263779074466 0.4476263779074466
0.03297872340425532 0.4479726428920372 0.45004554490880955
0.033191489361702124 0.4464555058668592 0.447869487551989
0.03340425531914894 0.45014660842211157 0.4494724301241023
0.03361702127659574 0.4541816040776375 0.4491072614134191
0.033829787234042556 0.44933429252337675 0.4497322006563366
0.03404255319148936 0.44946853564777894 0.4514226147879842
0.03425531914893617 0.4520126647394811 0.45257611540819376
0.03446808510638298 0.4516487468981279 0.4528578407425501
0.03468085106382979 0.45262032823085147 0.45228565186638126
0.03489361702127659 0.4526786937173406 0.45188080117244755
0.035106382978723406 0.4514633217044955 0.4522982806403995
0.03531914893617021 0.45131646627833777 0.453545681869205
0.03553191489361702 0.45328463025565613 0.4568259551647355
0.03574468085106383 0.4543330223977561 0.4547541860824422
0.03595744680851064 0.45502356548873946 0.45145750996047895
0.036170212765957444 0.4557120514344277 0.45008053806910264
0.036382978723404256 0.45453952286572735 0.4474278488579813
0.03659574468085106 0.4551024921583231 0.44939886200695306
0.03680851063829787 0.45707445296033244 0.4516757027510484
0.03702127659574468 0.45659765397910657 0.4479500905002315
0.03723404255319149 0.45205159304391584 0.45173847461289063
0.0374468085106383 0.4553498567944965 0.44979936779921814
0.03765957446808511 0.4558498347177885 0.44940776461472565
0.03787234042553191 0.4552974060299403 0.45016946510583483
0.038085106382978726 0.45689002460875555 0.4509037616023448
0.03829787234042553 0.4591213427917376 0.4509037616023448
0.03851063829787234 0.45858092220620644 0.4509037616023448
0.03872340425531915 0.45832991452751465 0.4500234477006674
0.03893617021276596 0.4596545653029782 0.4480364715374723
0.03914893617021276 0.457762096130538 0.447327635691127
0.039361702127659576 0.4577723141912398 0.44666016493250804
0.03957446808510638 0.459621260348986 0.4460944211361142
0.03978723404255319 0.45773732115667554 0.44797836032842464
0.04 0.45739539331327894 0.449264379607299
0.04021276595744681 0.4586946683594548 0.4499140171303869
0.04042553191489362 0.4569620346640201 0.44992672203224227
0.040638297872340426 0.4583772296192545 0.447509876137801
0.04085106382978723 0.4581031250567076 0.4494634157477662
0.041063829787234045 0.4561530496514114 0.4505062643669319
0.04127659574468085 0.45323177187718117 0.4505298304677137
0.04148936170212766 0.45155944754788513 0.452930694736499
0.04170212765957447 0.4577664903116107 0.4536203661546907
0.041914893617021276 0.45615098245729885 0.45501692540464245
0.04212765957446808 0.4548391634880897 0.45378039310198376
0.042340425531914895 0.45694790841348326 0.45149448485223903
0.0425531914893617 0.45797935638970394 0.45115066886016536
0.04276595744680851 0.45501839891393314 0.45207344130717875
0.04297872340425532 0.45188080117244755 0.4528578407425501
0.043191489361702126 0.45188080117244755 0.4528578407425501
0.04340425531914894 0.4505715876538896 0.453294245248736
0.043617021276595745 0.4491860769398888 0.45391367847190234
0.04382978723404255 0.45160160045961356 0.4547188529784772
0.044042553191489364 0.4510336124847027 0.45142316513177627
0.04425531914893617 0.4509037616023448 0.45346397203020194
0.044468085106382976 0.4483551280033387 0.45128624671364637
0.04468085106382979 0.4479726428920372 0.4509037616023448
0.044893617021276595 0.4514721672858154 0.4535284048976785
0.0451063829787234 0.44873042410537073 0.452574729485822
0.045319148936170214 0.4489397642460807 0.45188080117244755
0.04553191489361702 0.45157503298009494 0.4520336852686238
0.045744680851063826 0.4502726647641799 0.4526848693765813
0.04595744680851064 0.4485882076976476 0.4535270979098474
0.046170212765957445 0.4463696889535977 0.4522319263742131
0.04638297872340425 0.4450415241817294 0.45135225502505993
0.046595744680851064 0.4450415241817294 0.45234612468718527
0.04680851063829787 0.44411382158346385 0.4531670749419719
0.047021276595744683 0.442201535840989 0.45380450352279683
0.04723404255319149 0.44600789265011925 0.4518861367233038
0.047446808510638296 0.44764289960749293 0.45123350488688907
0.04765957446808511 0.44700867594587607 0.45186772854850593
0.047872340425531915 0.44310076008402827 0.450322863877285
0.04808510638297872 0.443130763748756 0.45043690117090945
0.048297872340425534 0.4433769694318751 0.4506745898757609
0.04851063829787234 0.44117900274020766 0.4499419343118718
0.048723404255319146 0.4425589524141567 0.4506395152886611
0.04893617021276596 0.44448786648169386 0.45183737589579137
0.049148936170212765 0.44502886147850546 0.4533526918792133
0.04936170212765957 0.4422920921655913 0.45481191988275516
0.049574468085106384 0.4440349470389593 0.45481191988275516
0.04978723404255319 0.44239647686616834 0.4531439121372969
0.05 0.44211040547142155 0.4535826843591095
0.05021276595744681 0.44211040547142155 0.45246105281071836
0.050425531914893615 0.44421768539097367 0.45188080117244755
0.05063829787234043 0.4435072822791394 0.45418216402633227
0.050851063829787234 0.4430874450415241 0.4531444486458694
0.05106382978723404 0.44243996699147775 0.4535053187925964
0.05127659574468085 0.44211040547142155 0.4534414009083484
0.05148936170212766 0.4416550432088952 0.45240247848002374
0.051702127659574465 0.4397322554695539 0.44992672203224227
0.05191489361702128 0.44600201916474425 0.44992672203224227
0.052127659574468084 0.4430874450415241 0.44998659699653343
0.05234042553191489 0.4430874450415241 0.45548582126967274
0.0525531914893617 0.4430874450415241 0.4483350189277891
0.05276595744680851 0.44586088762930576 0.45074608547981865
0.05297872340425532 0.45131024016783533 0.45002181553301096
0.05319148936170213 0.4483414139084914 0.45081156884823126
0.053404255319148934 0.44886686794012065 0.4509037616023448
0.05361702127659575 0.4499027339349948 0.4470915557109243
0.05382978723404255 0.45380050882254747 0.44798410005540557
0.05404255319148936 0.45082999503720855 0.44924474872268483
0.05425531914893617 0.450109128594154 0.4525842308996826
0.05446808510638298 0.45151121308877606 0.4504811041577495
0.054680851063829784 0.4524926925580534 0.45115050480345414
0.0548936170212766 0.45339746787542484 0.4524204283053223
0.0551063829787234 0.45216398361697746 0.4524401165686313
0.05531914893617021 0.45103056529529106 0.45243272280397195
0.05553191489361702 0.4534988633234186 0.4528268293449505
0.05574468085106383 0.4532003790731938 0.45124629993298865
0.055957446808510634 0.45438162644358093 0.45297429343430407
0.05617021276595745 0.45647962508686407 0.4557889594528579
0.05638297872340425 0.4564313776041949 0.45404007813436714
0.056595744680851066 0.45321204782509683 0.45241409185833364
0.05680851063829787 0.45441694835064184 0.45539398792074437
0.05702127659574468 0.45865975576984225 0.45174210546823784
0.05723404255319149 0.45814825825303 0.44992672203224227
0.0574468085106383 0.45607465049176615 0.44992672203224227
0.057659574468085104 0.4566774929003011 0.44992672203224227
0.05787234042553192 0.45871848619358646 0.446997991276303
0.05808510638297872 0.45493554183393525 0.4460185637518319
0.05829787234042553 0.4571112468855939 0.44647889423534315
0.05851063829787234 0.4595696189417371 0.44975672364353403
0.05872340425531915 0.4577843575257039 0.4470575817208958
0.058936170212765954 0.45969711773326827 0.44890627498919283
0.05914893617021277 0.45969711773326827 0.4474491396169707
0.05936170212765957 0.4571394868223134 0.4489138265051506
0.059574468085106386 0.4585525144921446 0.4513084995518857
0.05978723404255319 0.4573921167069589 0.4495758001461382
0.06 0.45850632453294116 0.451560170727111
0.06021276595744681 0.45389477080267404 0.4537600172001258
0.06042553191489362 0.45766149428864716 0.4490516128426595
0.06063829787234042 0.45861601109814204 0.4527537736775266
0.060851063829787236 0.45797906978264324 0.4523528635516081
0.06106382978723404 0.4590861868101768 0.45237044572460755
0.06127659574468085 0.46018845788705554 0.45140074249360423
0.06148936170212766 0.45882467468415783 0.44977536971052856
0.06170212765957447 0.45848756338417423 0.45169526684759376
0.06191489361702127 0.4578547240244474 0.4528578407425501
0.062127659574468086 0.46255391032766263 0.45088889637916213
0.06234042553191489 0.4576997270527088 0.45001334511295066
0.0625531914893617 0.4569083037884832 0.45180964878968616
0.0627659574468085 0.45780032534375914 0.4512716627301074
0.06297872340425532 0.45409324922079486 0.4531162096506923
0.06319148936170213 0.4541190619719839 0.4536039276757289
0.06340425531914894 0.45188080117244755 0.45282598278097264
0.06361702127659574 0.45188080117244755 0.4519609986918148
0.06382978723404255 0.452621258109491 0.45039988729836045
0.06404255319148935 0.4528578407425501 0.4524644305948183
0.06425531914893617 0.45231353639483357 0.45220196726950285
0.06446808510638298 0.45278186050813746 0.45135429127018983
0.06468085106382979 0.4534840199475035 0.45117908044214916
0.06489361702127659 0.45311689760237833 0.4504448357518988
0.0651063829787234 0.4534185353793308 0.45208897363910844
0.06531914893617022 0.45157939041637546 0.45270713536451407
0.06553191489361702 0.4498012236797249 0.4520062995249649
0.06574468085106383 0.44894968246213973 0.4527178500074833
0.06595744680851064 0.44894968246213973 0.45188080117244755
0.06617021276595744 0.44894968246213973 0.45188080117244755
0.06638297872340425 0.4424032865870623 0.4546863994046234
0.06659574468085107 0.44356981568415577 0.4533525096700211
0.06680851063829787 0.44348726510877184 0.4534350602454049
0.06702127659574468 0.44358202281568276 0.45185656921601836
0.06723404255319149 0.44406448461162684 0.4502570477896803
0.06744680851063829 0.44406448461162684 0.45116291304571154
0.06765957446808511 0.44406448461162684 0.45563390931970554
0.06787234042553192 0.44312861217238964 0.4557889594528579
0.06808510638297872 0.4439431958225925 0.4523659563285849
0.06829787234042553 0.44236917429939565 0.4510331460163319
0.06851063829787234 0.4413127615457178 0.4517014055280487
0.06872340425531914 0.441133365901319 0.45346795578583726
0.06893617021276596 0.43962108212107676 0.4568594478731369
0.06914893617021277 0.44129112216907296 0.45563120318510375
0.06936170212765957 0.43947717081800974 0.4515203765659904
0.06957446808510638 0.439723330783646 0.44878590933776613
0.06978723404255319 0.442031494889177 0.4470547862586179
0.06999999999999999 0.44211040547142155 0.45043184006416515
0.07021276595744681 0.441197584902902 0.45005516003540835
0.07042553191489362 0.4407159345459233 0.4468534264626235
0.07063829787234042 0.44211040547142155 0.44589004305353863
0.07085106382978723 0.4422783646715907 0.45249120671129944
0.07106382978723404 0.4433889401135461 0.44647080635986497
0.07127659574468086 0.44470574540579483 0.44844601429823794
0.07148936170212766 0.4442315248117802 0.4491116823361296
0.07170212765957447 0.4431442846206846 0.4493291303743487
0.07191489361702127 0.44205704442958904 0.4495465784125678
0.07212765957446808 0.44096980423849347 0.4497640264507869
0.07234042553191489 0.44084117523450655 0.4501550050000056
0.0725531914893617 0.44395564601198606 0.45055648121416003
0.07276595744680851 0.4478225190531189 0.44879955862322146
0.07297872340425532 0.447050141597658 0.44802718116776075
0.07319148936170213 0.44879955303583485 0.4488746177489873
0.07340425531914893 0.4479730120888816 0.4499259836385535
0.07361702127659574 0.4486979890887695 0.4480984895787223
0.07382978723404256 0.44828949108833216 0.44920846001541925
0.07404255319148936 0.45071553364437456 0.4503151445415999
0.07425531914893617 0.44999255877488886 0.4524680760714686
0.07446808510638298 0.4515591797253679 0.45121320782056057
0.07468085106382978 0.45188080117244755 0.45307604714056804
0.0748936170212766 0.45279837865224154 0.44649426047430013
0.07510638297872341 0.4538875001890499 0.448130502521229
0.07531914893617021 0.4547124616878169 0.4510529488947521
0.07553191489361702 0.4533779805706831 0.45366150036994163
0.07574468085106383 0.45456288680144447 0.45193828625399
0.07595744680851063 0.4536312617888379 0.4516771826486326
0.07617021276595745 0.454653987616217 0.45213242255769137
0.07638297872340426 0.4559143671475208 0.45159692388063427
0.07659574468085106 0.45676599902296044 0.4510607945233127
0.07680851063829787 0.460560582121752 0.44900647005294914
0.07702127659574468 0.45502459637803316 0.45177446292480855
0.0772340425531915 0.45628762830853814 0.451142946959556
0.0774468085106383 0.45630986974804216 0.45262977610509103
0.07765957446808511 0.458212790041097 0.45180572782437833
0.07787234042553191 0.45585245963259063 0.4518173009927146
0.07808510638297872 0.45631474425796165 0.45060360417974044
0.07829787234042553 0.45676599902296044 0.45168395358485497
0.07851063829787235 0.4596623167469422 0.45257943285194135
0.07872340425531915 0.4588889510935865 0.4448726512513084
0.07893617021276596 0.45946551425939386 0.44475929503324985
0.07914893617021276 0.4581674221396324 0.447271931333701
0.07936170212765957 0.4556845923696551 0.44877514796475976
0.07957446808510638 0.45969711773326827 0.4479726428920372
0.0797872340425532 0.45895462934377595 0.4479726428920372
0.08 0.45676599902296044 0.44823143097104334
0.08021276595744681 0.45676599902296044 0.44923046610424255
0.08042553191489361 0.45699134190619756 0.45082809356519066
0.08063829787234042 0.4571253980961628 0.45259959931885224
0.08085106382978724 0.45390421776916456 0.4461572386648558
0.08106382978723405 0.45465385088956406 0.44765650490565495
0.08127659574468085 0.4560737540818976 0.4492344770911795
0.08148936170212766 0.45406268265233696 0.4508278274891168
0.08170212765957446 0.4517444477363109 0.45132034374980345
0.08191489361702127 0.4537101177971772 0.44992672203224227
0.08212765957446809 0.45293592525975945 0.44992672203224227
0.0823404255319149 0.4533541539938595 0.44992672203224227
0.0825531914893617 0.4537297961087643 0.44992672203224227
0.08276595744680851 0.4529158032283138 0.44992672203224227
0.08297872340425531 0.452061780394697 0.44992672203224227
0.08319148936170212 0.45120468858977053 0.44992672203224227
0.08340425531914894 0.45319603353571725 0.45176053957894013
0.08361702127659575 0.45416615193031856 0.4536030506665756
0.08382978723404255 0.44894968246213973 0.4528578407425501
0.08404255319148936 0.44894968246213973 0.4528578407425501
0.08425531914893616 0.4512484310078995 0.4543903397730565
0.08446808510638298 0.45052004277881613 0.45481191988275516
0.08468085106382979 0.4486764295411494 0.45481191988275516
0.0848936170212766 0.44749665205963995 0.4538599382179609
0.0851063829787234 0.4464597195202137 0.4523219569408293
0.08531914893617021 0.4450415241817294 0.45101070785935904
0.08553191489361701 0.4450415241817294 0.45242036042878153
0.08574468085106383 0.44609305146517486 0.450754786175659
0.08595744680851064 0.4455169982948012 0.44983684547841973
0.08617021276595745 0.44211040547142155 0.45188080117244755
0.08638297872340425 0.44211040547142155 0.45188080117244755
0.08659574468085106 0.44211040547142155 0.4505265291632566
0.08680851063829788 0.4431716398742066 0.4493961048308498
0.08702127659574468 0.44310582771393625 0.45038766780867556
0.08723404255319149 0.4411486913357697 0.45139994410462153
0.0874468085106383 0.4421140750682271 0.4509037616023448
0.0876595744680851 0.44406448461162684 0.45145787456164177
0.08787234042553191 0.44280695754667954 0.45439585530234206
0.08808510638297873 0.4455854631223845 0.4523139018018948
0.08829787234042553 0.44243424025681716 0.452424215957384
0.08851063829787234 0.445293527382685 0.4514711202487613
0.08872340425531915 0.4451246947770307 0.4527746701472487
0.08893617021276595 0.44224547913033374 0.4532285451522216
0.08914893617021276 0.441133365901319 0.4521679952260274
0.08936170212765958 0.43867013887479467 0.45188080117244755
0.08957446808510638 0.44296493505466594 0.45378587631790934
0.08978723404255319 0.4411341353164798 0.450904915725086
0.09 0.4401563263312165 0.4479726428920372
0.0902127659574468 0.44041314488905237 0.44771582433420126
0.09042553191489362 0.441133365901319 0.44816569813930457
0.09063829787234043 0.4427012377456308 0.45044934598034614
0.09085106382978723 0.44602379299279654 0.4522099671897914
0.09106382978723404 0.44544946614405595 0.4497655663867929
0.09127659574468085 0.44167929258489724 0.44979024036134774
0.09148936170212765 0.4449348427988372 0.4518274604810015
0.09170212765957447 0.44710259058463225 0.4538348803126526
0.09191489361702128 0.4472603708657671 0.4540723043214093
0.09212765957446808 0.44430901451470034 0.45371315538221174
0.09234042553191489 0.44455024482218836 0.45090560131867136
0.0925531914893617 0.44357511918254433 0.4529810277438517
0.0927659574468085 0.44358641149341005 0.4518599078387783
0.09297872340425532 0.44406448461162684 0.4509037616023448
0.09319148936170213 0.44699560332193444 0.4527904883080834
0.09340425531914893 0.44699560332193444 0.45023191022999076
0.09361702127659574 0.44699560332193444 0.4527100051887368
0.09382978723404255 0.44699560332193444 0.45358967248865234
0.09404255319148937 0.44699560332193444 0.4529547765072264
0.09425531914893617 0.44766682699442245 0.4531636566401648
0.09446808510638298 0.4487771274568846 0.45446680987224486
0.09468085106382979 0.44988568765796194 0.45668393027439974
0.09489361702127659 0.45490225302347315 0.4591551188889605
0.0951063829787234 0.4556005517964007 0.45326965734328106
0.09531914893617022 0.4546372511500703 0.4503797554042902
0.09553191489361702 0.4541373107006822 0.44827507328006677
0.09574468085106383 0.4539399407364395 0.44894968246213973
0.09595744680851064 0.4522908162318412 0.4506507559942665
0.09617021276595744 0.455332384784092 0.45050016772778967
0.09638297872340426 0.45360828170075435 0.45308443935444837
0.09659574468085107 0.4562536838912728 0.4478921548023878
0.09680851063829787 0.45302113189863574 0.449804253665178
0.09702127659574468 0.45773152601739964 0.4518761961421822
0.09723404255319149 0.4560080505380973 0.46324012420494637
0.09744680851063829 0.46143943371731255 0.454187818906254
0.09765957446808511 0.4581641464177497 0.45121959247085985
0.09787234042553192 0.4584255927318605 0.45022120746354727
0.09808510638297872 0.4587200781631655 0.44950955707421614
0.09829787234042553 0.4587200781631655 0.44856816874995076
0.09851063829787234 0.4587200781631655 0.44632062290410746
0.09872340425531914 0.4607378846792035 0.4480363702678699
0.09893617021276596 0.4612204914322091 0.4498110933446682
0.09914893617021277 0.4605185269574762 0.4509037616023448
0.09936170212765957 0.459837475441716 0.4509037616023448
0.09957446808510638 0.46161455936852397 0.449625467178841
0.09978723404255319 0.46120716213744967 0.44989706533289053
0.1 0.45969711773326827 0.44944655747570833
0.10021276595744681 0.4595739563805697 0.44608014442818117
0.10042553191489362 0.458318766643112 0.44670773929691
0.10063829787234042 0.45737027817242565 0.4477411241632092
0.10085106382978723 0.45666613062082695 0.44865007725573913
0.10106382978723404 0.4558506593205131 0.44620366335479755
0.10127659574468086 0.4573595936094987 0.4460185637518319
0.10148936170212766 0.45851722270614625 0.4483411160910819
0.10170212765957447 0.4587200781631655 0.4498169994596011
0.10191489361702127 0.45870967194369877 0.45382863658097256
0.10212765957446808 0.4541775325585972 0.45078954418702993
0.10234042553191489 0.45676599902296044 0.45038367809197627
0.1025531914893617 0.45676599902296044 0.4515360799388527
0.10276595744680851 0.4554144990017308 0.45135426160942144
0.10297872340425532 0.4543882884476299 0.45132739303747016
0.10319148936170212 0.45481191988275516 0.4493392859400846
0.10340425531914893 0.45379469190257965 0.4500070988523884
0.10361702127659575 0.4534812928265913 0.45125734908840626
0.10382978723404256 0.45605134192813845 0.4501649410638496
0.10404255319148936 0.4550580362691679 0.4490727406553461
0.10425531914893617 0.4500594772909182 0.45180114801724197
0.10446808510638297 0.45259730379678115 0.4535743433668837
0.10468085106382978 0.4495244611445016 0.4509037616023448
0.1048936170212766 0.4476550643219532 0.4512213401724288
0.1051063829787234 0.44656081275216786 0.45057642946314763
0.10531914893617021 0.4465711882565274 0.4517128049856173
0.10553191489361702 0.4463301534683709 0.4531694304590891
0.10574468085106382 0.4444574044008463 0.4497355220405787
0.10595744680851064 0.4458454591928239 0.4507306570433368
0.10617021276595745 0.4440344790818033 0.45185079564262404
0.10638297872340426 0.4430874450415241 0.4504151063922617
0.10659574468085106 0.4433247917511086 0.4481823368698569
0.10680851063829787 0.4444189341764937 0.4529441498670481
0.10702127659574467 0.4450415241817294 0.4529384811530487
0.1072340425531915 0.4450415241817294 0.4512344960230101
0.1074468085106383 0.4450415241817294 0.4518556994607335
0.1076595744680851 0.4458611934347444 0.44992672203224227
0.10787234042553191 0.4434142357164307 0.44992672203224227
0.10808510638297872 0.44420691914301624 0.45048312539138435
0.10829787234042552 0.44289184289009775 0.45188080117244755
0.10851063829787234 0.44256756285917137 0.45188080117244755
0.10872340425531915 0.441133365901319 0.45126966742056274
0.10893617021276596 0.4404088958065769 0.44945482141286053
0.10914893617021276 0.44351578032962863 0.44643009196333056
0.10936170212765957 0.4414687365670029 0.44947956114466375
0.10957446808510639 0.4420536850907862 0.4490064028427751
0.1097872340425532 0.4430931415282788 0.4479669464052825
0.11 0.44465292573168863 0.44640716220187265
0.1102127659574468 0.44576817949062214 0.4452293123776367
0.11042553191489361 0.443756574581134 0.44673801605975283
0.11063829787234042 0.44238929209409233 0.4480656050995941
0.11085106382978724 0.4439244720072245 0.4485773317373048
0.11106382978723404 0.44476350669325665 0.448671664973667
0.11127659574468085 0.44374274957916515 0.4476509078595755
0.11148936170212766 0.4434576770128764 0.44699560332193444
0.11170212765957446 0.44449178360556396 0.44699560332193444
0.11191489361702127 0.44552577938178367 0.44820624132207026
0.11212765957446809 0.44655964938471043 0.4507909163293875
0.1123404255319149 0.44640235779307147 0.451584178408016
0.1125531914893617 0.44537656371954887 0.4510712813712546
0.1127659574468085 0.4470610071121188 0.45023060062554837
0.11297872340425531 0.45006000822539405 0.44923093358779
0.11319148936170213 0.4512760650773698 0.4482050755120899
0.11340425531914894 0.4517941208522387 0.4471689639623522
0.11361702127659574 0.45227755391623364 0.44778910880950673
0.11382978723404255 0.45275402991386654 0.44874206080477264
0.11404255319148936 0.45245462737074377 0.44935289583394605
0.11425531914893616 0.45193909356292383 0.449868429641766
0.11446808510638298 0.4532594282416722 0.44992672203224227
0.11468085106382979 0.45481191988275516 0.4499248407876195
0.1148936170212766 0.45481191988275516 0.4483797988456489
0.1151063829787234 0.45481191988275516 0.44699560332193444
0.11531914893617021 0.45481191988275516 0.44699560332193444
0.11553191489361703 0.45481191988275516 0.4471091649532015
0.11574468085106383 0.45481191988275516 0.44762564786959563
0.11595744680851064 0.4551513806267042 0.44780291252006266
0.11617021276595745 0.45618582427307564 0.4472856906968769
0.11638297872340425 0.45653725278243346 0.4472243495624615
0.11659574468085106 0.45601636064789686 0.4477452416969982
0.11680851063829788 0.4563691319583241 0.44826272914477033
0.11702127659574468 0.4573988308488213 0.4487775785900189
0.11723404255319149 0.45874261999087035 0.44928287626140884
0.1174468085106383 0.460244124221678 0.449783377671678
0.1176595744680851 0.4599112348947194 0.4495452608279166
0.11787234042553191 0.45884211490458776 0.4490107008328509
0.11808510638297873 0.459344177740763 0.44832558288454233
0.11829787234042553 0.45829116248692514 0.4486756205152087
0.11851063829787234 0.455947440954301 0.44976824053079917
0.11872340425531915 0.457364207640655 0.4483514738444452
0.11893617021276595 0.4561920070217728 0.4479726428920372
0.11914893617021277 0.4560256069987184 0.4477299054688445
0.11936170212765958 0.45951186626213164 0.4470326536161618
0.11957446808510638 0.45969711773326827 0.44766318733036903
0.11978723404255319 0.45893123458320184 0.44835558446707036
0.12 0.457743038593063 0.4490415532779371
0.1202127659574468 0.457743038593063 0.44975083089957807
0.12042553191489362 0.45615411750500434 0.45204528348298706
0.12063829787234043 0.4545537107164421 0.45409308947896565
0.12085106382978723 0.45384581705784827 0.4548009831375595
0.12106382978723404 0.4570541216563778 0.45352422334526515
0.12127659574468085 0.45732901033672424 0.4521623068293294
0.12148936170212765 0.45497154851278115 0.45082394728733177
0.12170212765957447 0.4563909124914338 0.4501142652980056
0.12191489361702128 0.4557234974955501 0.44992672203224227
0.12212765957446808 0.4540549136568401 0.44992672203224227
0.12234042553191489 0.45193243970602187 0.44992672203224227
0.1225531914893617 0.45326633293272744 0.45339055143294216
0.12276595744680852 0.45173683071920384 0.45313348020799615
0.12297872340425532 0.44894968246213973 0.45147796581859273
0.12319148936170213 0.44894968246213973 0.45430081221497864
0.12340425531914893 0.4501119120111568 0.4524874607847209
0.12361702127659574 0.44933313310550627 0.4505896359029771
0.12382978723404255 0.44597063647162866 0.4498308674718357
0.12404255319148937 0.44525680191489947 0.44840319835837744
0.12425531914893617 0.44652708913649386 0.4474774545737823
0.12446808510638298 0.4470644633406225 0.4476767379854955
0.12468085106382978 0.4442298577988206 0.4498026921418469
0.12489361702127659 0.44406448461162684 0.45126488723965386
0.1251063829787234 0.4452681072558328 0.45188080117244755
0.12531914893617022 0.4467291027545557 0.45188080117244755
0.125531914893617 0.4453025211341723 0.45188080117244755
0.12574468085106383 0.44446061546504495 0.4501380750223941
0.12595744680851065 0.44406448461162684 0.4495762585287585
0.12617021276595744 0.4441083301153848 0.45094760710610277
0.12638297872340426 0.4448181914445689 0.45165746843528704
0.12659574468085105 0.4450415241817294 0.44994179141725144
0.12680851063829787 0.44482588996850403 0.4486195455317133
0.1270212765957447 0.44411647680150723 0.4507477850327036
0.12723404255319148 0.4458804434217461 0.4527197204124642
0.1274468085106383 0.445464399682146 0.45322239885673726
0.1276595744680851 0.4422304653646138 0.45196084110124235
0.12787234042553192 0.4443703377951893 0.4533874227216259
0.1280851063829787 0.44601847264790306 0.4538348803126526
0.12829787234042553 0.44655092829280757 0.4538348803126526
0.12851063829787235 0.44513263919631546 0.4538348803126526
0.12872340425531914 0.44304229949557694 0.4551676967700876
0.12893617021276596 0.44211040547142155 0.4557889594528579
0.12914893617021275 0.442247181377237 0.45592573535867337
0.12936170212765957 0.4429609693700452 0.45663952335148156
0.1295744680851064 0.44250169546359797 0.4561802494450343
0.12978723404255318 0.44178927778933247 0.45707347018121436
0.13 0.4409617045066145 0.45923935401405613
0.1302127659574468 0.43881992870349557 0.4535279518724059
0.13042553191489362 0.4407274704977974 0.4503656671883758
0.13063829787234044 0.44285007255556924 0.4494244274340494
0.13085106382978723 0.44214142116133043 0.45084173022252705
0.13106382978723405 0.44211040547142155 0.4503012446279892
0.13127659574468084 0.44264810835501495 0.4488513162650556
0.13148936170212766 0.44397377704645774 0.44619997888217006
0.13170212765957448 0.44456711179442115 0.44802907248300916
0.13191489361702127 0.4448758786414716 0.45009236757250004
0.1321276595744681 0.44350370576316744 0.4514645404508042
0.13234042553191488 0.4444831854323676 0.4490893203907605
0.1325531914893617 0.4457219404165867 0.4454253170813415
0.1327659574468085 0.44445248998591264 0.44288641621999314
0.13297872340425532 0.4451980306950763 0.4436218002493542
0.13319148936170214 0.44683055509735714 0.4457984994523955
0.13340425531914893 0.44733894556109516 0.44636190599099257
0.13361702127659575 0.44772090377771223 0.44674386420760953
0.13382978723404254 0.4479726428920372 0.44685858689530455
0.13404255319148936 0.4479726428920372 0.44645669079065003
0.13425531914893618 0.4479726428920372 0.44605479468599546
0.13446808510638297 0.44972477485542606 0.4460185637518319
0.1346808510638298 0.4516505120263502 0.4460185637518319
0.13489361702127659 0.4535762491972741 0.4460185637518319
0.1351063829787234 0.45452836298860727 0.44809901177969585
0.13531914893617022 0.45532943102026335 0.450502215874664
0.13553191489361702 0.45543279327452413 0.45170271808328066
0.13574468085106384 0.4545974191621098 0.4512850310270734
0.13595744680851063 0.4539200085839836 0.4509037616023448
0.13617021276595745 0.4548963756789494 0.4509037616023448
0.13638297872340424 0.4561637245010011 0.4509787146119735
0.13659574468085106 0.4605310407727036 0.451852177866314
0.13680851063829788 0.4648983570444061 0.45272564112065455
0.13702127659574467 0.4632999640304711 0.4528578407425501
0.1372340425531915 0.46063762496902955 0.4528578407425501
0.13744680851063829 0.45969711773326827 0.4526375969589471
0.1376595744680851 0.45969711773326827 0.45229705055982694
0.13787234042553193 0.45969711773326827 0.45195650416070676
0.13808510638297872 0.45977810521635626 0.4517188262062715
0.13829787234042554 0.45988224220677554 0.45151055222543296
0.13851063829787233 0.4599863791971948 0.4513022782445944
0.13872340425531915 0.4600905161876141 0.45109400426375584
0.13893617021276597 0.4601946531780334 0.4508857302829173
0.13914893617021276 0.4602987901684526 0.4506774563020787
0.13936170212765958 0.4604029271588719 0.45046918232124017
0.13957446808510637 0.46050706414929116 0.4502609083404016
0.1397872340425532 0.46061120113971044 0.45005263435956305
0.13999999999999999 0.4604150441431117 0.45027220624592107
0.1402127659574468 0.45975980560588153 0.4511458576288946
0.14042553191489363 0.45910456706865144 0.45201950901186805
0.14063829787234042 0.4584493285314214 0.4528931603948414
0.14085106382978724 0.4577940899941913 0.4537668117778149
0.14106382978723403 0.4574733442029891 0.45437426909280043
0.14127659574468085 0.4571808617135548 0.454959234071669
0.14148936170212767 0.4568883792241206 0.45554419905053756
0.14170212765957446 0.45634514617092464 0.455508390884834
0.14191489361702128 0.45562151046268173 0.4550259670793388
0.14212765957446807 0.45489787475443894 0.4545435432738436
0.1423404255319149 0.4541742390461961 0.4540611194683484
0.1425531914893617 0.4534506033379532 0.4535786956628531
0.1427659574468085 0.4527269676297104 0.4530962718573579
0.14297872340425533 0.45200333192146747 0.45261384805186267
0.14319148936170212 0.45127969621322467 0.45213142424636743
0.14340425531914894 0.45059368774710096 0.4521908750276914
0.14361702127659573 0.44994836187511306 0.4528362008996793
0.14382978723404255 0.4493030360031251 0.45348152677166725
0.14404255319148937 0.448872657836366 0.45352678180955763
0.14425531914893616 0.44870241573287184 0.45284581339558094
0.14446808510638298 0.44853217362937764 0.4521648449816042
0.14468085106382977 0.4483619315258835 0.4514838765676275
0.1448936170212766 0.4481916894223893 0.45080290815365076
0.1451063829787234 0.44802144731889515 0.45012193973967396
0.1453191489361702 0.4478018942737897 0.4500974706504898
0.14553191489361703 0.4475625237197378 0.45033684120454165
0.14574468085106382 0.44732315316568605 0.4505762117585934
0.14595744680851064 0.4470837826116342 0.4508155823126453
0.14617021276595746 0.44684441205758235 0.4510549528666971
0.14638297872340425 0.44660504150353053 0.45129432342074893
0.14659574468085107 0.4463656709494787 0.45153369397480075
0.14680851063829786 0.4461263003954269 0.4517730645288526
0.14702127659574468 0.4457199935893878 0.45203008625366964
0.14723404255319147 0.44517705670511865 0.4523015546958042
0.1474468085106383 0.4446341198208495 0.45257302313793873
0.14765957446808511 0.44409118293658034 0.45284449158007334
0.1478723404255319 0.443493584260847 0.4530481408594767
0.14808510638297873 0.4428931586396158 0.4532482827332204
0.14829787234042552 0.44229273301838473 0.4534484246069641
0.14851063829787234 0.44169230739715354 0.4536485664807078
0.14872340425531916 0.4412019000254774 0.45393768149889013
0.14893617021276595 0.44219383715033667 0.4554255871861792
0.14914893617021277 0.44303658137281055 0.4565625443481062
0.14936170212765956 0.4425234729164606 0.45451011052270635
0.14957446808510638 0.44191200170815703 0.4525602350976533
0.1497872340425532 0.4408943925559841 0.4510338213693938
0.15 0.44070169282885896 0.4506084301542953
0.15021276595744681 0.4426869690955167 0.45309002548761745
0.1504255319148936 0.44406448461162684 0.45451674304641554
0.15063829787234043 0.44406448461162684 0.45355253539212975
0.15085106382978725 0.44417041599561957 0.45254004659057184
0.15106382978723404 0.4445493953008529 0.45140310867487177
0.15127659574468086 0.44492837460608625 0.4502661707591716
0.15148936170212765 0.4445414982945584 0.45092677380658414
0.15170212765957447 0.4438286379850255 0.45235249442564995
0.15191489361702126 0.4431157776754926 0.45377821504471566
0.15212765957446808 0.445014644401974 0.4538348803126526
0.1523404255319149 0.44702161063820284 0.4538348803126526
0.1525531914893617 0.4483665270192062 0.45376923295812444
0.15276595744680851 0.44911516486721087 0.45364445998345704
0.1529787234042553 0.4498638027152155 0.4535196870087896
0.15319148936170213 0.45061244056322014 0.45339491403412213
0.15340425531914895 0.45136107841122486 0.45327014105945473
0.15361702127659574 0.45210971625922947 0.4531453680847873
0.15382978723404256 0.45285835410723413 0.45302059511011983
0.15404255319148935 0.45360699195523874 0.45289582213545243
0.15425531914893617 0.45435562980324345 0.452771049160785
0.154468085106383 0.4551042676512481 0.4526462761861175
0.15468085106382978 0.4558529054992527 0.4525215032114501
0.1548936170212766 0.45660154334725744 0.4523967302367827
0.1551063829787234 0.457350181195262 0.4522719572621152
0.15531914893617021 0.4580988190432667 0.4521471842874478
0.155531914893617 0.4588474568912713 0.45202241131278037
0.15574468085106383 0.459596094739276 0.4518976383381129
0.15595744680851065 0.4594596575567531 0.45093096046638714
0.15617021276595744 0.45918515539789795 0.44983295183096667
0.15638297872340426 0.45891065323904273 0.4487349431955461
0.15659574468085105 0.4582229102986325 0.4478483509259039
0.15680851063829787 0.45659681241359523 0.44744182645464453
0.1570212765957447 0.4549707145285579 0.44703530198338515
0.15723404255319148 0.4566468455396652 0.44846354384746245
0.1574468085106383 0.4586803507144096 0.4500903479872579
0.1576595744680851 0.45990277485559933 0.45069810448001374
0.15787234042553192 0.4603140949384176 0.4502867843971955
0.15808510638297874 0.46082549096925485 0.450128500253421
0.15829787234042553 0.4620398754283631 0.451747679532232
0.15851063829787235 0.46325425988747154 0.4533668588110432
0.15872340425531914 0.4631154897025914 0.4533450940015654
0.15893617021276596 0.46242657297747863 0.4526561772764527
0.15914893617021275 0.46173765625236596 0.45196726055134007
0.15936170212765957 0.46104873952725317 0.45127834382622734
0.1595744680851064 0.46035982280214044 0.4505894271011146
0.15978723404255318 0.45967090607702776 0.4499005103760019
0.16 0.458981989351915 0.4492115936508892
0.1602127659574468 0.45850508042225774 0.4493796779439553
0.16042553191489362 0.4581582101197452 0.4500734185489803
0.16063829787234044 0.4578113398172327 0.4507671591540053
0.16085106382978723 0.45805397654606295 0.45059282364934483
0.16106382978723405 0.4584411521165224 0.45020564807888536
0.16127659574468084 0.4582009035864241 0.45009978022448943
0.16148936170212766 0.4563439742824311 0.4507187566591538
0.16170212765957448 0.45448704497843817 0.45133773309381814
0.16191489361702127 0.4529155001212178 0.4518231417937798
0.1621276595744681 0.453385669658499 0.4513529722564985
0.16234042553191488 0.4538348803126526 0.4508958924703948
0.1625531914893617 0.4538348803126526 0.45071936464182666
0.1627659574468085 0.4538348803126526 0.45054283681325846
0.16297872340425532 0.4538348803126526 0.4503663089846903
0.16319148936170214 0.4538348803126526 0.4501897811561221
0.16340425531914893 0.4538348803126526 0.450013253327554
0.16361702127659575 0.4533609599939326 0.4501636821916023
0.16382978723404254 0.4524313672446257 0.4506284785662557
0.16404255319148936 0.45150177449531864 0.45109327494090923
0.16425531914893618 0.4505721817460116 0.45155807131556275
0.16446808510638297 0.4496425889967047 0.4520228676902162
0.1646808510638298 0.44871299624739763 0.45248766406486973
0.16489361702127658 0.44778340349809076 0.4529524604395232
0.1651063829787234 0.4468538107487837 0.4534172568141767
0.16531914893617022 0.4459510605426157 0.4535648674757878
0.16553191489361702 0.44528594852351755 0.45090441939939496
0.16574468085106384 0.44731219521692595 0.45128912465336024
0.16595744680851063 0.4491483217959486 0.4528578407425501
0.16617021276595745 0.4462835101537064 0.4528578407425501
0.16638297872340424 0.44342019348505324 0.4515586556091607
0.16659574468085106 0.4425030816495788 0.4512964377805021
0.16680851063829788 0.4430874450415241 0.4517430494908069
0.16702127659574467 0.4430874450415241 0.4510278961965605
0.1672340425531915 0.4438421203901146 0.4490170732308686
0.16744680851063828 0.4447553039519933 0.4467341143261721
0.1676595744680851 0.4450415241817294 0.4479446565853679
0.16787234042553192 0.4448299975610273 0.45013824865294433
0.16808510638297872 0.4441092429728786 0.450859003241093
0.16829787234042554 0.4427332621374925 0.4502381503652777
0.16851063829787233 0.44211040547142155 0.44952076841616034
0.16872340425531915 0.44211040547142155 0.44910292760507653
0.16893617021276597 0.44211040547142155 0.44983073770590365
0.16914893617021276 0.44021712883602104 0.44929562982044213
0.16936170212765958 0.44032048824821557 0.4493300829578403
0.16957446808510637 0.44211040547142155 0.4503166118805564
0.1697872340425532 0.44211040547142155 0.45250771343837043
0.17 0.44211040547142155 0.4510184175248293
0.1702127659574468 0.4410181024612704 0.45029082303562595
0.17042553191489362 0.43974481751255684 0.4507906554520562
0.17063829787234042 0.4433693128834845 0.4500657563778707
0.17085106382978724 0.44288820212960334 0.4487504395502189
0.17106382978723403 0.44211040547142155 0.44828700674325855
0.17127659574468085 0.44211040547142155 0.4488837647281662
0.17148936170212767 0.44211040547142155 0.4453283877140395
0.17170212765957446 0.442576736506051 0.4463961397847741
0.17191489361702128 0.44351457327751076 0.44894968246213973
0.17212765957446807 0.44496661453194475 0.44894968246213973
0.1723404255319149 0.44435161629141984 0.45032949824275875
0.1725531914893617 0.44406448461162684 0.4513431247114433
0.1727659574468085 0.44452758463946024 0.45172643449650307
0.17297872340425532 0.44631370129602055 0.4511310622776495
0.17319148936170212 0.44784045173467585 0.4513261858087156
0.17340425531914894 0.4486767854131266 0.451744352647941
0.17361702127659576 0.4472276441713331 0.4510197820270441
0.17382978723404255 0.44699560332193444 0.44968689872520173
0.17404255319148937 0.4484341120187753 0.4493093096363499
0.17425531914893616 0.45135586608372263 0.44992672203224227
0.17446808510638298 0.45424018451691656 0.44992672203224227
0.17468085106382977 0.4501432723396234 0.4487595601464594
0.1748936170212766 0.44866956036140004 0.44897701711571647
0.1751063829787234 0.4519638455487796 0.4507376728496807
0.1753191489361702 0.45266374777127716 0.4493378684046856
0.17553191489361702 0.4544282419279126 0.44894968246213973
0.17574468085106382 0.4557889594528579 0.44949472629931997
0.17595744680851064 0.45583832884328546 0.45080502282148965
0.17617021276595746 0.4573060401653595 0.44786960017734145
0.17638297872340425 0.4597757538232625 0.45106103378233353
0.17659574468085107 0.45959831161976883 0.4537854772559029
0.17680851063829786 0.45385998423709945 0.4509037616023448
0.17702127659574468 0.4560324315502879 0.4509037616023448
0.1772340425531915 0.4553085011904801 0.4494462637698646
0.1774468085106383 0.45503343595976203 0.44893148740972477
0.1776595744680851 0.4586616636594737 0.45183406956949407
0.1778723404255319 0.4587200781631655 0.45116387046985
0.17808510638297873 0.45918630110098646 0.45136998454016575
0.17829787234042552 0.4594809130186216 0.45209700588709417
0.17851063829787234 0.4587491626764263 0.45282875622928936
0.17872340425531916 0.458024442474296 0.4521622050536806
0.17893617021276595 0.45818963723861666 0.45232739981800124
0.17914893617021277 0.45812881356299645 0.452266576142381
0.17936170212765956 0.45596807059325967 0.450105833172644
0.17957446808510638 0.45770043677451266 0.44992672203224227
0.1797872340425532 0.4576019805658532 0.4506721204304506
0.18 0.4556626000408617 0.45188080117244755
0.1802127659574468 0.4549268717620933 0.45188080117244755
0.1804255319148936 0.4568894168536862 0.45084205268698196
0.18063829787234043 0.4589007928078069 0.4501074366768836
0.18085106382978725 0.45960535392684015 0.4508119977959167
0.18106382978723404 0.4586972015268215 0.4509037616023448
0.18127659574468086 0.4575049411611231 0.450546615454435
0.18148936170212765 0.45610469827081945 0.44844625111897946
0.18170212765957447 0.4563191111757581 0.44850279461493736
0.18191489361702126 0.4569973870102652 0.4491810704494445
0.18212765957446808 0.45766395991283637 0.44984764335201566
0.1823404255319149 0.4559537799971014 0.4505231415642294
0.1825531914893617 0.4535931448869628 0.4502943741044486
0.1827659574468085 0.45092353172172667 0.4490089928202854
0.1829787234042553 0.4514961870584292 0.45072695883039277
0.18319148936170213 0.4519991563337156 0.4514073805273752
0.18340425531914895 0.45235959174122337 0.44996563889734426
0.18361702127659574 0.452720027148731 0.4485238972673135
0.18382978723404256 0.4520573138568618 0.44877316977772547
0.18404255319148935 0.4507612223845884 0.4500692612499989
0.18425531914893617 0.44946513091231477 0.4513653527222725
0.184468085106383 0.4493588279481527 0.45208537391545406
0.18468085106382978 0.4500381268854762 0.4524250233841158
0.1848936170212766 0.4507174258227997 0.45276467285277755
0.1851063829787234 0.45035352901538445 0.4528578407425501
0.1853191489361702 0.4495953133035098 0.4528578407425501
0.185531914893617 0.4488782989711219 0.45300060772458567
0.18574468085106383 0.4483975586707988 0.453962088325232
0.18595744680851065 0.44820113683362 0.45486904336815087
0.18617021276595744 0.4501688428349573 0.4553609698684853
0.18638297872340426 0.45129565116204007 0.4556589261172118
0.18659574468085105 0.4467935447895293 0.4546584580344316
0.18680851063829787 0.4432015598559671 0.45394899512709563
0.1870212765957447 0.4438469778933113 0.4545944131644398
0.18723404255319148 0.4444923959306554 0.45523983120178396
0.1874468085106383 0.4449554133187528 0.45564544134789703
0.1876595744680851 0.4443782232934233 0.45468345797234777
0.18787234042553191 0.44380103326809367 0.4537214745967984
0.18808510638297873 0.4432238432427641 0.45275949122124903
0.18829787234042553 0.4426466532174345 0.4517975078456998
0.18851063829787235 0.4421400916067147 0.4509037616023448
0.18872340425531914 0.4425585964253957 0.4509037616023448
0.18893617021276596 0.4429771012440767 0.4509037616023448
0.18914893617021278 0.4433956060627577 0.4509037616023448
0.18936170212765957 0.44381411088143863 0.4509037616023448
0.1895744680851064 0.44406448461162684 0.45110836472739
0.18978723404255318 0.44406448461162684 0.45161765420214567
0.19 0.44406448461162684 0.4521269436769014
0.1902127659574468 0.44406448461162684 0.45263623315165713
0.19042553191489361 0.44419302795590077 0.45260075405400224
0.19063829787234043 0.44442059102455694 0.45214562791668983
0.19085106382978723 0.4446481540932131 0.4516905017793774
0.19106382978723405 0.4448757171618693 0.451235375642065
0.19127659574468084 0.4451032802305255 0.4507802495047526
0.19148936170212766 0.4453308432991817 0.4503251233674402
0.19170212765957448 0.4455584063678379 0.44986999723012777
0.19191489361702127 0.44578596943649407 0.44941487109281536
0.1921276595744681 0.44601353250515025 0.44895974495550295
0.19234042553191488 0.4462410955738064 0.44850461881819054
0.1925531914893617 0.44646865864246266 0.4480494926808781
0.19276595744680852 0.44669622171111883 0.4475943665435657
0.19297872340425531 0.446923784779775 0.4471392404062533
0.19319148936170213 0.4473643988083779 0.4471800010651562
0.19340425531914893 0.4479032571200591 0.4474494302209968
0.19361702127659575 0.4484421154317403 0.4477188593768374
0.19382978723404254 0.449026562700477 0.4479957069635384
0.19404255319148936 0.45035049555765716 0.4483928868206924
0.19425531914893618 0.45167442841483724 0.44879006667784643
0.19446808510638297 0.45299836127201715 0.44918724653500036
0.1946808510638298 0.4543222941291973 0.4495844263921544
0.19489361702127658 0.4556462269863772 0.44998160624930833
0.1951063829787234 0.45697015984355727 0.45037878610646237
0.19531914893617022 0.4582940927007374 0.45077596596361635
0.19553191489361701 0.4589313316655059 0.4511150151046852
0.19574468085106383 0.4592428036454655 0.4514264870846448
0.19595744680851063 0.45955427562542506 0.45173795906460434
0.19617021276595745 0.4591392332755179 0.4507650322569469
0.19638297872340427 0.4581087789766243 0.44870412365915974
0.19659574468085106 0.45708102866967554 0.44896565777711833
0.19680851063829788 0.4560547661592482 0.4505050515427593
0.19702127659574467 0.4557889594528579 0.45283571723717725
0.1972340425531915 0.4557889594528579 0.45544296098403564
0.19744680851063828 0.4566177336452102 0.45537457235668166
0.1976595744680851 0.45757332052981614 0.4548967789143786
0.19787234042553192 0.4573231156505073 0.4543919969401995
0.19808510638297872 0.4568125051700491 0.4538813864597413
0.19829787234042554 0.458201000204037 0.4519215454045506
0.19851063829787233 0.4596423854726014 0.4499540881625757
0.19872340425531915 0.4585972543617827 0.450476653717985
0.19893617021276597 0.4580272419057236 0.4506195582896842
0.19914893617021276 0.45958306094359513 0.44906373925181275
0.19936170212765958 0.4598953001366439 0.4482841857587279
0.19957446808510637 0.457287807830177 0.44932718268131466
0.1997872340425532 0.4568950838011825 0.4501479469019072
0.2 0.45949665014040225 0.4506682601697511
0.2002127659574468 0.4601459575182657 0.45169606128000245
0.20042553191489362 0.45918100690088315 0.4531434872060762
0.20063829787234042 0.45816591162928877 0.4539272414016321
0.20085106382978724 0.45710495899891346 0.45410406684002796
0.20106382978723403 0.4560440063685383 0.45428089227842383
0.20127659574468085 0.454983053738163 0.4544577177168197
0.20148936170212767 0.45392210110778763 0.45463454315521556
0.20170212765957446 0.4528611484774125 0.45481136859361143
0.20191489361702128 0.45385519206434743 0.45531059554365394
0.20212765957446807 0.4547664004258172 0.4557206802674509
0.2023404255319149 0.45372529181486615 0.4541590173510243
0.2025531914893617 0.4525949895015168 0.4525949895015168
0.2027659574468085 0.45101914838001944 0.45101914838001944
0.20297872340425532 0.4500482823551243 0.4500482823551243
0.20319148936170212 0.4504445461144334 0.4504445461144334
0.20340425531914894 0.4508408098737426 0.4508408098737426
0.20361702127659576 0.450464886556906 0.4522203867386614
0.20382978723404255 0.44994312238594675 0.4537856792515391
0.20404255319148937 0.4494515690604078 0.4543100332844871
0.20425531914893616 0.4489609961543878 0.4548006061905071
0.20446808510638298 0.44894968246213973 0.45532590305157045
0.20468085106382977 0.44882281882646846 0.45566209581718664
0.2048936170212766 0.4477643843783529 0.4546036613690711
0.2051063829787234 0.44743257637293027 0.4538348803126526
0.2053191489361702 0.44902933768603737 0.4538348803126526
0.20553191489361702 0.44853391281615834 0.4536027454433053
0.20574468085106382 0.44535396269193267 0.45307275375593437
0.20595744680851064 0.444380025857573 0.4525422994966039
0.20617021276595746 0.44491079563408037 0.45201152972009656
0.20638297872340425 0.4450415241817294 0.44987804338096077
0.20659574468085107 0.4450415241817294 0.4472208090043451
0.20680851063829786 0.44227265376373054 0.44838003853093383
0.20702127659574468 0.43924738614389 0.4498926723408541
0.2072340425531915 0.44053187324854315 0.44992672203224227
0.2074468085106383 0.44191560788094125 0.44992672203224227
0.2076595744680851 0.44298618871129813 0.45080250527211885
0.2078723404255319 0.4440054618576172 0.4518217784184379
0.20808510638297872 0.44309405889455117 0.45236601403098536
0.20829787234042554 0.4420684680650044 0.4528159033361329
0.20851063829787234 0.44113787398426874 0.45188530925539716
0.20872340425531916 0.440207279903533 0.4509547151746613
0.20893617021276595 0.4410813646823954 0.45136628077793434
0.20914893617021277 0.4420599862963632 0.4518555915849184
0.20936170212765956 0.44211040547142155 0.44951680949507977
0.20957446808510638 0.44211040547142155 0.44702440777996433
0.2097872340425532 0.4411365585035343 0.44845637377376546
0.21 0.44015945360015624 0.449929849301182
0.2102127659574468 0.440775542623226 0.45054593832425177
0.2104255319148936 0.44143611121746995 0.4509037616023448
0.21063829787234042 0.44201365334054926 0.4508070094714725
0.21085106382978724 0.4405549126356103 0.44934826876653355
0.21106382978723404 0.4396744050794482 0.44991352496567605
0.21127659574468086 0.438996668665363 0.4507211435065941
0.21148936170212765 0.43827582159886375 0.4500002964400948
0.21170212765957447 0.44080992895570326 0.45123056291458835
0.2119148936170213 0.44292767389296744 0.45188080117244755
0.21212765957446808 0.444407718391093 0.45188080117244755
0.2123404255319149 0.44588776288921883 0.45188080117244755
0.2125531914893617 0.44487244840476814 0.4530269165195113
0.2127659574468085 0.44459829476936197 0.4533010701549175
0.2129787234042553 0.4460921256619194 0.45180723926236005
0.21319148936170212 0.4475859565544771 0.4503134083698024
0.21340425531914894 0.44501970220916653 0.4506649572029599
0.21361702127659574 0.4465316208695714 0.4496701934733726
0.21382978723404256 0.4502236438916531 0.45176343371165956
0.21404255319148935 0.45013847961788667 0.45035023720353096
0.21425531914893617 0.44967755951781035 0.44651688878069584
0.214468085106383 0.4508968909075401 0.4440782260012362
0.21468085106382978 0.44895503334059284 0.4440751863685331
0.2148936170212766 0.45117533772089086 0.44779159214633985
0.2151063829787234 0.453702901287582 0.4462825218019732
0.2153191489361702 0.45287424539706456 0.4479398335830082
0.21553191489361703 0.4539661236791035 0.4470612250051599
0.21574468085106382 0.45574073268459475 0.4477315090507215
0.21595744680851064 0.454572586652328 0.44356611150237835
0.21617021276595744 0.4532826753483194 0.44763285523058843
0.21638297872340426 0.45545136588198293 0.4496069990326284
0.21659574468085105 0.45549222626300584 0.44937427338212454
0.21680851063829787 0.4543012608931673 0.45132586377378636
0.2170212765957447 0.45554663806864126 0.451755763463721
0.21723404255319148 0.4569976723498239 0.4503900686859693
0.2174468085106383 0.45910514247341006 0.4513359596203087
0.2176595744680851 0.46149458625273665 0.4493598969368227
0.2178723404255319 0.4594529213357634 0.4498047508235318
0.21808510638297873 0.4597526939461861 0.4523971090639578
0.21829787234042553 0.459279063804975 0.4529987724560663
0.21851063829787234 0.4569252188304399 0.45314190558694556
0.21872340425531914 0.456618451590239 0.452028348605169
0.21893617021276596 0.45676599902296044 0.45381531460517643
0.21914893617021278 0.45700329109467314 0.4565287069512477
0.21936170212765957 0.45854553392797126 0.4544628314123667
0.2195744680851064 0.4579656926295304 0.4530804947790175
0.21978723404255318 0.4595815257135894 0.4538348803126526
0.22 0.45961834445002503 0.4538348803126526
0.2202127659574468 0.4562112421000027 0.45341259766550784
0.2204255319148936 0.4583531290219502 0.4539159274085432
0.22063829787234043 0.4557057468588024 0.4554771483618329
0.22085106382978723 0.4570603677105314 0.4557889594528579
0.22106382978723405 0.45584209690775107 0.4519870760822339
0.22127659574468084 0.4519557738331287 0.45575147312251735
0.22148936170212766 0.45546762001535934 0.4543168894689004
0.22170212765957448 0.4538348803126526 0.45616388643075534
0.22191489361702127 0.45472232329533024 0.4530370339174
0.2221276595744681 0.45403422644759855 0.45265849460760416
0.22234042553191488 0.4543087541642218 0.4531094236018168
0.2225531914893617 0.45133037874567405 0.45808015244817163
0.22276595744680852 0.45476322392178914 0.4528821887230331
0.2229787234042553 0.4523635944383078 0.4538348803126526
0.22319148936170213 0.44992672203224227 0.45353750993149133
0.22340425531914893 0.45074895561691253 0.45326895753488516
0.22361702127659575 0.4502656048305481 0.4522196839707532
0.22382978723404254 0.4496222960912555 0.4529216024896922
0.22404255319148936 0.45154344751257713 0.4514097920921504
0.22425531914893618 0.44903651781999687 0.45279995050397864
0.22446808510638297 0.4507900995383945 0.45188080117244755
0.2246808510638298 0.4494180814786967 0.45188080117244755
0.22489361702127658 0.4487622410088274 0.4506964039972622
0.2251063829787234 0.4483276098050781 0.44681753282592085
0.22531914893617022 0.4488682019000869 0.44941092086408513
0.225531914893617 0.44772997360425343 0.4496840527444587
0.22574468085106383 0.449605934525286 0.4480795720610226
0.22595744680851063 0.4489814546733755 0.4470273755331703
0.22617021276595745 0.4495825689160264 0.4483167960082531
0.22638297872340427 0.447341343957294 0.44897977363012753
0.22659574468085106 0.4460185637518319 0.44699560332193444
0.22680851063829788 0.4460185637518319 0.44806243887525504
0.22702127659574467 0.4450427137830279 0.44992553243094374
0.2272340425531915 0.44283440903178517 0.45049373640906426
0.22744680851063828 0.4423769578481063 0.44992672203224227
0.2276595744680851 0.4448368300903111 0.4472235128568472
0.22787234042553192 0.4448651187342972 0.4448176125678262
0.22808510638297871 0.44362881767424284 0.44857007941143445
0.22829787234042553 0.4452208244310191 0.4483715125524436
0.22851063829787233 0.44257098019392344 0.4522353921810871
0.22872340425531915 0.4393800555650499 0.45969711773326827
0.22893617021276597 0.43971529188959524 0.4579329799667833
0.22914893617021276 0.4382022471910112 0.4524817887975774
0.22936170212765958 0.43900898984036446 0.4538348803126526
0.22957446808510637 0.44066453389732774 0.4543430878787639
0.2297872340425532 0.4405312770479663 0.45420983102940243
0.23 0.4401563263312165 0.4504500968602196
0.2302127659574468 0.4394468553850741 0.4539159790851357
0.23042553191489362 0.44143365897247655 0.4535345872414951
0.23063829787234041 0.4429200054143592 0.4528578407425501
0.23085106382978723 0.44236570023947175 0.4535795855446024
0.23106382978723405 0.4399978669699627 0.4538348803126526
0.23127659574468085 0.44190999126976704 0.4538348803126526
0.23148936170212767 0.4430874450415241 0.45175630431857977
0.23170212765957446 0.44859136316022397 0.44845757577181156
0.23191489361702128 0.44723816544810024 0.44854314856338356
0.23212765957446807 0.44628860748749616 0.4508413398739486
0.2323404255319149 0.44992672203224227 0.4506772262319533
0.2325531914893617 0.44992672203224227 0.44918036383942905
0.2327659574468085 0.44992672203224227 0.4498145159192343
0.23297872340425532 0.4479247728897399 0.44992672203224227
0.23319148936170211 0.4467348813714567 0.45010580143714846
0.23340425531914893 0.4498107739103464 0.4508844369153622
0.23361702127659575 0.446606619081849 0.45035041111061264
0.23382978723404255 0.4443226909107146 0.449952542662151
0.23404255319148937 0.4455724001524763 0.4500775135863272
0.23425531914893616 0.4468221093942379 0.4502024845105034
0.23446808510638298 0.4480718186359996 0.4503274554346795
0.2346808510638298 0.4493215278777613 0.4504524263588557
0.2348936170212766 0.4505712371195229 0.45057739728303187
0.2351063829787234 0.4518209463612846 0.450702368207208
0.2353191489361702 0.4530706556030462 0.4508273391313842
0.23553191489361702 0.4542099365074525 0.4507162335049449
0.23574468085106381 0.45517538681900105 0.4502335083491707
0.23595744680851063 0.4557889594528579 0.449231369566187
0.23617021276595745 0.4562922425690903 0.4482242844501534
0.23638297872340425 0.457743038593063 0.44893064355886636
0.23659574468085107 0.45764901329312613 0.44803532642532845
0.23680851063829786 0.4548232666713238 0.44991915750652983
0.23702127659574468 0.4557741950625313 0.44896444685246634
0.2372340425531915 0.4577069297381875 0.4508676527474693
0.2374468085106383 0.4644706316856431 0.4489975469899132
0.2376595744680851 0.4584903937282527 0.4515605061145091
0.2378723404255319 0.45911303331696596 0.4505108064485446
0.23808510638297872 0.45969711773326827 0.4482693205704582
0.23829787234042554 0.45969711773326827 0.44849615149863575
0.23851063829787233 0.4592513898376191 0.4517096336148387
0.23872340425531915 0.4594955810345355 0.45150837169854274
0.23893617021276595 0.4606741573033708 0.4488039246050671
0.23914893617021277 0.4599944818264637 0.44992672203224227
0.23936170212765956 0.4587200781631655 0.45006252828836724
0.23957446808510638 0.45951026388504457 0.4511013080328146
0.2397872340425532 0.46163843496362583 0.45163335080246003
0.24 0.4590673134615303 0.4491675851105212
0.2402127659574468 0.45969711773326827 0.4469379936493167
0.2404255319148936 0.45805463393437784 0.44961512669092746
0.24063829787234042 0.45787571477555983 0.45145861947864463
0.24085106382978724 0.4597599455378494 0.4503210001104218
0.24106382978723404 0.4585944344963456 0.44998954386565226
0.24127659574468086 0.45842168843251524 0.454767036891306
0.24148936170212765 0.4591182759039984 0.455427671275984
0.24170212765957447 0.4581005740211745 0.4519763678866794
0.2419148936170213 0.457743038593063 0.4515602397799955
0.24212765957446808 0.45576203575421803 0.4532014697316774
0.2423404255319149 0.45692881231390564 0.45171798788150214
0.2425531914893617 0.45630269736986795 0.4530642734371375
0.2427659574468085 0.45730779613400896 0.4507972069503503
0.2429787234042553 0.4536213616473737 0.4523997281996559
0.24319148936170212 0.4525544908301723 0.4522511409177944
0.24340425531914894 0.45219920044458983 0.45154056014662947
0.24361702127659574 0.45176729314354525 0.4507902535734425
0.24382978723404256 0.4506741217102434 0.4496970821401408
0.24404255319148935 0.4490877719140007 0.44894968246213973
0.24425531914893617 0.44757772779696287 0.4497258484288443
0.244468085106383 0.44970924929114714 0.45242289526035984
0.24468085106382978 0.44823711541617095 0.4494786275104073
0.2448936170212766 0.44655477756756035 0.45462114376004686
0.2451063829787234 0.44672991298219444 0.45320925287114766
0.2453191489361702 0.44621088381621726 0.4510960816667302
0.24553191489361703 0.4451545769772938 0.4474478145041922
0.24574468085106382 0.44690232241396766 0.4479260024380538
0.24595744680851064 0.44469644441320955 0.4495054154978538
0.24617021276595744 0.44406448461162684 0.44931469285193903
0.24638297872340426 0.44316879790140873 0.44894968246213973
0.24659574468085105 0.44239977400331004 0.4492390509940282
0.24680851063829787 0.4434822352864886 0.44933453666479545
0.2470212765957447 0.44484996033702495 0.4473787310113433
0.24723404255319148 0.4439760817409233 0.44894968246213973
0.2474468085106383 0.4430874450415241 0.44878599734916635
0.2476595744680851 0.44364987980965365 0.4482538602761019
0.2478723404255319 0.4450415241817294 0.4505835276002348
0.24808510638297873 0.44343118445209395 0.4507107211030362
0.24829787234042552 0.4394422661390573 0.44894968246213973
0.24851063829787234 0.4413896182050865 0.44894968246213973
0.24872340425531914 0.445806280104408 0.44802571380389317
0.24893617021276596 0.44030882298455276 0.4498504737055741
0.24914893617021278 0.4419193117458594 0.44894968246213973
0.24936170212765957 0.44210654868016114 0.44862528820252573
0.2495744680851064 0.4426965373356594 0.44888460774268213
0.24978723404255318 0.4405474810331089 0.44758318255940177
0.25 0.44229992378528726 0.4474476287212126
0.2502127659574468 0.44165753015709275 0.44868760033425287
0.25042553191489364 0.441133365901319 0.4497438012301829
0.25063829787234043 0.44390723090737066 0.45085134370092605
0.2508510638297872 0.4458452486391759 0.4519963445808849
0.251063829787234 0.44326783703574324 0.4540152723068717
0.25127659574468086 0.4443408435361942 0.45370648418448567
0.25148936170212766 0.44540759746608044 0.45053768831799373
0.25170212765957445 0.445541962072999 0.44945012035340937
0.2519148936170213 0.4473866277228703 0.44953595834742494
0.2521276595744681 0.4475671970983701 0.4464705086228185
0.2523404255319149 0.4461933558084615 0.4490527617490945
0.2525531914893617 0.44967468257937915 0.44992672203224227
0.2527659574468085 0.44992672203224227 0.4554276422563307
0.2529787234042553 0.4495982200134919 0.44944243549026525
0.2531914893617021 0.44852973020370046 0.45188080117244755
0.25340425531914895 0.44874732935305006 0.4542395865308319
0.25361702127659574 0.4485187187837679 0.4536813973615072
0.25382978723404254 0.44992672203224227 0.44992672203224227
0.2540425531914894 0.44992672203224227 0.45287640133094165
0.2542553191489362 0.4482251243854538 0.4495808861956814
0.25446808510638297 0.4524720614733473 0.4507494498946637
0.25468085106382976 0.4528860402457294 0.44618776077090777
0.2548936170212766 0.45369811756521194 0.45188080117244755
0.2551063829787234 0.4524001864580429 0.45165197403019397
0.2553191489361702 0.4511847747988964 0.4511847747988964
0.25553191489361704 0.45426221341854656 0.45188080117244755
0.25574468085106383 0.4551763878795262 0.4513674710297401
0.2559574468085106 0.4522256087294337 0.4502715295892284
0.2561702127659574 0.45485823665229974 0.45364851638205744
0.25638297872340426 0.4575156303304554 0.4530852490051577
0.25659574468085106 0.4577362396560236 0.4509037616023448
0.25680851063829785 0.4557889594528579 0.45078230360842214
0.2570212765957447 0.45554825783459213 0.44992672203224227
0.2572340425531915 0.4562230665995947 0.4506322953906621
0.2574468085106383 0.45829554944875645 0.45188080117244755
0.25765957446808513 0.457743038593063 0.45091550409943015
0.2578723404255319 0.45832964404723664 0.44992672203224227
0.2580851063829787 0.45595199172803785 0.4513107652498062
0.2582978723404255 0.4580207052347896 0.45188080117244755
0.25851063829787235 0.46144831363376415 0.45188080117244755
0.25872340425531914 0.4550236150945849 0.4537643152420427
0.25893617021276594 0.4606741573033708 0.45188080117244755
0.2591489361702128 0.4609250906276429 0.4521317344967197
0.2593617021276596 0.4612945639822378 0.45178794206884343
0.25957446808510637 0.4597406996321847 0.45132690853902135
0.2597872340425532 0.4570034945345722 0.4528578407425501
0.26 0.4571418969968886 0.4501519656544885
0.2602127659574468 0.4553973781855287 0.451295342869674
0.2604255319148936 0.45570217072589636 0.45188080117244755
0.26063829787234044 0.45779842562789325 0.45084837456751453
0.26085106382978723 0.45941331046813866 0.4490915860947045
0.261063829787234 0.4574911700123403 0.4504304591936877
0.2612765957446809 0.4571260348866583 0.45152076530874957
0.26148936170212767 0.45868573028673304 0.45043241575550985
0.26170212765957446 0.457941836594311 0.45343728431015684
0.26191489361702125 0.45606950577879957 0.4530029864762142
0.2621276595744681 0.4549826813208406 0.4510745230404302
0.2623404255319149 0.45572538182252975 0.4536441474216682
0.2625531914893617 0.454813583027835 0.4518841274626072
0.26276595744680853 0.4546053758621395 0.44920786248790934
0.2629787234042553 0.451058335760263 0.4536803061547345
0.2631914893617021 0.45188080117244755 0.45405706775998783
0.26340425531914896 0.45188080117244755 0.4568768432829983
0.26361702127659575 0.45337638759046717 0.45369023006924053
0.26382978723404255 0.45483268369348423 0.45188080117244755
0.26404255319148934 0.45205295944990287 0.4512868275515309
0.2642553191489362 0.4495034664693339 0.4551046470013777
0.264468085106383 0.44745441563584065 0.45601836560981096
0.26468085106382977 0.44862523853758807 0.4525296890215509
0.2648936170212766 0.44534587232129397 0.45097984863723595
0.2651063829787234 0.44117743318130087 0.4557338753528806
0.2653191489361702 0.44674837333866024 0.4501245060188616
0.265531914893617 0.442040995913176 0.453626651637916
0.26574468085106384 0.441133365901319 0.4506269501576402
0.26595744680851063 0.4412433463458654 0.449023002758504
0.2661702127659574 0.4418372602626344 0.4494189453696833
0.2663829787234043 0.4424311741794036 0.4498148879808627
0.26659574468085107 0.44302508809617264 0.45021083059204203
0.26680851063829786 0.4436190020129417 0.4506067732032214
0.2670212765957447 0.443884802991311 0.450724079982029
0.2672340425531915 0.4431658481489593 0.45000512513967733
0.2674468085106383 0.4424468933066076 0.4492861702973257
0.2676595744680851 0.44261977484767945 0.44844031308588184
0.26787234042553193 0.4446251447555186 0.4484852094633687
0.2680851063829787 0.4424526635799811 0.44894968246213973
0.2682978723404255 0.44124808045517105 0.4484324840386254
0.26851063829787236 0.4432025905683254 0.4482029339456398
0.26872340425531915 0.4434124373825978 0.4486226275741845
0.26893617021276595 0.44362228419687016 0.44904232120272913
0.26914893617021274 0.44383213101114255 0.44946201483127385
0.2693617021276596 0.444041977825415 0.4498817084598186
0.2695744680851064 0.4427320690086758 0.44926051423076685
0.26978723404255317 0.44230368977472045 0.4488530403104903
0.27 0.442634955376474 0.4486874075096135
0.2702127659574468 0.44296622097822747 0.4485217747087368
0.2704255319148936 0.4432974865799809 0.44835614190786005
0.27063829787234045 0.4436287521817344 0.44819050910698327
0.27085106382978724 0.44396001778348787 0.4480248763061065
0.27106382978723403 0.4442912833852413 0.44785924350522976
0.2712765957446808 0.44462254898699477 0.44769361070435304
0.2714893617021277 0.44495381458874833 0.44752797790347626
0.27170212765957447 0.4452850801905018 0.44736234510259953
0.27191489361702126 0.44561634579225523 0.4471967123017228
0.2721276595744681 0.44594761139400874 0.44703107950084603
0.2723404255319149 0.4460185637518319 0.4490282941303673
0.2725531914893617 0.446708946302813 0.4506736340853511
0.2727659574468085 0.44871866516353714 0.44992672203224227
0.27297872340425533 0.448063421935542 0.4501402857549638
0.2731914893617021 0.4512426583262902 0.45058469017926617
0.2734042553191489 0.4503599108983166 0.4507930997643911
0.27361702127659576 0.4509037616023448 0.4508033516338176
0.27382978723404255 0.45154931552059346 0.44992672203224227
0.27404255319148935 0.45188080117244755 0.4506782525107028
0.2742553191489362 0.45705813304383286 0.4491779843118831
0.274468085106383 0.45188620156381604 0.4528524403511816
0.2746808510638298 0.45272794399497857 0.451750904424876
0.27489361702127657 0.4534056649932183 0.45064961763221634
0.2751063829787234 0.4566746589315139 0.44957059547839257
0.2753191489361702 0.4543802014077831 0.450244837887056
0.275531914893617 0.4552202916682537 0.4514189973872471
0.27574468085106385 0.4557906092967542 0.451391456465448
0.27595744680851064 0.4560084483035475 0.45068427275165523
0.27617021276595743 0.4560552985956157 0.4513481228869319
0.2763829787234042 0.45661602153237707 0.45188080117244755
0.2765957446808511 0.4586652969586894 0.45093115220458285
0.27680851063829787 0.4539325554044149 0.44699560332193444
0.27702127659574466 0.4554830710124989 0.4474430374084303
0.2772340425531915 0.4573955630191608 0.44894968246213973
0.2774468085106383 0.45723665010637604 0.44894968246213973
0.2776595744680851 0.457743038593063 0.45072670321347463
0.27787234042553194 0.457743038593063 0.4511680795775037
0.27808510638297873 0.45523336564908945 0.44923064630636256
0.2782978723404255 0.45767857867013245 0.4508607883203911
0.2785106382978723 0.4594043715047579 0.4525650945140397
0.27872340425531916 0.45676599902296044 0.45013915614390027
0.27893617021276595 0.45642931973165113 0.4509037616023448
0.27914893617021275 0.4565278730583189 0.45127321840507534
0.2793617021276596 0.45637198403987506 0.45119527389585357
0.2795744680851064 0.45597227888790065 0.4512091611773911
0.2797872340425532 0.4567118100206521 0.45084957260003666
0.27999999999999997 0.45543060612953473 0.45018705495569866
0.2802127659574468 0.4550474074133522 0.4512745376220977
0.2804255319148936 0.45394500402045534 0.4518257393185462
0.2806382978723404 0.4538539671714486 0.4509610221787328
0.28085106382978725 0.4557889594528579 0.4565162424984221
0.28106382978723404 0.45619711027090104 0.45419969365569046
0.28127659574468084 0.45741079575884014 0.4522130440066704
0.2814893617021277 0.45676599902296044 0.4523973226452602
0.2817021276595745 0.45617335309683116 0.45247344709857684
0.28191489361702127 0.45362560225009074 0.4521367216749611
0.28212765957446806 0.4561976624024282 0.45271575658741703
0.2823404255319149 0.4538672840901101 0.45479031736445014
0.2825531914893617 0.45359261824382946 0.45297897177696167
0.2827659574468085 0.45162811226404154 0.4533295024958407
0.28297872340425534 0.4520483337355903 0.45455146948335357
0.28319148936170213 0.4529408895424136 0.45648510123756797
0.2834042553191489 0.4504431676613116 0.453355669142274
0.2836170212765957 0.4490902922984301 0.4527172309062597
0.28382978723404256 0.4493564570081699 0.4524510661965199
0.28404255319148936 0.4496226217179097 0.45218490148678014
0.28425531914893615 0.4498887864276494 0.4519187367770404
0.284468085106383 0.44992672203224227 0.45251378548260324
0.2846808510638298 0.44992672203224227 0.45399033298801167
0.2848936170212766 0.44728558182748085 0.45679277503632626
0.2851063829787234 0.4467836671850195 0.45238731456074965
0.2853191489361702 0.44699560332193444 0.4491591568544144
0.285531914893617 0.4479725356073419 0.45188047931836167
0.2857446808510638 0.44699560332193444 0.4506868965832056
0.28595744680851065 0.44635036544511353 0.4495949203389607
0.28617021276595744 0.44503696790386665 0.45220496226986084
0.28638297872340424 0.44774671274799 0.45248228602952234
0.2865957446808511 0.4474546172611368 0.4515817881322469
0.2868085106382979 0.4446068687204805 0.4505421721964424
0.28702127659574467 0.44699560332193444 0.4493433431725335
0.28723404255319146 0.4464053818337948 0.4510513169743797
0.2874468085106383 0.4434354561220477 0.4524028177932329
0.2876595744680851 0.4448013951791048 0.45361127486963215
0.2878723404255319 0.44406448461162684 0.45022331894600753
0.28808510638297874 0.44406448461162684 0.45230112584611754
0.28829787234042553 0.4436657988859012 0.45401454843130395
0.2885106382978723 0.4426766301748953 0.4549119150756943
0.28872340425531917 0.440868414227415 0.4548450590237144
0.28893617021276596 0.44183693844518096 0.4522325874443784
0.28914893617021276 0.4436647984585369 0.45199924601506264
0.28936170212765955 0.44259057767375926 0.4513672386392555
0.2895744680851064 0.44193152795077184 0.4528578407425501
0.2897872340425532 0.441133365901319 0.4528578407425501
0.29 0.441133365901319 0.4505669823242258
0.2902127659574468 0.4428629879729967 0.4533859661755979
0.2904255319148936 0.4401867468909753 0.4528679809291364
0.2906382978723404 0.44406448461162684 0.4529598936898463
0.2908510638297872 0.443629306404981 0.4531821130026839
0.29106382978723405 0.44326531552185006 0.4509037616023448
0.29127659574468084 0.4457165847887923 0.45029980367626554
0.29148936170212764 0.446698464831842 0.4493639176246679
0.2917021276595745 0.4457862037658768 0.44939947558286514
0.2919148936170213 0.44565566367542353 0.45087584643756434
0.29212765957446807 0.44699560332193444 0.4533968545837311
0.2923404255319149 0.44959987672042356 0.45036251578133385
0.2925531914893617 0.45090136584566354 0.448952078218821
0.2927659574468085 0.4487389283522331 0.4520915552823542
0.2929787234042553 0.44789645252069266 0.45347454063314935
0.29319148936170214 0.45188080117244755 0.45172549224419223
0.29340425531914893 0.45188080117244755 0.4511631222461426
0.2936170212765957 0.451134964647579 0.45150788291001326
0.29382978723404257 0.4509036665798268 0.4509037616023448
0.29404255319148936 0.4512813307841533 0.44970482082575647
0.29425531914893616 0.45019377541731326 0.44894968246213973
0.29446808510638295 0.4523997049048268 0.44894968246213973
0.2946808510638298 0.45379671916165454 0.4498885608812442
0.2948936170212766 0.45647728213450184 0.4471399617661638
0.2951063829787234 0.4528578407425501 0.448699506197584
0.29531914893617023 0.4528578407425501 0.4470218917215856
0.295531914893617 0.45461178936118907 0.44991885101966617
0.2957446808510638 0.4565127373765836 0.4500713563631332
0.29595744680851066 0.4572840078486489 0.4474546340663486
0.29617021276595745 0.45619929453479097 0.45080616533288476
0.29638297872340424 0.4571473658233782 0.45082023118676945
0.29659574468085104 0.45694834544671875 0.44992672203224227
0.2968085106382979 0.45676599902296044 0.44992672203224227
0.2970212765957447 0.4587659906778891 0.447041515836658
0.29723404255319147 0.4589080965720307 0.4479726428920372
0.2974468085106383 0.45567020964377397 0.44775807045178245
0.2976595744680851 0.4587200781631655 0.44699560332193444
0.2978723404255319 0.45855550166765185 0.44699560332193444
0.29808510638297875 0.45818208416832146 0.4474346488971929
0.29829787234042554 0.46033511857734605 0.4485243485660878
0.29851063829787233 0.46213944786855354 0.44772878618446804
0.2987234042553191 0.4603560229429265 0.4489723189509093
0.298936170212766 0.45912156223557554 0.44757115881962717
0.29914893617021276 0.4575721545034781 0.4491205665517246
0.29936170212765956 0.45579564640223535 0.45089707465296736
0.2995744680851064 0.4562705710292157 0.450422150025987
0.2997872340425532 0.45675400228787705 0.44993871876732566
0.3 0.45623266595775624 0.45046005509744647
0.3002127659574468 0.45568576100679814 0.45100696004840457
0.30042553191489363 0.45513885605583987 0.45155386499936284
0.3006382978723404 0.45481191988275516 0.4503825234615516
0.3008510638297872 0.45516521091032897 0.44832593391961095
0.30106382978723406 0.45732318595268723 0.44894968246213973
0.30127659574468085 0.45917812908287814 0.4492091767873348
0.30148936170212765 0.45793425770742086 0.4498311124750634
0.3017021276595745 0.45669038633196324 0.45045304816279225
0.3019148936170213 0.45544651495650595 0.45107498385052086
0.3021276595744681 0.45420264358104867 0.45169691953824953
0.30234042553191487 0.4529587722055914 0.45231885522597814
0.3025531914893617 0.45171490083013377 0.452940790913707
0.3027659574468085 0.4504710294546765 0.4535627266014356
0.3029787234042553 0.4492271580792192 0.45418466228916426
0.30319148936170215 0.4479832867037616 0.45480659797689305
0.30340425531914894 0.4467394153283043 0.4554285336646217
0.30361702127659573 0.44595027214373056 0.4555840846285538
0.3038297872340425 0.44578785768701956 0.45509684125842087
0.3040425531914894 0.44562544323030856 0.45460959788828775
0.30425531914893617 0.44546302877359756 0.45412235451815475
0.30446808510638296 0.4453006143168866 0.4536351111480218
0.3046808510638298 0.44513819986017555 0.4531478677778887
0.3048936170212766 0.4453402973382685 0.45255906758601094
0.3051063829787234 0.44609593876652937 0.4516486761283551
0.30531914893617024 0.44682594616263477 0.44894968246213973
0.30553191489361703 0.4440301859704026 0.4490525783858125
0.3057446808510638 0.44358401140959103 0.45039110206824695
0.3059574468085106 0.44313783684877944 0.4517296257506815
0.30617021276595746 0.4430874450415241 0.45027295931429234
0.30638297872340425 0.4429670146548737 0.4490701128487901
0.30659574468085105 0.442520874567263 0.4495162529364008
0.3068085106382979 0.4420479541610514 0.4499891733426124
0.3070212765957447 0.4412668703812634 0.45077025712240043
0.3072340425531915 0.4412326070610749 0.45100300276210076
0.30744680851063827 0.44135230770652706 0.45112270340755284
0.3076595744680851 0.44147200835197914 0.45124240405300503
0.3078723404255319 0.4415917089974313 0.4513621046984571
0.3080851063829787 0.44171140964288336 0.45148180534390925
0.30829787234042555 0.4418311102883355 0.4516015059893614
0.30851063829787234 0.4419508109337876 0.4517212066348135
0.30872340425531913 0.44207051157923966 0.45184090728026566
0.308936170212766 0.44211040547142155 0.45127760779806914
0.3091489361702128 0.4427331209607615 0.45028104611300485
0.30936170212765957 0.4438118177650265 0.44920234930874003
0.30957446808510636 0.4423831912970892 0.44979032911940847
0.3097872340425532 0.4440339993396272 0.44800312816403687
0.31 0.4423334511460645 0.4498151991949208
0.3102127659574468 0.443346236472675 0.44871026641582246
0.31042553191489364 0.44222523740892145 0.44760868572283635
0.31063829787234043 0.4426180670487816 0.4494062992600099
0.3108510638297872 0.4429600139798522 0.4500541530939144
0.311063829787234 0.4462764467888557 0.44894968246213973
0.31127659574468086 0.4442566514033625 0.44894968246213973
0.31148936170212765 0.4430874450415241 0.4504149284153398
0.31170212765957445 0.4465352614576176 0.4509037616023448
0.3119148936170213 0.4470631834874103 0.44992672203224227
0.3121276595744681 0.4515661217189039 0.44992672203224227
0.3123404255319149 0.44913928088162297 0.44992672203224227
0.3125531914893617 0.45012036539983946 0.4508263042553059
0.3127659574468085 0.4538196470333762 0.4492804400785994
0.3129787234042553 0.4483681517674476 0.4503222309076527
0.3131914893617021 0.44867581204150336 0.4485296302822475
0.31340425531914895 0.45035528328946034 0.4490695995178061
0.31361702127659574 0.44992672203224227 0.4512736490790986
0.31382978723404253 0.45072479308171093 0.45028465907351
0.3140425531914894 0.45369040417703865 0.44899784117401104
0.3142553191489362 0.45117670311585295 0.45249391872453926
0.31446808510638297 0.45188080117244755 0.45188080117244755
0.31468085106382976 0.45220207882813906 0.45220207882813906
0.3148936170212766 0.4538348803126526 0.45235463846820584
0.3151063829787234 0.4542598112682554 0.4497995443733453
0.3153191489361702 0.45591597516070653 0.4503517339633692
0.31553191489361704 0.4560818768413633 0.4512949663954367
0.31574468085106383 0.4566063632306505 0.45024599361686213
0.3159574468085106 0.45403785136798025 0.44810795692892225
0.31617021276595747 0.45524274171296014 0.4489112171589088
0.31638297872340426 0.45674639275486845 0.4499136511868476
0.31659574468085105 0.4563315557491694 0.4503611653060333
0.31680851063829785 0.45589137288352305 0.45080134817167966
0.3170212765957447 0.4554511900178766 0.4512415310373261
0.3172340425531915 0.4550110071522302 0.4516817139029725
0.3174468085106383 0.45581748650474774 0.45188080117244755
0.3176595744680851 0.45836174863467255 0.45507230039587165
0.3178723404255319 0.45969711773326827 0.45380872203486333
0.3180851063829787 0.45969711773326827 0.4511000204560124
0.3182978723404255 0.4587852259241578 0.45272754522056546
0.31851063829787235 0.46337001308784237 0.4528578407425501
0.31872340425531914 0.46153687519150455 0.45161680024924566
0.31893617021276593 0.459365043705924 0.4503137013578974
0.3191489361702128 0.45990099497912007 0.4511076388481968
0.3193617021276596 0.45956763920401394 0.4529873192718043
0.31957446808510637 0.4587200781631655 0.45567596928769544
0.3197872340425532 0.4587200781631655 0.4538185155035189
0.32 0.4587200781631655 0.4493027063480223
0.3202127659574468 0.46116030846738476 0.4546435531719846
0.3204255319148936 0.4608507713495348 0.4509864063092263
0.32063829787234044 0.458943469912352 0.44992672203224227
0.32085106382978723 0.4577642426169911 0.4499479260561704
0.321063829787234 0.45969711773326827 0.4517963711894296
0.32127659574468087 0.45969711773326827 0.45097613460953595
0.32148936170212766 0.4557889594528579 0.44997131074191327
0.32170212765957445 0.45594352627406437 0.45141710070882823
0.32191489361702125 0.4576207130411109 0.4498043964802902
0.3221276595744681 0.4584413567470105 0.4497878661953512
0.3223404255319149 0.45566798920481366 0.4480936131400812
0.3225531914893617 0.4534534418469546 0.44962892148004
0.3227659574468085 0.45204645314741865 0.44992672203224227
0.3229787234042553 0.45188080117244755 0.44992672203224227
0.3231914893617021 0.45188080117244755 0.4490141730880679
0.32340425531914896 0.45282798555120213 0.44699560332193444
0.32361702127659575 0.4518658175444597 0.44701433285691927
0.32382978723404254 0.4484477854172493 0.4515244442785385
0.32404255319148934 0.4516287559949692 0.45096604388196604
0.3242553191489362 0.45128545313581986 0.4537124667551603
0.324468085106383 0.4508597922583263 0.4494601869192003
0.32468085106382977 0.44992672203224227 0.4512132287150554
0.3248936170212766 0.44992672203224227 0.45110440010152364
0.3251063829787234 0.44992672203224227 0.44999510865560377
0.3253191489361702 0.4460851838990827 0.4490829227566413
0.325531914893617 0.44699560332193444 0.45070656327691194
0.32574468085106384 0.4463395754654972 0.4502547359604609
0.32595744680851063 0.44595600653435064 0.45136100277865554
0.3261702127659574 0.4451001685842149 0.45093308380358776
0.32638297872340427 0.44357282648208 0.44944134059168644
0.32659574468085106 0.4422191770185328 0.44956478499317104
0.32680851063829786 0.4403857306034826 0.44843145143656943
0.3270212765957447 0.4445510022113078 0.44973051324407365
0.3272340425531915 0.44307498610356405 0.44992672203224227
0.3274468085106383 0.44197404825710146 0.44992672203224227
0.3276595744680851 0.4406350995610961 0.44967758886213083
0.3278723404255319 0.44014834986924234 0.44991874557026834
0.3280851063829787 0.44211040547142155 0.4510289949188366
0.3282978723404255 0.4411864588050703 0.45131264203176924
0.32851063829787236 0.4401563263312165 0.45189687269132284
0.32872340425531915 0.4407364249956495 0.45032366293791176
0.32893617021276594 0.4404261496566997 0.4527555870107198
0.32914893617021274 0.4385336116961727 0.4505894510425653
0.3293617021276596 0.4419424793687967 0.44712154789890307
0.3295744680851064 0.44202689281522584 0.45277432808635437
0.32978723404255317 0.44071118376070323 0.45166971010213963
0.33 0.4402091710372865 0.45021717208489637
0.3302127659574468 0.44115701617805053 0.45037976640219635
0.3304255319148936 0.445046563914658 0.45004696207865696
0.33063829787234045 0.4450000181087351 0.4504359948537907
0.33085106382978724 0.443190645754707 0.4526514393161843
0.33106382978723403 0.4441660769521232 0.4523185247872505
0.3312765957446808 0.4453554979608903 0.4517238142828669
0.33148936170212767 0.4465449189696577 0.4511291037784832
0.33170212765957446 0.44583502053315355 0.4509037616023448
0.33191489361702126 0.44667984863569693 0.4514498697536674
0.3321276595744681 0.44660407270861824 0.4508543735348833
0.3323404255319149 0.44409747693099577 0.44897442670166643
0.3325531914893617 0.44963036917210963 0.44894968246213973
0.3327659574468085 0.4470980181611697 0.4480067811717823
0.33297872340425533 0.44991120644988886 0.44701111890428785
0.3331914893617021 0.4489550063896547 0.44796731896452224
0.3334042553191489 0.45029198503500373 0.45065724803776536
0.33361702127659576 0.4510661317909645 0.45188080117244755
0.33382978723404255 0.4513630936985955 0.45188080117244755
0.33404255319148934 0.4516600556062265 0.45188080117244755
0.3342553191489362 0.45188080117244755 0.45113721782727434
0.334468085106383 0.45238369183416893 0.4494525731238611
0.3346808510638298 0.4538348803126526 0.4499972436633556
0.33489361702127657 0.45456546139522047 0.4476073523507532
0.3351063829787234 0.4557889594528579 0.44699560332193444
0.3353191489361702 0.45658490465762014 0.44818952112907784
0.335531914893617 0.45636048230548515 0.44808331364880516
0.33574468085106385 0.4552786133090694 0.4469519506044603
0.33595744680851064 0.4561907210674622 0.44877616612124593
0.33617021276595743 0.4573995494122584 0.44992672203224227
0.3363829787234042 0.4591151524273284 0.44992672203224227
0.33659574468085107 0.45969711773326827 0.44856466317671995
0.33680851063829786 0.4591647471459443 0.4475279739092584
0.33702127659574466 0.4569353512861926 0.4497573697690101
0.3372340425531915 0.4594415258665126 0.45059560374313024
0.3374468085106383 0.4606741573033708 0.4514207521969701
0.3376595744680851 0.45872926721404833 0.45139457865011684
0.33787234042553194 0.45785862459459903 0.45363532553144154
0.33808510638297873 0.4593180207327604 0.455191016883263
0.3382978723404255 0.45969711773326827 0.4534898168393147
0.3385106382978723 0.46418816179827344 0.45360634808671757
0.33872340425531916 0.45999278394216275 0.4570157781479217
0.33893617021276595 0.4619322520890774 0.45613695163010715
0.33914893617021274 0.459351467673814 0.45382289819100075
0.3393617021276596 0.45722246201035194 0.4549401470733943
0.3395744680851064 0.4558368405246146 0.45676599902296044
0.3397872340425532 0.45481191988275516 0.4558561300852017
0.34 0.45694104735726554 0.4560893963674614
0.3402127659574468 0.4600836405914891 0.4554239014437379
0.3404255319148936 0.45965783386640185 0.45323589908840617
0.3406382978723404 0.457743038593063 0.4549872807179882
0.34085106382978725 0.45794257362383445 0.4532569108040931
0.34106382978723404 0.45840988102943114 0.45439832370444266
0.34127659574468083 0.45634137457863233 0.45164031510337743
0.3414893617021277 0.45517144054481135 0.45152128051039137
0.3417021276595745 0.45526445443119795 0.45188080117244755
0.34191489361702126 0.455638523783286 0.4515799298333038
0.34212765957446806 0.45519019184413806 0.45068326595500796
0.3423404255319149 0.45469313427991553 0.449689150826563
0.3425531914893617 0.45393299444883506 0.448168871164402
0.3427659574468085 0.4538348803126526 0.45043717721162396
0.34297872340425534 0.45122011552712804 0.4500321733405033
0.34319148936170213 0.4509037616023448 0.44916681638557904
0.3434042553191489 0.45161989548396636 0.4475174146988967
0.34361702127659577 0.45111506605375296 0.4485270735593234
0.34382978723404256 0.4505320545272861 0.4474628541619049
0.34404255319148935 0.45006670020015865 0.445601436853395
0.34425531914893615 0.4488512114707744 0.44611703474319725
0.344468085106383 0.4488836037124567 0.44699560332193444
0.3446808510638298 0.44992672203224227 0.4490546735875885
0.3448936170212766 0.4504711630273836 0.4498148796120622
0.3451063829787234 0.4496889106484794 0.44894968246213973
0.3453191489361702 0.44822355889590804 0.4511280531608349
0.345531914893617 0.44460458408391373 0.4535648305765092
0.3457446808510638 0.4508797291903436 0.4548084866810407
0.34595744680851065 0.4467443328899721 0.4529834759585313
0.34617021276595744 0.4454956900477021 0.4538348803126526
0.34638297872340423 0.4464276698492292 0.4529829801035947
0.3465957446808511 0.4455580085209334 0.4516784881111509
0.3468085106382979 0.44584188152704635 0.45306573244939385
0.34702127659574467 0.44406448461162684 0.4523936803535482
0.3472340425531915 0.444560790794463 0.4533541469253862
0.3474468085106383 0.44551739186057243 0.45288314495496645
0.3476595744680851 0.44423969324451923 0.45188080117244755
0.3478723404255319 0.44380751852779593 0.450440654199904
0.34808510638297874 0.44321441656035404 0.45162685813478765
0.34829787234042553 0.44699644154228985 0.44992714114241994
0.3485106382978723 0.4482835018798621 0.45103699771880035
0.34872340425531917 0.4435354370145558 0.45346794396366064
0.34893617021276596 0.44407460047105574 0.4546003265936483
0.34914893617021275 0.4442000797656528 0.4485289602541014
0.34936170212765955 0.4416504455885597 0.44751268300917524
0.3495744680851064 0.4433728447688901 0.4492350821895056
0.3497872340425532 0.44331632583246877 0.45067488081140017
0.35 0.4430874450415241 0.44919999694175633
0.3502127659574468 0.44230175728061527 0.44973537022304855
0.3504255319148936 0.4426155362936686 0.44992672203224227
0.3506382978723404 0.44253431110911146 0.4504798559646549
0.35085106382978726 0.4404618590389224 0.45255230803484414
0.35106382978723405 0.44231616658735007 0.45177792061448324
0.35127659574468084 0.44406448461162684 0.4507298439510104
0.35148936170212763 0.44406448461162684 0.45016858352406525
0.3517021276595745 0.44523944989900976 0.4516891699633168
0.3519148936170213 0.44537004680114867 0.45091228989050014
0.35212765957446807 0.4471939722762875 0.4527966528249863
0.3523404255319149 0.4471600159921111 0.4538348803126526
0.3525531914893617 0.4460749259732956 0.45107284826673594
0.3527659574468085 0.4479942822055734 0.4508929419455767
0.3529787234042553 0.44882229281999586 0.45047893663836547
0.35319148936170214 0.4496503034344186 0.4500649313311541
0.35340425531914893 0.4521913010238651 0.45049286678014794
0.3536170212765957 0.45277998018817067 0.4503763115401038
0.35382978723404257 0.4529075044520363 0.45095342531183114
0.35404255319148936 0.4527573764191324 0.4502645453321671
0.35425531914893615 0.45188080117244755 0.4499574219652774
0.354468085106383 0.4528432902513612 0.45042251706288794
0.3546808510638298 0.4538348803126526 0.449328610208497
0.3548936170212766 0.4538348803126526 0.45039684576325945
0.3551063829787234 0.45469373828367504 0.4517626195733674
0.3553191489361702 0.45387255728941583 0.450941438579108
0.355531914893617 0.45194970540615087 0.4500645304996489
0.3557446808510638 0.4528937323678872 0.45184490954711043
0.35595744680851066 0.45674113171647746 0.4479975101985202
0.35617021276595745 0.4550169158427115 0.4533223904127619
0.35638297872340424 0.45653888610804844 0.4494039082919638
0.35659574468085103 0.45649673365656757 0.4512576487041997
0.3568085106382979 0.457259911281971 0.45767832890555143
0.3570212765957447 0.45676599902296044 0.4556380469483122
0.35723404255319147 0.4575102603140567 0.4501595003112485
0.3574468085106383 0.4551751707692928 0.4490707660909856
0.3576595744680851 0.45869598627691555 0.4498945995172423
0.3578723404255319 0.4560448698174661 0.4465303844810483
0.35808510638297875 0.45884941506453064 0.4497423259536643
0.35829787234042554 0.46209042286761376 0.4492526530913527
0.35851063829787233 0.4582870029239958 0.44992672203224227
0.3587234042553191 0.45943321243274665 0.4504901133121368
0.35893617021276597 0.45790563698988374 0.4509037616023448
0.35914893617021276 0.45907532297799464 0.4509037616023448
0.35936170212765955 0.4588142906742156 0.4517865886613975
0.3595744680851064 0.45680631201881194 0.4500879740156483
0.3597872340425532 0.457743038593063 0.4533176647026472
0.36 0.457743038593063 0.4509037616023448
0.3602127659574468 0.4573131524584924 0.4509037616023448
0.3604255319148936 0.45577841168307365 0.45040996793240146
0.3606382978723404 0.4553656624011894 0.4504804645506764
0.3608510638297872 0.45238170668141325 0.45158521215663383
0.36106382978723406 0.4525300169695135 0.45188080117244755
0.36127659574468085 0.4547454035511334 0.4537683639810309
0.36148936170212764 0.4539312765818623 0.45188080117244755
0.3617021276595745 0.45367382763515024 0.45165318272292654
0.3619148936170213 0.45132113817189706 0.4509037616023448
0.3621276595744681 0.4525220411048535 0.4500285354638121
0.36234042553191487 0.4518622158056963 0.4494289095638154
0.3625531914893617 0.4514103253753889 0.44992672203224227
0.3627659574468085 0.44992672203224227 0.4514894899801723
0.3629787234042553 0.45055343836869466 0.4503509753967404
0.36319148936170215 0.45023495279219766 0.45430015294331694
0.36340425531914894 0.44992672203224227 0.4493919553097842
0.36361702127659573 0.44992672203224227 0.4487066112630964
0.3638297872340425 0.45074512053819693 0.4563152690157319
0.36404255319148937 0.4509037616023448 0.4522767127785484
0.36425531914893616 0.449625086546425 0.4514545761538076
0.36446808510638296 0.44826488336326925 0.45100117509275567
0.3646808510638298 0.44690468018011315 0.4505477740317036
0.3648936170212766 0.44554447699695743 0.45009437297065163
0.3651063829787234 0.4450415241817294 0.44935542862185135
0.36531914893617023 0.4466624216102662 0.44894968246213973
0.365531914893617 0.44531306929300585 0.45001351190175215
0.3657446808510638 0.4436305462937324 0.4514468628545531
0.3659574468085106 0.4423435640738352 0.45188080117244755
0.36617021276595746 0.43933010067858824 0.45188080117244755
0.36638297872340425 0.44267538330380696 0.45188080117244755
0.36659574468085104 0.4412883294331731 0.45008168556409633
0.3668085106382979 0.4458590067769453 0.44992672203224227
0.3670212765957447 0.44535224097274345 0.4512593675904194
0.3672340425531915 0.44398699557616167 0.45188080117244755
0.36744680851063827 0.44211040547142155 0.45185618861009924
0.3676595744680851 0.442168854692182 0.4510791092646262
0.3678723404255319 0.4428219178620593 0.4538348803126526
0.3680851063829787 0.441133365901319 0.4534216491422758
0.36829787234042555 0.44059386285643787 0.45215055269488813
0.36851063829787234 0.4398501793007975 0.45252239447270826
0.36872340425531913 0.4399174048401083 0.4506648401112368
0.368936170212766 0.43918347042057543 0.44894968246213973
0.36914893617021277 0.43965409851329035 0.44894968246213973
0.36936170212765956 0.44172105076941276 0.44894968246213973
0.36957446808510636 0.44257399000230596 0.44894968246213973
0.3697872340425532 0.4415244639848053 0.44934078054562604
0.37 0.4418316325344195 0.45020549496924434
0.3702127659574468 0.4423509828727596 0.4509037616023448
0.37042553191489364 0.4457175670669332 0.4509037616023448
0.3706382978723404 0.4442834140819226 0.4505247065524415
0.3708510638297872 0.4440221522493883 0.4513287828440385
0.371063829787234 0.44291697632604593 0.45126442985078746
0.37127659574468086 0.4424095856899762 0.44950131543602323
0.37148936170212765 0.44335304689341815 0.4501354119924876
0.37170212765957444 0.4419268578928542 0.45304138832111746
0.3719148936170213 0.4462203326576451 0.4491514513679529
0.3721276595744681 0.44806718920845184 0.4507146689695155
0.3723404255319149 0.44911795007348093 0.44911795007348093
0.3725531914893617 0.44939908767398107 0.4504543563905035
0.3727659574468085 0.4479726428920372 0.4506135327818375
0.3729787234042553 0.4497802915344612 0.44706881857082514
0.3731914893617021 0.4531461860315252 0.4450415241817294
0.37340425531914895 0.45069275592673896 0.4452525298573352
0.37361702127659574 0.44894968246213973 0.4469881199066023
0.37382978723404253 0.4490177275064707 0.44606959753508013
0.3740425531914894 0.45241048044290305 0.44861416223740447
0.37425531914893617 0.4536871079267631 0.44812041527792673
0.37446808510638296 0.45207241168566337 0.44973511151902645
0.37468085106382976 0.4537309193326736 0.44900166295212923
0.3748936170212766 0.45029745971530694 0.4498340376114761
0.3751063829787234 0.4515808620690967 0.44661844195853356
0.3753191489361702 0.45439305770206606 0.4472746920166412
0.37553191489361704 0.4557889594528579 0.4479726428920372
0.37574468085106383 0.45633781374050675 0.4501680600426326
0.3759574468085106 0.458670889042535 0.45188080117244755
0.37617021276595747 0.45589830338895926 0.45112103830358563
0.37638297872340426 0.4565965784555589 0.4517960908887468
0.37659574468085105 0.4575940387123407 0.4529075073694575
0.37680851063829784 0.4553420083811863 0.4534814879803652
0.3770212765957447 0.457743038593063 0.45127289089992256
0.3772340425531915 0.4581756182742959 0.44992672203224227
0.3774468085106383 0.4570763053037536 0.45102257060518364
0.3776595744680851 0.45777196287038213 0.45188080117244755
0.3778723404255319 0.4579335213245204 0.45502702852702814
0.3780851063829787 0.4595801855805647 0.4521146654778547
0.37829787234042556 0.45962257328363043 0.45173171227317194
0.37851063829787235 0.45791241722584214 0.4505324677352348
0.37872340425531914 0.4558084616669051 0.4531900213372667
0.37893617021276593 0.457743038593063 0.45337536204295664
0.3791489361702128 0.457179576657417 0.4522943788069041
0.3793617021276596 0.4561006950880202 0.4525461051073878
0.37957446808510636 0.456578682742529 0.4528578407425501
0.3797872340425532 0.45399809816485903 0.45101257350381574
0.38 0.457667860920515 0.4521063341900916
0.3802127659574468 0.45676599902296044 0.45399280485772014
0.3804255319148936 0.45811048010538025 0.45157600214355476
0.38063829787234044 0.45834262619183314 0.4528578407425501
0.38085106382978723 0.45695860418677087 0.450518551274724
0.381063829787234 0.4563340384016919 0.44894968246213973
0.38127659574468087 0.4549531342599795 0.45229298323365275
0.38148936170212766 0.45481191988275516 0.45092308119537367
0.38170212765957445 0.4571137656732103 0.4510296161863154
0.3819148936170213 0.45214511557518006 0.45211837622823753
0.3821276595744681 0.45095877966214415 0.4525998263350746
0.3823404255319149 0.4534052412919154 0.45102152313097305
0.3825531914893617 0.4516492963752597 0.44820414768922506
0.3827659574468085 0.4496815908848666 0.4504169843269936
0.3829787234042553 0.44966837635794 0.4511621072766472
0.3831914893617021 0.4507043368515896 0.45032557153375263
0.38340425531914896 0.45022472675782593 0.4512847917212801
0.38361702127659575 0.44887958767085734 0.45153175638531917
0.38382978723404254 0.44802624843863176 0.4512473099745773
0.38404255319148933 0.44857772688972475 0.4523304662199534
0.3842553191489362 0.45042130706165306 0.4528578407425501
0.384468085106383 0.4486497129377726 0.4528578407425501
0.38468085106382977 0.4478320779081475 0.453694315328763
0.3848936170212766 0.4479726428920372 0.4538348803126526
0.3851063829787234 0.4446497758339756 0.4553972111051041
0.3853191489361702 0.44284294692887566 0.45261366025673205
0.38553191489361704 0.44536387786044823 0.4525255085298853
0.38574468085106384 0.44511663528898304 0.4538348803126526
0.38595744680851063 0.44464569089797573 0.45325367402630373
0.3861702127659574 0.4443316232866917 0.4535677416375878
0.38638297872340427 0.44322608177001954 0.45718849167908127
0.38659574468085106 0.4430874450415241 0.4558042993736103
0.38680851063829785 0.44028196312737067 0.4572529602080599
0.3870212765957447 0.4463822977286929 0.4532385008763985
0.3872340425531915 0.4401563263312165 0.4510368376007165
0.3874468085106383 0.44037079676389085 0.45166633073977314
0.3876595744680851 0.4418248292002259 0.4512494932517983
0.3878723404255319 0.4416549682050309 0.4523582934512786
0.3880851063829787 0.441983712776869 0.4534669695577676
0.3882978723404255 0.4430874450415241 0.45235201480590803
0.38851063829787236 0.4439617700180098 0.4536294511254185
0.38872340425531915 0.43932551489759913 0.4509037616023448
0.38893617021276594 0.4437374382282446 0.4507402384106537
0.3891489361702128 0.4418155620045695 0.44992672203224227
0.3893617021276596 0.44155788547941527 0.4507757611884349
0.3895744680851064 0.44211040547142155 0.45188080117244755
0.38978723404255317 0.44211040547142155 0.45188080117244755
0.39 0.44376163439090127 0.45188080117244755
0.3902127659574468 0.44310417014899456 0.45188080117244755
0.3904255319148936 0.4440527748603973 0.45381146081019347
0.39063829787234045 0.44396470743303657 0.45158146963667684
0.39085106382978724 0.44321290038053796 0.44894968246213973
0.39106382978723403 0.4443201835543655 0.44894968246213973
0.3912765957446808 0.4457907786670648 0.44969893694747515
0.39148936170212767 0.4459932063051136 0.45040256309393434
0.39170212765957446 0.4469358942800274 0.44929526533280967
0.39191489361702125 0.4479726428920372 0.4475441047870974
0.3921276595744681 0.4471798000613902 0.44778844615258145
0.3923404255319149 0.4460777666943181 0.44889047951965355
0.3925531914893617 0.4460185637518319 0.44894968246213973
0.39276595744680853 0.44622183803939564 0.44935623103726724
0.3929787234042553 0.4463216371644934 0.4505667785236243
0.3931914893617021 0.44739549745526075 0.44898513272282975
0.3934042553191489 0.4475117252233605 0.449180141296478
0.39361702127659576 0.4460185637518319 0.4491955476380706
0.39382978723404255 0.44688141718155056 0.44894968246213973
0.39404255319148934 0.44859733829336723 0.44975054994785607
0.3942553191489362 0.4498140540195564 0.4507910935896589
0.394468085106383 0.4508742997666727 0.4489644133799758
0.3946808510638298 0.4492291153239862 0.44992672203224227
0.39489361702127657 0.45112911665115013 0.4503774321298529
0.3951063829787234 0.45188080117244755 0.45188080117244755
0.3953191489361702 0.452359218535891 0.45092396644556054
0.395531914893617 0.4516508220394301 0.4493232126806823
0.39574468085106385 0.4515777831307124 0.4509717470472422
0.39595744680851064 0.45112233792497153 0.4503638746774956
0.39617021276595743 0.4552983045318646 0.45080563061814616
0.3963829787234043 0.45481191988275516 0.44900277179387715
0.39659574468085107 0.4548111408629773 0.4509037616023448
0.39680851063829786 0.45395310353712764 0.4507855383778698
0.39702127659574465 0.45631418967463394 0.44967634373359583
0.3972340425531915 0.45952888220773636 0.44971319919256264
0.3974468085106383 0.4582424751417066 0.4499048885050576
0.3976595744680851 0.4582249175281039 0.44894968246213973
0.39787234042553193 0.457743038593063 0.45040748939453057
0.3980851063829787 0.4559851131966547 0.45012287577603927
0.3982978723404255 0.45616534463000896 0.44962639483576655
0.3985106382978723 0.45600745491170946 0.4514438102547444
0.39872340425531916 0.45834555818803413 0.4501764020156632
0.39893617021276595 0.4587200781631655 0.4513069384824111
0.39914893617021274 0.456367348875784 0.44893988956322056
0.3993617021276596 0.4566215910544158 0.45001172194136896
0.3995744680851064 0.45705306964389564 0.4532607390707823
0.3997872340425532 0.4611693047131203 0.4538348803126526
0.4 0.4638417269145226 0.45358950484988675
0.4002127659574468 0.4590967726426493 0.4522927990233244
0.4004255319148936 0.46021167964287113 0.44992672203224227
0.4006382978723404 0.4576125044032991 0.45005725622200615
0.40085106382978725 0.4568946483615516 0.4506464629251625
0.40106382978723404 0.4576009431887367 0.4492338732707924
0.40127659574468083 0.45663465162875333 0.4509037616023448
0.4014893617021277 0.4548693279327961 0.4509037616023448
0.40170212765957447 0.45189454209439317 0.4514982298975738
0.40191489361702126 0.45545126494991384 0.45394744514696733
0.40212765957446805 0.4526702616780611 0.4546243408182662
0.4023404255319149 0.45244213372781156 0.4543962128680167
0.4025531914893617 0.45342699029859196 0.4553810694387972
0.4027659574468085 0.4544858485382013 0.45426925061753815
0.40297872340425533 0.45318219119858494 0.45513826443978916
0.4031914893617021 0.4513098283172259 0.45464701374241473
0.4034042553191489 0.44992064378813645 0.4528517624984443
0.40361702127659577 0.4493794320468483 0.45231055075715615
0.40382978723404256 0.44962537300777244 0.4528578407425501
0.40404255319148935 0.4485514147115762 0.4532561084931136
0.40425531914893614 0.4475564272603278 0.45705521563632845
0.404468085106383 0.44783146473678903 0.4589008440257403
0.4046808510638298 0.4464654663190385 0.45375164587696326
0.4048936170212766 0.4475188576816302 0.4563816829618421
0.4051063829787234 0.44677171023526097 0.4553411732795107
0.4053191489361702 0.44464479179342636 0.4572693102086667
0.405531914893617 0.44406448461162684 0.4524284595827757
0.4057446808510638 0.44406448461162684 0.4525523167567121
0.40595744680851065 0.44406448461162684 0.4521119098570466
0.40617021276595744 0.4433681345899481 0.45188080117244755
0.40638297872340423 0.44637943504780675 0.45188080117244755
0.4065957446808511 0.4451489030873637 0.45075130525057816
0.40680851063829787 0.4425686530988539 0.45044551397491245
0.40702127659574466 0.4432893644949409 0.45149324111410455
0.4072340425531915 0.44469003131427665 0.453757441280397
0.4074468085106383 0.44434171815410617 0.4527125017998856
0.4076595744680851 0.44406448461162684 0.45188080117244755
0.4078723404255319 0.44583357752651753 0.4492271618001113
0.40808510638297874 0.4451983543729343 0.44976989184103733
0.4082978723404255 0.4414524581620558 0.45172125504207916
0.4085106382978723 0.44211040547142155 0.4500214914390133
0.40872340425531917 0.44211040547142155 0.45170348125609844
0.40893617021276596 0.44211040547142155 0.450593324028778
0.40914893617021275 0.44211040547142155 0.45081059372343874
0.40936170212765954 0.44211040547142155 0.45188080117244755
0.4095744680851064 0.44484812923949846 0.45256523211446675
0.4097872340425532 0.4427632908850572 0.45204402252585646
0.41 0.44211040547142155 0.45188080117244755
0.4102127659574468 0.44154579820142076 0.4509037616023448
0.4104255319148936 0.4445646453257387 0.4511422010303402
0.4106382978723404 0.4430874450415241 0.45084791874164637
0.41085106382978726 0.4413665000258327 0.44894968246213973
0.41106382978723405 0.44030281926955833 0.449511448716362
0.41127659574468084 0.44172616683549654 0.4487411201638872
0.41148936170212763 0.44342861876761885 0.44863174954013574
0.4117021276595745 0.4448554097018761 0.4457859821011426
0.41191489361702127 0.44780202124616447 0.44596168986987433
0.41212765957446806 0.4477439240817301 0.4466284805793175
0.4123404255319149 0.445634039531543 0.453242364962839
0.4125531914893617 0.4476464714815682 0.4505775901918759
0.4127659574468085 0.4460847003601412 0.4508376249940356
0.4129787234042553 0.44738638166588424 0.45188080117244755
0.41319148936170214 0.45110452058100653 0.4504442424265363
0.41340425531914893 0.4510342716675241 0.44992672203224227
0.4136170212765957 0.45383447843470726 0.45578855757491255
0.41382978723404257 0.44736461278427325 0.4490419348277244
0.41404255319148936 0.451028654845643 0.4499891686538914
0.41425531914893615 0.4531267790403283 0.451172699900123
0.414468085106383 0.4545819044634804 0.4521677944847258
0.4146808510638298 0.4538348803126526 0.45017267832351243
0.4148936170212766 0.4538348803126526 0.44993611615570805
0.4151063829787234 0.4545608023402106 0.4486985649195951
0.4153191489361702 0.4551158809771015 0.45127287898375507
0.415531914893617 0.45461423242832133 0.453055528196984
0.4157446808510638 0.45557394972830934 0.45080575254970473
0.41595744680851066 0.4550940107734173 0.448406057775245
0.41617021276595745 0.45593242080818247 0.44811610424736176
0.41638297872340424 0.4581053309651589 0.45028901440433816
0.4165957446808511 0.45709516845132964 0.45130998903030384
0.4168085106382979 0.45567231262561536 0.4523109975438776
0.41702127659574467 0.4573197735580928 0.4528578407425501
0.41723404255319146 0.4605541953774099 0.45192078848110107
0.4174468085106383 0.46220300985341417 0.4506233083702919
0.4176595744680851 0.4587200781631655 0.4501129559927613
0.4178723404255319 0.45843917992961086 0.45062286336879015
0.41808510638297874 0.45855223140782475 0.44952212562486143
0.41829787234042554 0.4602302499702896 0.44788341798809694
0.41851063829787233 0.4613291307971757 0.4502704707909592
0.4187234042553191 0.4601101444475583 0.4503397487465324
0.41893617021276597 0.45969711773326827 0.4490266871574727
0.41914893617021276 0.4580157649356401 0.44721378439599613
0.41936170212765955 0.4625219194140565 0.4513290297204222
0.4195744680851064 0.46117082975837154 0.45457173632520426
0.4197872340425532 0.4600700107922168 0.45308909419475557
0.42 0.46016642145123954 0.45188080117244755
0.42021276595744683 0.4603397847985182 0.45188080117244755
0.4204255319148936 0.45989887804628915 0.45110552191536574
0.4206382978723404 0.45969711773326827 0.451630112552012
0.4208510638297872 0.4573310186947185 0.4534582005314806
0.42106382978723406 0.4595210169119032 0.44924318383108147
0.42127659574468085 0.4566190576153697 0.4490966238697305
0.42148936170212764 0.4552213395865349 0.45172260100990425
0.4217021276595745 0.4561578727956056 0.453899730541723
0.4219148936170213 0.45481191988275516 0.45188080117244755
0.4221276595744681 0.45393709106027835 0.45144338676120904
0.42234042553191486 0.4528578407425501 0.4519568394389964
0.4225531914893617 0.45219836824741677 0.4535173132376834
0.4227659574468085 0.45426532113542534 0.4506555203620154
0.4229787234042553 0.4511071343668058 0.45177911479021704
0.42319148936170214 0.4491041371756348 0.45008117674573733
0.42340425531914894 0.45380556297219815 0.44894968246213973
0.42361702127659573 0.45188080117244755 0.4486669335466112
0.4238297872340426 0.4507847050370939 0.44754365138961133
0.42404255319148937 0.4483772566714733 0.45016352380044816
0.42425531914893616 0.4500273404005405 0.45134197220324707
0.42446808510638295 0.45023169819122455 0.4495596347801043
0.4246808510638298 0.44912763701964453 0.44974876747473747
0.4248936170212766 0.44894968246213973 0.44908967297497415
0.4251063829787234 0.44990122294247265 0.4479981419818068
0.42531914893617023 0.44525492975072806 0.4471023061064338
0.425531914893617 0.4458122115509281 0.448682677954641
0.4257446808510638 0.44284305657017836 0.4498047849542097
0.4259574468085106 0.44406448461162684 0.4494561437254751
0.42617021276595746 0.44406448461162684 0.4490288823646109
0.42638297872340425 0.44354209066435074 0.4500622186811412
0.42659574468085104 0.4434743858116467 0.45188080117244755
0.4268085106382979 0.44371868897096667 0.45049761860980714
0.4270212765957447 0.442862374546314 0.44887292487287767
0.4272340425531915 0.4421265473102949 0.4518162338169543
0.4274468085106383 0.4430268106866311 0.4488890481072467
0.4276595744680851 0.44211040547142155 0.4479726428920372
0.4278723404255319 0.44116392047648073 0.4486036328886644
0.4280851063829787 0.4396173735473715 0.44817437488721146
0.42829787234042555 0.4407186928157104 0.44714329672081987
0.42851063829787234 0.4397552149508978 0.45003986931766876
0.42872340425531913 0.43917928676111373 0.4516442582366269
0.428936170212766 0.43998080909681875 0.45027775650103774
0.42914893617021277 0.44380337875694764 0.44992672203224227
0.42936170212765956 0.4439363976101674 0.4471877338241236
0.42957446808510635 0.44211040547142155 0.4497321479325175
0.4297872340425532 0.4427617171467408 0.44894968246213973
0.43 0.4427004735120658 0.45031369356170076
0.4302127659574468 0.4428698032164437 0.45130198873407257
0.43042553191489363 0.44194582436108326 0.4523162017693739
0.4306382978723404 0.4444900140341945 0.4511795166761122
0.4308510638297872 0.4440750865037705 0.4480044485684681
0.43106382978723407 0.4457918364507043 0.45004008568280607
0.43127659574468086 0.44217965996247716 0.4518461739269197
0.43148936170212765 0.44472905666829654 0.45188080117244755
0.43170212765957444 0.44142304045748804 0.4491669383792665
0.4319148936170213 0.44497829873877964 0.44894968246213973
0.4321276595744681 0.44707420405918097 0.4531722436915361
0.4323404255319149 0.44745619324080876 0.45590524960424644
0.4325531914893617 0.44696600802527203 0.4512393065579333
0.4327659574468085 0.4526479962132984 0.4492887922048123
0.4329787234042553 0.44699560332193444 0.4509037616023448
0.4331914893617021 0.44699560332193444 0.4509037616023448
0.43340425531914895 0.44699560332193444 0.4509037616023448
0.43361702127659574 0.4474398495581483 0.450814912355102
0.43382978723404253 0.45241978088450874 0.44981892608983004
0.4340425531914894 0.4564232093886295 0.4490639456735834
0.43425531914893617 0.4539111296133888 0.44988859738187414
0.43446808510638296 0.45586253986074043 0.4491336334818461
0.4346808510638298 0.4575811895603059 0.4537539557962741
0.4348936170212766 0.4556307053424346 0.4525413325217035
0.4351063829787234 0.45528043012673514 0.4510599316836715
0.4353191489361702 0.45758582752354393 0.45182839748260784
0.43553191489361703 0.45671060539730396 0.45375178987416787
0.4357446808510638 0.45542356369352605 0.45120958350773027
0.4359574468085106 0.45843388359854603 0.4522854516133111
0.43617021276595747 0.45648715719367566 0.4521596430017321
0.43638297872340426 0.45757412883471116 0.4538348803126526
0.43659574468085105 0.45833493906886835 0.4538348803126526
0.43680851063829784 0.457743038593063 0.45220899900477324
0.4370212765957447 0.45585171587986983 0.4537721238856407
0.4372340425531915 0.457743038593063 0.4501333633459618
0.4374468085106383 0.457743038593063 0.45188080117244755
0.4376595744680851 0.45884654553769494 0.45188080117244755
0.4378723404255319 0.4601795848476616 0.4503970838053198
0.4380851063829787 0.45909072581025373 0.45258803400022624
