0.0 0.45969711773326827 0.4509037616023448
0.0002127659574468085 0.45916005112924513 0.44929256179027577
0.000425531914893617 0.4581914378734431 0.4481488563219447
0.0006382978723404255 0.4563508163588409 0.44857511119148435
0.000851063829787234 0.4587200781631655 0.4481621016741646
0.0010638297872340426 0.458295084594283 0.4523057947413301
0.001276595744680851 0.4572888525174207 0.4533120268181924
0.0014893617021276596 0.4590871745390194 0.45188080117244755
0.001702127659574468 0.45969711773326827 0.45188080117244755
0.0019148936170212765 0.4603070413582478 0.4506609539224884
0.002127659574468085 0.4642867378693936 0.4513717542586515
0.002340425531914894 0.46137095670000833 0.45188080117244755
0.002553191489361702 0.4606741573033708 0.45188080117244755
0.0027659574468085106 0.459061176506526 0.4528578407425501
0.0029787234042553193 0.46165119687347334 0.4526172919942411
0.0031914893617021275 0.4609117060559679 0.452620291989953
0.003404255319148936 0.4606723881141299 0.45139670436049834
0.003617021276595745 0.46108130217724286 0.44894968246213973
0.003829787234042553 0.4606741573033708 0.4536427748243005
0.004042553191489362 0.45907853197773707 0.45259770880159067
0.00425531914893617 0.4614926052365284 0.45280497686356846
0.004468085106382979 0.45691999948395084 0.4519578014029428
0.004680851063829788 0.4582976776977883 0.4530690409752387
0.004893617021276595 0.45778331834468766 0.4538348803126526
0.005106382978723404 0.45969711773326827 0.4524306099762499
0.005319148936170213 0.4567099035733013 0.45269609009832495
0.005531914893617021 0.45481191988275516 0.4538348803126526
0.00574468085106383 0.45226329768546836 0.4529853395802237
0.005957446808510639 0.4538348803126526 0.4528631802827218
0.006170212765957446 0.45359306776389924 0.45359306776389924
0.006382978723404255 0.45188080117244755 0.45188080117244755
0.006595744680851064 0.45215244194650167 0.45160916039839333
0.006808510638297872 0.45318928099352135 0.45057232135137354
0.007021276595744681 0.45316569147687136 0.45059591086802364
0.00723404255319149 0.4505761862184694 0.45188080117244755
0.007446808510638298 0.4479726428920372 0.4522706518267296
0.007659574468085106 0.44840691319094605 0.45242357044364123
0.007872340425531916 0.44798884032563097 0.4528416433089562
0.008085106382978723 0.44699560332193444 0.453302437731392
0.008297872340425531 0.44699560332193444 0.4534281969815241
0.00851063829787234 0.44766789330752793 0.45114572037027906
0.008723404255319148 0.4464833609942055 0.4491820810833265
0.008936170212765958 0.44683892271903136 0.4505904003965387
0.009148936170212766 0.4460545710927526 0.45278582606070866
0.009361702127659575 0.44593313850682326 0.4539203055576613
0.009574468085106383 0.4450415241817294 0.45420344458228695
0.00978723404255319 0.44532763648501916 0.45147598620892443
0.01 0.4464386491589827 0.4524377553353993
0.010212765957446808 0.4447700890261782 0.45021166545063035
0.010425531914893617 0.4451495214998075 0.4503244001009952
0.010638297872340425 0.4410972789318497 0.45172397573900863
0.010851063829787235 0.4411113055072258 0.45188080117244755
0.011063829787234043 0.4383161983000944 0.45262993852438366
0.01127659574468085 0.43942629116119214 0.45065675720226644
0.01148936170212766 0.4401563263312165 0.4510721988339985
0.011702127659574468 0.4421938887426772 0.45132966893395454
0.011914893617021277 0.44087864618648165 0.4492895543472133
0.012127659574468085 0.43994993124050163 0.4497203269415274
0.012340425531914893 0.43743582498197614 0.4508335558153223
0.012553191489361702 0.44495014691690477 0.4518259748135528
0.01276595744680851 0.4401563263312165 0.448743038236562
0.01297872340425532 0.4399227255594491 0.4479300064090039
0.013191489361702127 0.43917928676111373 0.45053345626704194
0.013404255319148937 0.43917928676111373 0.4484845860063796
0.013617021276595745 0.4397648377293047 0.45109446009927046
0.013829787234042552 0.44159050446627435 0.4516836131100657
0.014042553191489362 0.4412592775800954 0.45175488949367115
0.01425531914893617 0.439211526202406 0.4518566215914784
0.01446808510638298 0.4426500274465569 0.44894968246213973
0.014680851063829787 0.44127847558677535 0.44923021977602945
0.014893617021276596 0.44284374623824735 0.44911289644998936
0.015106382978723404 0.44220795521197087 0.4485099375473631
0.015319148936170212 0.44644591750308976 0.44894968246213973
0.015531914893617021 0.44486006158438135 0.4497278277890536
0.01574468085106383 0.4432323361998927 0.44992672203224227
0.015957446808510637 0.4449815202232755 0.45182079721399365
0.016170212765957447 0.4450415241817294 0.4473036994824323
0.016382978723404256 0.4457577905339585 0.44992672203224227
0.016595744680851062 0.4476035229755084 0.44955760211571355
0.01680851063829787 0.4479936327152927 0.4494486971588188
0.01702127659574468 0.44958263400005094 0.44992672203224227
0.01723404255319149 0.449161307878028 0.44763047956959934
0.017446808510638297 0.45073842405992925 0.4443124909252502
0.017659574468085106 0.4528797363001542 0.44122094813173557
0.017872340425531916 0.45354046378795126 0.4445998993946773
0.018085106382978722 0.4527004127611406 0.44347642478591004
0.01829787234042553 0.4535961892396969 0.4457798726788762
0.01851063829787234 0.452957300588519 0.4451409840276983
0.01872340425531915 0.4531645407619353 0.44735924285326667
0.018936170212765956 0.45686967643545884 0.4495773771692006
0.019148936170212766 0.4549448497537035 0.44712853319288276
0.019361702127659575 0.45392217039309435 0.4480599329724789
0.01957446808510638 0.455666646257444 0.4496334635618908
0.01978723404255319 0.4594138651351692 0.45280119022293025
0.02 0.4552744497245283 0.45172662455852314
0.02021276595744681 0.4570081555625374 0.45041383958199444
0.020425531914893616 0.4558071980208988 0.4492814418415209
0.020638297872340425 0.4598579637555816 0.45204164719476086
0.020851063829787235 0.46218680113377314 0.45465417954893356
0.02106382978723404 0.45853160774310464 0.4511269194922039
0.02127659574468085 0.45810231475417607 0.44815228097259374
0.02148936170212766 0.4594646678434655 0.4484847826825343
0.02170212765957447 0.4590349126448253 0.4479401067669138
0.021914893617021276 0.4592676653221818 0.45035617444332865
0.022127659574468085 0.45927317058808675 0.45035066917742367
0.022340425531914895 0.4576551907706914 0.44924607971138336
0.0225531914893617 0.45757516769592627 0.4481405137891739
0.02276595744680851 0.4586827238500913 0.45173138392015066
0.02297872340425532 0.4560651287404887 0.44894968246213973
0.023191489361702126 0.4583490341122415 0.44932072651306376
0.023404255319148935 0.45676599902296044 0.4512186266588752
0.023617021276595745 0.4571666758730541 0.45148012432235385
0.023829787234042554 0.45727896024602915 0.45136783994937874
0.02404255319148936 0.45497918873016596 0.451285197741516
0.02425531914893617 0.4560171595287994 0.45163118800772717
0.02446808510638298 0.45590506028040884 0.4510198624298957
0.024680851063829785 0.4557889594528579 0.4490015900409571
0.024893617021276595 0.4560147855698709 0.45210662728946055
0.025106382978723404 0.4572669570150056 0.45407292110168135
0.025319148936170214 0.4554249335844034 0.45262776467202837
0.02553191489361702 0.4553057432417739 0.45043115253919586
0.02574468085106383 0.45407893870207705 0.4513107942555205
0.02595744680851064 0.4521930720117862 0.45555714271769215
0.026170212765957445 0.45268031095325206 0.45454499946984467
0.026382978723404255 0.45565717774867237 0.4519686556419046
0.026595744680851064 0.4529417975371695 0.4520487147616864
0.026808510638297874 0.4536363800150678 0.4532393794198981
0.02702127659574468 0.45252540065272695 0.45057132151252166
0.02723404255319149 0.45141377826790813 0.4494596991277029
0.0274468085106383 0.4515027339416322 0.4507465994800017
0.027659574468085105 0.44681866502328577 0.45043447655840124
0.027872340425531914 0.44673546769659084 0.4516206655471039
0.028085106382978724 0.44699560332193444 0.45382892503389477
0.028297872340425533 0.4460185637518319 0.4538348803126526
0.02851063829787234 0.44653528432001555 0.4535765200285608
0.02872340425531915 0.44757932828369296 0.4528578407425501
0.02893617021276596 0.4459450759056313 0.45233257703439855
0.029148936170212764 0.4463590375441221 0.45188080117244755
0.029361702127659574 0.4462038683669512 0.45029733126248084
0.029574468085106383 0.4432398639579685 0.4508529552968633
0.029787234042553193 0.44667261860504176 0.45180005499322434
0.03 0.4433019014156464 0.45154713072471164
0.03021276595744681 0.44406448461162684 0.4527980719077454
0.030425531914893618 0.44262511129552184 0.4523431349184498
0.030638297872340424 0.44174601271721664 0.451384293049062
0.030851063829787233 0.4398811716221223 0.45141287793177515
0.031063829787234043 0.43917928676111373 0.45188080117244755
0.03127659574468085 0.43911700311649904 0.4518496593501402
0.03148936170212766 0.4376722309279749 0.4510527693713669
0.03170212765957447 0.43911520489903616 0.45136024045635736
0.031914893617021274 0.4350166382002365 0.4501539312781991
0.03212765957446809 0.43691581254204476 0.45321609015492487
0.03234042553191489 0.4366302681202581 0.45111660103354345
0.0325531914893617 0.43722520762090866 0.45084186351697275
0.03276595744680851 0.43722520762090866 0.4508580552696426
0.03297872340425532 0.4377025186337566 0.44992672203224227
0.033191489361702124 0.43639775783420737 0.44992672203224227
0.03340425531914894 0.43480119003167483 0.44992672203224227
0.03361702127659574 0.4369442041243655 0.44992672203224227
0.033829787234042556 0.4376551184980553 0.4504738507251982
0.03404255319148936 0.4392791490367881 0.45039027624837497
0.03425531914893617 0.4401240202612803 0.44942204921222295
0.03446808510638298 0.43917928676111373 0.4500048754942105
0.03468085106382979 0.43812383905906843 0.4503760377513222
0.03489361702127659 0.43772682325753054 0.44992672203224227
0.035106382978723406 0.43975273210516075 0.45044355033695876
0.03531914893617021 0.4423096176738086 0.4503156357161
0.03553191489361702 0.443758505220807 0.4485846016736767
0.03574468085106383 0.44542564604012236 0.4500143850347804
0.03595744680851064 0.44821954769534333 0.4494364389733373
0.036170212765957444 0.4456233754360136 0.44894968246213973
0.036382978723404256 0.4431914525861979 0.4544998972487337
0.03659574468085106 0.4469785680060354 0.4518637658565485
0.03680851063829787 0.4459323955855396 0.4508175934360525
0.03702127659574468 0.4454692943110154 0.450211902118433
0.03723404255319149 0.4484998380444556 0.4508264108676107
0.0374468085106383 0.44846116246797596 0.4487054226741703
0.03765957446808511 0.4477879073639536 0.44992672203224227
0.03787234042553191 0.44992672203224227 0.44888660833277655
0.038085106382978726 0.44992672203224227 0.44918117743115893
0.03829787234042553 0.4520325396162137 0.4506286612268994
0.03851063829787234 0.45127447332814696 0.44852871048074033
0.03872340425531915 0.4509037616023448 0.44709530353120697
0.03893617021276596 0.45520339606412674 0.44699560332193444
0.03914893617021276 0.45495553136072575 0.4511627437825946
0.039361702127659576 0.4556918996801452 0.45364076076722715
0.03957446808510638 0.45288213568472196 0.4479544216854083
0.03978723404255319 0.4561026091753714 0.4455390665674212
0.04 0.45607696365338574 0.4464195949208788
0.04021276595744681 0.4557889594528579 0.447623807641818
0.04042553191489362 0.4557889594528579 0.4466741803802507
0.040638297872340426 0.45795764005016604 0.44674145728426795
0.04085106382978723 0.4587200781631655 0.44857118938761364
0.041063829787234045 0.45954178673893337 0.4473062653106042
0.04127659574468085 0.4570689529317163 0.44524349345423325
0.04148936170212766 0.4594506017127065 0.4468312593082266
0.04170212765957447 0.45885722483488034 0.44699560332193444
0.041914893617021276 0.4579100423031644 0.4453755316019322
0.04212765957446808 0.45931564395661933 0.4450415241817294
0.042340425531914895 0.458961471208418 0.4450415241817294
0.0425531914893617 0.459331352114537 0.4480978939385864
0.04276595744680851 0.4592971801145997 0.4495267844135738
0.04297872340425532 0.45930377384091814 0.4491442476880573
0.043191489361702126 0.4609835300793894 0.4497041664342143
0.04340425531914894 0.45925269260401963 0.4494822969029938
0.043617021276595745 0.4606741573033708 0.4509037616023448
0.04382978723404255 0.4602695276010968 0.45063400846749546
0.044042553191489364 0.457743038593063 0.4493495129066407
0.04425531914893617 0.45872877622889363 0.4509037616023448
0.044468085106382976 0.4593181825064753 0.4503205080105953
0.04468085106382979 0.4542101880447829 0.44857437473000944
0.044893617021276595 0.4552956330609463 0.4489400692484192
0.0451063829787234 0.45408766046137655 0.4493596223684152
0.045319148936170214 0.45475292850280435 0.44958137838222445
0.04553191489361702 0.4530549560099784 0.4506102228929621
0.045744680851063826 0.4541208594035493 0.4516504476793789
0.04595744680851064 0.4532247277920292 0.4510872051270844
0.046170212765957445 0.4528578407425501 0.4509037616023448
0.04638297872340425 0.4518780063662561 0.45237351316678576
0.046595744680851064 0.4509037616023448 0.4538348803126526
0.04680851063829787 0.4523345845945837 0.4541210449111004
0.047021276595744683 0.4544802150381305 0.45481191988275516
0.04723404255319149 0.45188080117244755 0.45519093801365607
0.047446808510638296 0.45188080117244755 0.4553515879636253
0.04765957446808511 0.45188080117244755 0.45388689778899327
0.047872340425531915 0.4506670456845206 0.4528578407425501
0.04808510638297872 0.4479614036243918 0.4531872670217994
0.048297872340425534 0.44671584028967387 0.4541835185815736
0.04851063829787234 0.4475735392705983 0.4540137126398775
0.048723404255319146 0.4455748268126807 0.4528578407425501
0.04893617021276596 0.44406448461162684 0.4528578407425501
0.049148936170212765 0.44714682328860494 0.4534743084779457
0.04936170212765957 0.44688851135018354 0.45246076623801523
0.049574468085106384 0.4460185637518319 0.45342053709081936
0.04978723404255319 0.44952344152801643 0.4538348803126526
0.05 0.4431260840952643 0.4528578407425501
0.05021276595744681 0.44576069121083306 0.4528578407425501
0.050425531914893615 0.4428396970513189 0.4528578407425501
0.05063829787234043 0.44127173565159056 0.4538264289944509
0.050851063829787234 0.4420133924112082 0.45892101325156115
0.05106382978723404 0.4411556840596378 0.45188080117244755
0.05127659574468085 0.4420487743616875 0.45169590784324537
0.05148936170212766 0.44122841166972804 0.44904472823054875
0.051702127659574465 0.4422816803188225 0.44995526784014245
0.05191489361702128 0.44750053152255037 0.450825076374097
0.052127659574468084 0.4415277818739435 0.4500981539750831
0.05234042553191489 0.44176346882156453 0.44992672203224227
0.0525531914893617 0.44128200602623047 0.4515835209226246
0.05276595744680851 0.4437912597502323 0.450994836556143
0.05297872340425532 0.4424259041998658 0.4500844713964644
0.05319148936170213 0.44211040547142155 0.4523417542211595
0.053404255319148934 0.4437565903897983 0.4520347482833618
0.05361702127659575 0.4418232681893014 0.45038665689089724
0.05382978723404255 0.44188392293335066 0.45142783609630566
0.05404255319148936 0.44211040547142155 0.44868446167637804
0.05425531914893617 0.44294723002365083 0.4488094674442665
0.05446808510638298 0.4430874450415241 0.4498221288133775
0.054680851063829784 0.4430874450415241 0.4461737235639058
0.0548936170212766 0.4421566286108873 0.4469493801824687
0.0551063829787234 0.44381586182875227 0.4478483315005999
0.05531914893617021 0.44494543438938317 0.4488535926697935
0.05553191489361702 0.4415076858472398 0.4480662228785174
0.05574468085106383 0.4426582911968728 0.4487351055398141
0.055957446808510634 0.4418287403910817 0.44894968246213973
0.05617021276595745 0.4433395036634309 0.44950121690266764
0.05638297872340425 0.4450415241817294 0.45211395089560097
0.056595744680851066 0.4450415241817294 0.4496804990901199
0.05680851063829787 0.44635797981282077 0.4476538311374803
0.05702127659574468 0.448234519999938 0.4479726428920372
0.05723404255319149 0.44894968246213973 0.44852609431050794
0.0574468085106383 0.44846494841239465 0.4479802143626495
0.057659574468085104 0.44965892509498784 0.4495250266263604
0.05787234042553192 0.45228926579642403 0.4512239822466441
0.05808510638297872 0.4528578407425501 0.44894968246213973
0.05829787234042553 0.4543719300769694 0.4479402895725268
0.05851063829787234 0.45521582261120885 0.44814187700523245
0.05872340425531915 0.4554173216599777 0.4501604860165846
0.058936170212765954 0.4569332292669311 0.4514758965093815
0.05914893617021277 0.4583030219256745 0.45076083450722443
0.05936170212765957 0.4581253813509445 0.45171081246890543
0.059574468085106386 0.45718408843943004 0.45062204012801815
0.05978723404255319 0.4562435750928589 0.4494721063922413
0.06 0.4572325581325019 0.4504079215921236
0.06021276595744681 0.4587200781631655 0.45179152347244517
0.06042553191489362 0.45723359334516767 0.4488938812278889
0.06063829787234042 0.45637618088989484 0.44797763136691404
0.060851063829787236 0.45676599902296044 0.45053819099678055
0.06106382978723404 0.4560939872983706 0.45023174987775494
0.06127659574468085 0.4572962738935137 0.4514340364728982
0.06148936170212766 0.45933373915253284 0.4574482531305915
0.06170212765957447 0.45799030444852573 0.45274623166656713
0.06191489361702127 0.457743038593063 0.45188080117244755
0.062127659574468086 0.45961073641726524 0.45188080117244755
0.06234042553191489 0.4600063921706994 0.45095297786015415
0.0625531914893617 0.4603295938884924 0.44998337270677496
0.0627659574468085 0.4606527956062854 0.44901376755339584
0.06297872340425532 0.4614459335552679 0.45049323496593396
0.06319148936170213 0.4595551092121214 0.45020506571522756
0.06340425531914894 0.45940104604056126 0.44788381840005537
0.06361702127659574 0.4590512626764027 0.4482873134356654
0.06382978723404255 0.45755531012758704 0.44953206647992894
0.06404255319148935 0.4562551675225134 0.44992672203224227
0.06425531914893617 0.45622000755672837 0.45078881823998324
0.06446808510638298 0.4570840042185652 0.4502907751944235
0.06468085106382979 0.45730449657927597 0.44787268734950847
0.06489361702127659 0.4551276891091049 0.45222630228985056
0.0651063829787234 0.45475142872871915 0.4528578407425501
0.06531914893617022 0.45468067381735616 0.4528578407425501
0.06553191489361702 0.4546099189059931 0.4528578407425501
0.06574468085106383 0.45453916399463007 0.4528578407425501
0.06595744680851064 0.4544684090832671 0.4528578407425501
0.06617021276595744 0.45439765417190403 0.4528578407425501
0.06638297872340425 0.454326899260541 0.4528578407425501
0.06659574468085107 0.454256144349178 0.4528578407425501
0.06680851063829787 0.45418538943781495 0.4528578407425501
0.06702127659574468 0.4541146345264519 0.4528578407425501
0.06723404255319149 0.45404387961508885 0.4528578407425501
0.06744680851063829 0.45397312470372586 0.4528578407425501
0.06765957446808511 0.4539023697923628 0.4528578407425501
0.06787234042553192 0.4536829347606761 0.4528578407425501
0.06808510638297872 0.45039060002362036 0.4528578407425501
0.06829787234042553 0.4479726428920372 0.4528578407425501
0.06851063829787234 0.4479726428920372 0.4528578407425501
0.06872340425531914 0.4471875762712363 0.45207277412174934
0.06893617021276596 0.4477155770871649 0.44972087987675646
0.06914893617021277 0.44745275634755977 0.4484297959176624
0.06936170212765957 0.4467179412126493 0.4488056292198926
0.06957446808510638 0.44618260122108855 0.4506577053984599
0.06978723404255319 0.4478587935229247 0.44802956757659346
0.06999999999999999 0.44412526936222885 0.44989632965694126
0.07021276595744681 0.4431044757259653 0.4508867309179036
0.07042553191489362 0.44399353659464147 0.4518098531554622
0.07063829787234042 0.44406448461162684 0.45277779874434537
0.07085106382978723 0.44143552732204183 0.45198152164602184
0.07106382978723404 0.442043196987094 0.4527906322582225
0.07127659574468086 0.44127356193436357 0.4536946842796081
0.07148936170212766 0.44189249523967067 0.45914878568111434
0.07170212765957447 0.4403842701907214 0.4577972651688706
0.07191489361702127 0.43917928676111373 0.4535666835224695
0.07212765957446808 0.4384346086167971 0.4512761006745032
0.07234042553191489 0.43777174101586114 0.4510610010800188
0.0725531914893617 0.43940967297025924 0.4491800686712852
0.07276595744680851 0.440361451288357 0.4501318469893828
0.07297872340425532 0.44138395158020294 0.4514049329601127
0.07319148936170213 0.44072106603339267 0.45313570863015584
0.07340425531914893 0.4366484434893962 0.4521045879181153
0.07361702127659574 0.4361051894318158 0.44825066320907464
0.07382978723404256 0.4384066496310279 0.4495628897821899
0.07404255319148936 0.43917928676111373 0.45048549988435616
0.07425531914893617 0.4399345202898416 0.44812845361502623
0.07446808510638298 0.440210668796009 0.44992672203224227
0.07468085106382978 0.44182281469623214 0.44834060527117126
0.0748936170212766 0.4434629690899829 0.4494016654085098
0.07510638297872341 0.4430874450415241 0.44677967984904904
0.07531914893617021 0.44522042834329345 0.44717450748349874
0.07553191489361702 0.4460185637518319 0.4472233296200887
0.07574468085106383 0.44723737722722373 0.4500426370104139
0.07595744680851063 0.4479726428920372 0.4507927715245999
0.07617021276595745 0.4497656556852322 0.4511220638943724
0.07638297872340426 0.4509037616023448 0.44997562108228556
0.07659574468085106 0.4509037616023448 0.44964361101543227
0.07680851063829787 0.4494212389070587 0.4506679833798853
0.07702127659574468 0.44894968246213973 0.45009671573342364
0.0772340425531915 0.4496395431845357 0.4492368613098463
0.0774468085106383 0.4512453894782599 0.448290348739131
0.07765957446808511 0.4505377681314705 0.4506587089739912
0.07787234042553191 0.4519720673608438 0.45188080117244755
0.07808510638297872 0.45356750862502243 0.45188080117244755
0.07829787234042553 0.4538348803126526 0.4511104319068423
0.07851063829787235 0.4538348803126526 0.4492588398809224
0.07872340425531915 0.4529534088934925 0.45335703955794066
0.07893617021276596 0.45477548072540663 0.44808196036408277
0.07914893617021276 0.4558592541066712 0.44992672203224227
0.07936170212765957 0.457743038593063 0.4501255527658433
0.07957446808510638 0.4576171063569286 0.4516289367001788
0.0797872340425532 0.45686722445440864 0.4501291728951387
0.08 0.4552398048759634 0.4514529161792393
0.08021276595744681 0.4578434155308131 0.45339654899647647
0.08042553191489361 0.4553860841866036 0.45216788332437174
0.08063829787234042 0.4557509343825617 0.45000277217283474
0.08085106382978724 0.4568398543898479 0.45654443292229796
0.08106382978723405 0.45756196724819426 0.4549213083818652
0.08127659574468085 0.4582977384216577 0.4569399868156131
0.08148936170212766 0.45960086473601774 0.4509037616023448
0.08170212765957446 0.4562900963094885 0.4537591778831766
0.08191489361702127 0.4579224932184124 0.4535656983746287
0.08212765957446809 0.46030915543336154 0.4509037616023448
0.0823404255319149 0.4593186635908544 0.45022601474608664
0.0825531914893617 0.45748470233472277 0.45425053743179206
0.08276595744680851 0.45798018099593696 0.453730544090519
0.08297872340425531 0.4580463084537256 0.4505332617535676
0.08319148936170212 0.46001313882462486 0.4476566218006804
0.08340425531914894 0.4605276116442014 0.44743524029944265
0.08361702127659575 0.46034282234070933 0.44798960820991895
0.08382978723404255 0.4601580330372172 0.4485439761203953
0.08404255319148936 0.4599732437337251 0.4490983440308717
0.08425531914893616 0.45978845443023303 0.44965271194134804
0.08446808510638298 0.45828524183392744 0.4510562227517149
0.08468085106382979 0.455493457059256 0.453289650571452
0.0848936170212766 0.45630409880529244 0.4530887908513841
0.0851063829787234 0.46229601709662105 0.45364784332450153
0.08531914893617021 0.46007444839715433 0.4538348803126526
0.08553191489361701 0.45383913780683943 0.44895323037396206
0.08574468085106383 0.4527914524921548 0.44992672203224227
0.08595744680851064 0.4519713221505028 0.4500172430102975
0.08617021276595745 0.453285071339301 0.45104617180126183
0.08638297872340425 0.4551992634844655 0.45188080117244755
0.08659574468085106 0.45261318713337456 0.4523701083907986
0.08680851063829788 0.45188080117244755 0.45431159224753576
0.08702127659574468 0.45158770128122977 0.456668259126511
0.08723404255319149 0.4505277408445933 0.4572159951321593
0.0874468085106383 0.44900002142956746 0.45388521928008035
0.0876595744680851 0.4491513870522109 0.45246492602249216
0.08787234042553191 0.4507137254130794 0.4522608735509783
0.08808510638297873 0.4499790889065385 0.45373014656406024
0.08829787234042553 0.4508945808724283 0.4518991626322805
0.08851063829787234 0.446293634122627 0.45188080117244755
0.08872340425531915 0.44531485449967423 0.4504733826681321
0.08893617021276595 0.44555327728892735 0.45043847513944024
0.08914893617021276 0.44558820409000854 0.45219484058781506
0.08936170212765958 0.4446092763173201 0.45253813671942467
0.08957446808510638 0.44603933716303634 0.45169370262290864
0.08978723404255319 0.44714972989547624 0.45315783283699396
0.09 0.4430874450415241 0.45400916798985647
0.0902127659574468 0.4430874450415241 0.45534924051284653
0.09042553191489362 0.4435796938196463 0.4557889594528579
0.09063829787234043 0.4432078409580788 0.45493231579930987
0.09085106382978723 0.44097251906739376 0.4525361470746996
0.09106382978723404 0.4401563263312165 0.4509037616023448
0.09127659574468085 0.4401563263312165 0.4509037616023448
0.09148936170212765 0.43991732194551386 0.45066475721664223
0.09170212765957447 0.4392534291779402 0.4500008644490687
0.09191489361702128 0.43793443537296134 0.45158652388311227
0.09212765957446808 0.43653308337333746 0.4534549932159441
0.09234042553191489 0.43977494789181965 0.45282722892950594
0.0925531914893617 0.44249423682742267 0.45173249911892216
0.0927659574468085 0.4401376193852891 0.4511433447583887
0.09297872340425532 0.4397847551157147 0.4509037616023448
0.09319148936170213 0.4401563263312165 0.4509037616023448
0.09340425531914893 0.44165168983920444 0.4509037616023448
0.09361702127659574 0.4399297292347741 0.45017686952346236
0.09382978723404255 0.43971019612488926 0.45045763139601763
0.09404255319148937 0.43978006670134395 0.4509037616023448
0.09425531914893617 0.4399993293234678 0.4521338254458759
0.09446808510638298 0.441133365901319 0.4522977735493397
0.09468085106382979 0.441133365901319 0.45273399624549415
0.09489361702127659 0.4424832646209495 0.45113508287339155
0.0951063829787234 0.4425247149685408 0.44992672203224227
0.09531914893617022 0.44400116454361577 0.4489813424961452
0.09553191489361702 0.4465368239766993 0.44952742356663933
0.09574468085106383 0.44699560332193444 0.4500117229226785
0.09595744680851064 0.44699560332193444 0.44894968246213973
0.09617021276595744 0.44617536685160575 0.4493598006973041
0.09638297872340426 0.4469268111015992 0.44992672203224227
0.09659574468085107 0.45059726726899 0.44937752709662554
0.09680851063829787 0.4499721599551029 0.4502221099403694
0.09702127659574468 0.44966380158411157 0.4494755233584011
0.09723404255319149 0.44920673143206197 0.44966967306232003
0.09744680851063829 0.45081072256358773 0.44992672203224227
0.09765957446808511 0.45129542516913346 0.4510974740388703
0.09787234042553192 0.452012781980043 0.4540988419278439
0.09808510638297872 0.4528578407425501 0.45319746145836093
0.09829787234042553 0.45393980417467444 0.4514447433184071
0.09851063829787234 0.4554250028081148 0.45188080117244755
0.09872340425531914 0.4557889594528579 0.45123001728373757
0.09893617021276596 0.4552813923472824 0.4509037616023448
0.09914893617021277 0.4556263541901857 0.45036080539739115
0.09936170212765957 0.457731316692492 0.44893796056156876
0.09957446808510638 0.4566302650090134 0.44783690887809
0.09978723404255319 0.4557889594528579 0.44699560332193444
0.1 0.4557889594528579 0.44699560332193444
0.10021276595744681 0.45632012216625106 0.44699560332193444
0.10042553191489362 0.457390396069468 0.44699560332193444
0.10063829787234042 0.4586323018038218 0.44725893239996556
0.10085106382978723 0.45788374925998165 0.4499032702544225
0.10106382978723404 0.46334402136690184 0.4490541843208504
0.10127659574468086 0.45876232881798845 0.4510305135668136
0.10148936170212766 0.4597355127392623 0.45375809030066466
0.10170212765957447 0.46044593784470117 0.45233724008978676
0.10191489361702127 0.4592351058624092 0.4551022558538664
0.10212765957446808 0.4631409099805811 0.45212908669029883
0.10234042553191489 0.46516720348913954 0.4528578407425501
0.1025531914893617 0.4606741573033708 0.4520633902491036
0.10276595744680851 0.4606741573033708 0.4509037616023448
0.10297872340425532 0.4606741573033708 0.4511417591969596
0.10319148936170212 0.46077998023115796 0.4519866241002347
0.10340425531914893 0.46156004595894995 0.4527666898280267
0.10361702127659575 0.4612136616147469 0.45188080117244755
0.10382978723404256 0.4626225251319189 0.4517170093588209
0.10404255319148936 0.45919726718815396 0.45061291588332664
0.10425531914893617 0.46137751724475534 0.4503436284318491
0.10446808510638297 0.45969711773326827 0.4509037616023448
0.10468085106382978 0.46037321800118974 0.45157986187026644
0.1048936170212766 0.4582531108315954 0.45107378568185563
0.1051063829787234 0.457743038593063 0.4518352712278092
0.10531914893617021 0.45668048303336045 0.45374936432305263
0.10553191489361702 0.4557889594528579 0.4528578407425501
0.10574468085106382 0.455436019330405 0.45321078086500294
0.10595744680851064 0.45481191988275516 0.4538348803126526
0.10617021276595745 0.45481191988275516 0.4526009129424305
0.10638297872340426 0.45481191988275516 0.4526141063875222
0.10659574468085106 0.45330958549331 0.4521066735478275
0.10680851063829787 0.4520899607363542 0.45188080117244755
0.10702127659574467 0.45025407769703146 0.4526941629101555
0.1072340425531915 0.4508213721108483 0.4537524908211561
0.1074468085106383 0.4499569794694889 0.4548421773200018
0.1076595744680851 0.451679874908366 0.45656507275887886
0.10787234042553191 0.44979013013249625 0.45476638924950646
0.10808510638297872 0.4471113200112336 0.4538348803126526
0.10829787234042552 0.44777608838842153 0.4538348803126526
0.10851063829787234 0.4464235671091708 0.4544069165254163
0.10872340425531915 0.44578543895909906 0.4546730872868033
0.10893617021276596 0.4474309899221341 0.4541640005431488
0.10914893617021276 0.4472107020180668 0.45350313683094684
0.10936170212765957 0.44503250930396776 0.4501732356442083
0.10957446808510639 0.44211040547142155 0.45114142498341075
0.1097872340425532 0.44287006653578526 0.4521340215272354
0.11 0.444312211608937 0.4528578407425501
0.1102127659574468 0.44232630284847657 0.45242604598844
0.11042553191489361 0.4429480998409435 0.45118245200350593
0.11063829787234042 0.4419862826135297 0.452919902171496
0.11085106382978724 0.4401563263312165 0.4538184162707425
0.11106382978723404 0.4401563263312165 0.4521874736701149
0.11127659574468085 0.4395139327300036 0.4499536203688092
0.11148936170212766 0.4386879728250995 0.4504236242701824
0.11170212765957446 0.4378231621250465 0.45263897130437686
0.11191489361702127 0.43722520762090866 0.4538348803126526
0.11212765957446809 0.43722520762090866 0.4538348803126526
0.1123404255319149 0.43628163989298063 0.4528913125847246
0.1125531914893617 0.43624816805080613 0.45279520127041717
0.1127659574468085 0.4366272518817684 0.45188080117244755
0.11297872340425531 0.44055139364152734 0.45217178730234336
0.11319148936170213 0.43722520762090866 0.4551224476805025
0.11340425531914894 0.43705498022670786 0.4609702872966701
0.11361702127659574 0.4366126075589591 0.45683193982268055
0.11382978723404255 0.438030722300078 0.4525147909606836
0.11404255319148936 0.4375101874777708 0.45104625153077593
0.11425531914893616 0.43912192861351 0.45185212209864567
0.11446808510638298 0.44008768168631074 0.45188080117244755
0.11468085106382979 0.44253522071998563 0.45188080117244755
0.1148936170212766 0.4402743989407024 0.45047427812203666
0.1151063829787234 0.4404802715135028 0.44927622965604785
0.11531914893617021 0.448368501272177 0.4496074220413086
0.11553191489361703 0.4455618583284464 0.4485225125113532
0.11574468085106383 0.4437427819842231 0.44928331677743494
0.11595744680851064 0.4454187858239382 0.4492495714260866
0.11617021276595745 0.4460185637518319 0.4497080738709602
0.11638297872340425 0.4476708419756578 0.44744830469650354
0.11659574468085106 0.44617965421131683 0.44968508634301485
0.11680851063829788 0.4460185637518319 0.4480342138833302
0.11702127659574468 0.4479726428920372 0.4479726428920372
0.11723404255319149 0.4480766797848726 0.44786860599920175
0.1174468085106383 0.44874995017150743 0.4475948001938314
0.1176595744680851 0.44822169591278377 0.4494286159907492
0.11787234042553191 0.4492161735688746 0.44850562510550696
0.11808510638297873 0.45053727036835733 0.4490108995280697
0.11829787234042553 0.452569791915863 0.44699560332193444
0.11851063829787234 0.4546248456647631 0.4477855686740449
0.11872340425531915 0.4557889594528579 0.4494576785391953
0.11893617021276595 0.4570270917663415 0.4493076558755005
0.11914893617021277 0.4569976994429883 0.44894968246213973
0.11936170212765958 0.4558905946416198 0.44894968246213973
0.11957446808510638 0.457743038593063 0.4489762765115561
0.11978723404255319 0.457743038593063 0.4500395174834987
0.12 0.45816137332672485 0.4532771006677701
0.1202127659574468 0.4605386279106764 0.45046883960302
0.12042553191489362 0.45969711773326827 0.4525364646260967
0.12063829787234043 0.45969711773326827 0.44885366885290795
0.12085106382978723 0.45939328735318646 0.4502961008421813
0.12106382978723404 0.45913647694806753 0.4499906794243947
0.12127659574468085 0.4600798991593609 0.45264636402463293
0.12148936170212765 0.45908531420821685 0.45138766621244736
0.12170212765957447 0.4613654809182272 0.4530006987201732
0.12191489361702128 0.46167271701950463 0.4509145216753605
0.12212765957446808 0.46191460959291114 0.4510354679620638
0.12234042553191489 0.46242001636827235 0.45188080117244755
0.1225531914893617 0.46219373383665247 0.4513382642092683
0.12276595744680852 0.4631316741938824 0.45140719935265133
0.12297872340425532 0.4641542030740088 0.45407650941376837
0.12319148936170213 0.46523367200228094 0.45253217736035883
0.12340425531914893 0.4632375893571285 0.45167768353459664
0.12361702127659574 0.45998360534126426 0.45188080117244755
0.12382978723404255 0.45969711773326827 0.45188080117244755
0.12404255319148937 0.4620473852278557 0.44874711117966415
0.12425531914893617 0.46103371679547606 0.4479726428920372
0.12446808510638298 0.4623642579438958 0.4488176932122997
0.12468085106382978 0.4591905722149211 0.45152793063363084
0.12489361702127659 0.4587200781631655 0.4537264327426505
0.1251063829787234 0.457743038593063 0.4529088572179773
0.12531914893617022 0.45735665428951017 0.4546831251149042
0.125531914893617 0.4544106579306442 0.4536342493365972
0.12574468085106383 0.4543102060571457 0.4540197329942266
0.12595744680851065 0.45620443830904533 0.4544580985969339
0.12617021276595744 0.45291473696124396 0.4518239049537536
0.12638297872340426 0.45188080117244755 0.4528578407425501
0.12659574468085105 0.4512562600804472 0.4528578407425501
0.12680851063829787 0.45290936665633547 0.45218930572455324
0.1270212765957447 0.45043417079717996 0.45256094307554207
0.12723404255319148 0.44894968246213973 0.4492442401346022
0.1274468085106383 0.44894968246213973 0.4509526272538815
0.1276595744680851 0.4481922045031828 0.4503658452545335
0.12787234042553192 0.4479726428920372 0.4513972073720351
0.1280851063829787 0.44598830954785534 0.45188080117244755
0.12829787234042553 0.44441847830556874 0.4512577552962868
0.12851063829787235 0.4460412769275793 0.4509037616023448
0.12872340425531914 0.4477014194781252 0.4511749850162568
0.12893617021276596 0.4470100637490679 0.45187357095888087
0.12914893617021275 0.44871818369966543 0.45101951098358195
0.12936170212765957 0.4456259756336758 0.44924190818811294
0.1295744680851064 0.4450415241817294 0.4497961430363689
0.12978723404255318 0.4441383245109061 0.4481203226905957
0.13 0.4432251359775981 0.4488119915260657
0.1302127659574468 0.4422562868817716 0.44811852430238724
0.13042553191489362 0.44559916973645125 0.4505892160908093
0.13063829787234044 0.4441510680890461 0.4518375094337379
0.13085106382978723 0.4440564738027302 0.453826869503756
0.13106382978723405 0.4430874450415241 0.45310760062975
0.13127659574468084 0.4430874450415241 0.4551926231936272
0.13148936170212766 0.4429181688896732 0.4520500773242984
0.13170212765957448 0.44211040547142155 0.4528033809779447
0.13191489361702127 0.44211040547142155 0.4520483021272321
0.1321276595744681 0.44135721341683176 0.45188080117244755
0.13234042553191488 0.44283679861836023 0.45188080117244755
0.1325531914893617 0.44210236392387264 0.45381075567000584
0.1327659574468085 0.4408451372848848 0.45104787591056195
0.13297872340425532 0.439457135651299 0.45160295228226227
0.13319148936170214 0.43940805324597465 0.4501554885171031
0.13340425531914893 0.44175206534269024 0.44761850065526004
0.13361702127659575 0.44142769698356116 0.44716628044389967
0.13382978723404254 0.440327493274877 0.4472642275307485
0.13404255319148936 0.4419778809573345 0.446151088265919
0.13425531914893618 0.4391820341749827 0.4460185637518319
0.13446808510638297 0.4422436636649418 0.4482391592790776
0.1346808510638298 0.4425504647057517 0.44965823186435605
0.13489361702127659 0.44273788147402376 0.4505541980348445
0.1351063829787234 0.44396796718138265 0.4523210622423768
0.13531914893617022 0.44509854589977416 0.45054006726694745
0.13553191489361702 0.4460185637518319 0.45073188608290377
0.13574468085106384 0.4460185637518319 0.4500576593474397
0.13595744680851063 0.4460185637518319 0.44992672203224227
0.13617021276595745 0.44614039068390177 0.45236810890072693
0.13638297872340424 0.44699560332193444 0.4542628810469401
0.13659574468085106 0.44660652339970136 0.4507048818767085
0.13680851063829788 0.44759723657669676 0.4529332497223574
0.13702127659574467 0.4476262713537113 0.4538348803126526
0.1372340425531915 0.44619708913848877 0.4514393377623155
0.13744680851063829 0.4488235254817068 0.44622882538588676
0.1376595744680851 0.44976000744699585 0.44903303975476294
0.13787234042553193 0.44862632288915494 0.4494909353674971
0.13808510638297872 0.4509037616023448 0.4505310314431858
0.13829787234042554 0.4509037616023448 0.4514304984122403
0.13851063829787233 0.45197130387150114 0.44771037985462
0.13872340425531915 0.453527639488881 0.44992672203224227
0.13893617021276597 0.45544240689361665 0.44912295874176034
0.13914893617021276 0.45390753164323233 0.4527125380813907
0.13936170212765958 0.4537344508421722 0.451981230642928
0.13957446808510637 0.45395132896628565 0.4524204454530558
0.1397872340425532 0.457450844084178 0.4511959561112298
0.13999999999999999 0.4559198729067231 0.45188080117244755
0.1402127659574468 0.4553691784543807 0.45188080117244755
0.14042553191489363 0.457143073210128 0.4512037442938124
0.14063829787234042 0.45851263099370626 0.4501341692017015
0.14085106382978724 0.4587200781631655 0.44992672203224227
0.14106382978723403 0.4606491037752164 0.45185574764429315
0.14127659574468085 0.4569964948562581 0.4500419699488911
0.14148936170212767 0.45676599902296044 0.44907108488361597
0.14170212765957446 0.460434733957804 0.45188467041001457
0.14191489361702128 0.46283930859032407 0.44988756145042347
0.14212765957446807 0.46165402006874556 0.4494360848507369
0.1423404255319149 0.4605061405192835 0.4504992502093372
0.1425531914893617 0.46165119687347334 0.4493143288134039
0.1427659574468085 0.4618846805013663 0.4479726428920372
0.14297872340425533 0.46206040140709403 0.44882439544675995
0.14319148936170212 0.4606741573033708 0.4509037616023448
0.14340425531914894 0.4602161104241881 0.4527359491190759
0.14361702127659573 0.45969711773326827 0.45452354776631104
0.14382978723404255 0.45969711773326827 0.45396617987348303
0.14404255319148937 0.45969711773326827 0.45340881198065497
0.14425531914893616 0.45969711773326827 0.45285144408782696
0.14446808510638298 0.45969711773326827 0.45229407619499895
0.14468085106382977 0.4595085700426614 0.45150370579123383
0.1448936170212766 0.4587792457616652 0.4500450572292416
0.1451063829787234 0.45693345333256347 0.4490334096169412
0.1453191489361702 0.45676599902296044 0.44894968246213973
0.14553191489361703 0.4576138235884427 0.45149315615858665
0.14574468085106382 0.4570993137074115 0.4522026636152733
0.14595744680851064 0.4563533002269271 0.45257567035551544
0.14617021276595746 0.4556072867464427 0.45294867709575765
0.14638297872340425 0.45486127326595843 0.4533216838359998
0.14659574468085107 0.454115259785474 0.45369469057624195
0.14680851063829786 0.4533692463049897 0.4540676973164841
0.14702127659574468 0.45262323282450534 0.45444070405672626
0.14723404255319147 0.45187217055655604 0.45480328926686364
0.1474468085106383 0.4500746093578543 0.45300572806816214
0.14765957446808511 0.44992672203224227 0.45431100128821394
0.1478723404255319 0.44922257665331156 0.45340362912489374
0.14808510638297873 0.4481778628910856 0.4528578407425501
0.14829787234042552 0.44966811023309156 0.4554010417541318
0.14851063829787234 0.4469865452484748 0.45211373847314845
0.14872340425531916 0.44466999688339864 0.45157804503656157
0.14893617021276595 0.4437858042299167 0.45188080117244755
0.14914893617021277 0.4433763886514432 0.45188080117244755
0.14936170212765956 0.44334149922543703 0.4513726928046218
0.14957446808510638 0.4443509697758964 0.4506429349429162
0.1497872340425532 0.4459024161923982 0.4547538461030383
0.15 0.4444063868070026 0.4533220270195889
0.15021276595744681 0.44513327078143033 0.45149395691594585
0.1504255319148936 0.4430874450415241 0.45244761339599454
0.15063829787234043 0.4425493656407105 0.4534950393748882
0.15085106382978725 0.4407737349586974 0.45347524937003103
0.15106382978723404 0.44174410850747015 0.4536517318306769
0.15127659574468086 0.44211040547142155 0.4529103581910233
0.15148936170212765 0.4410707163149655 0.4491376312212002
0.15170212765957447 0.4402132639191311 0.4517099884087036
0.15191489361702126 0.4411231782120924 0.4490006209082727
0.15212765957446808 0.4401563263312165 0.4530510506381645
0.1523404255319149 0.4403808316843396 0.4478936247344269
0.1525531914893617 0.442476704138777 0.4525829343991673
0.15276595744680851 0.4441458016162794 0.4526539304737833
0.1529787234042553 0.4436457196548207 0.45118278091532565
0.15319148936170213 0.4420595953990433 0.4521895443383556
0.15340425531914895 0.4387930169425188 0.4534410338116476
0.15361702127659574 0.4425734819532111 0.45470912726509255
0.15382978723404256 0.44209660913640264 0.4499405183672612
0.15404255319148935 0.441133365901319 0.4510351143037343
0.15425531914893617 0.44137880568856974 0.45138992159794605
0.154468085106383 0.4410270333950233 0.44992672203224227
0.15468085106382978 0.44059715801812777 0.4494540982799043
0.1548936170212766 0.44328091574564416 0.44953493759925095
0.1551063829787234 0.44406448461162684 0.44992672203224227
0.15531914893617021 0.4448807173421073 0.45074295476272275
0.155531914893617 0.44690022355861286 0.449974411913903
0.15574468085106383 0.4442153361642054 0.44992672203224227
0.15595744680851065 0.4441551699783141 0.44992672203224227
0.15617021276595744 0.44707826900096687 0.4500920533903071
0.15638297872340426 0.4480140351392955 0.4519635856669644
0.15659574468085105 0.448949801277624 0.45383511794362147
0.15680851063829787 0.4498855674159527 0.45570665022027873
0.1570212765957447 0.4492126299751466 0.4500762229960921
0.15723404255319148 0.44894968246213973 0.44667338319048666
0.1574468085106383 0.4496417151833703 0.44463449830937074
0.1576595744680851 0.45055827993832476 0.44722227414203947
0.15787234042553192 0.4514069516884469 0.44894968246213973
0.15808510638297874 0.45231213567286094 0.4493810169625531
0.15829787234042553 0.45378476389027717 0.45178056832769653
0.15851063829787235 0.45481191988275516 0.45076308255982406
0.15872340425531914 0.45481191988275516 0.4479726428920372
0.15893617021276596 0.45481191988275516 0.44842198469605055
0.15914893617021275 0.45481191988275516 0.4499319580253112
0.15936170212765957 0.4564024458054319 0.4514339369099038
0.1595744680851064 0.45820465358970963 0.4509575711791542
0.15978723404255318 0.4601966143575713 0.44963141479336116
0.16 0.4630124535866579 0.4488311179767356
0.1602127659574468 0.4588316971868841 0.448307499963193
0.16042553191489362 0.46055833213687164 0.45348740481315514
0.16063829787234044 0.46009274212214274 0.4505081372134703
0.16085106382978723 0.46137688449230213 0.4503212443679957
0.16106382978723405 0.4606741573033708 0.45185662770093177
0.16127659574468084 0.46025529841550755 0.44881036066776364
0.16148936170212766 0.4602198791977799 0.4509722449612657
0.16170212765957448 0.46005980854360373 0.45188080117244755
0.16191489361702127 0.46165292581164197 0.45774822540756893
0.1621276595744681 0.4593095990342512 0.4560280649303162
0.16234042553191488 0.45887108817321964 0.4538348803126526
0.1625531914893617 0.4607328362104156 0.45228130259693144
0.1627659574468085 0.46106245019839054 0.450315014927262
0.16297872340425532 0.46003617583912215 0.44992672203224227
0.16319148936170214 0.460354578963769 0.4512416444932439
0.16340425531914893 0.4599734011535814 0.45188080117244755
0.16361702127659575 0.45969711773326827 0.4525914201625122
0.16382978723404254 0.45926257531005993 0.4528578407425501
0.16404255319148936 0.45866338868363943 0.4528578407425501
0.16425531914893618 0.458064202057219 0.4528578407425501
0.16446808510638297 0.4574650154307986 0.4528578407425501
0.1646808510638298 0.4568658288043781 0.4528578407425501
0.16489361702127658 0.4562666421779577 0.4528578407425501
0.1651063829787234 0.4552669737055328 0.45268384549344176
0.16531914893617022 0.45298475692695805 0.45194425926465154
0.16553191489361702 0.454657106316423 0.45301265430888227
0.16574468085106384 0.4530919816249576 0.4546558259611502
0.16595744680851063 0.4553707096413794 0.4531366739502024
0.16617021276595745 0.45416057955486855 0.4520436507935555
0.16638297872340424 0.4512537953791287 0.45188080117244755
0.16659574468085106 0.4509037616023448 0.4600912568978197
0.16680851063829788 0.44990416743789735 0.4551763893989094
0.16702127659574467 0.4494112856703778 0.44974208074894706
0.1672340425531915 0.4537980477098895 0.4479873759331425
0.16744680851063828 0.4480210727517331 0.45087954667249686
0.1676595744680851 0.44732352332034986 0.45155288117403214
0.16787234042553192 0.44724855509655637 0.45188080117244755
0.16808510638297872 0.44775547624817486 0.45188080117244755
0.16829787234042554 0.44678767363912997 0.4512883165459939
0.16851063829787233 0.4460185637518319 0.45436065004181275
0.16872340425531915 0.4475447029414013 0.4550258898580732
0.16893617021276597 0.44960674612126683 0.45399486826814034
0.16914893617021276 0.44717939266160917 0.45475065676953025
0.16936170212765958 0.4459633049014309 0.45600999485446203
0.16957446808510637 0.44473256083553586 0.4590791910408813
0.1697872340425532 0.4433867882082924 0.45593863103624205
0.17 0.4455690510279092 0.45597470875369067
0.1702127659574468 0.4465614529712286 0.4537263427249762
0.17042553191489362 0.4453323765673928 0.45341907362401723
0.17063829787234042 0.44410330016355715 0.4531118045230583
0.17085106382978724 0.4430874450415241 0.45270309698821404
0.17106382978723403 0.4428631117666615 0.45180602341416
0.17127659574468085 0.4401563263312165 0.4508807847969682
0.17148936170212767 0.4401563263312165 0.4504791759721984
0.17170212765957446 0.4401563263312165 0.4500775671474287
0.17191489361702128 0.4401563263312165 0.45100070337417464
0.17212765957446807 0.4401563263312165 0.45043517922468546
0.1723404255319149 0.4406180801672828 0.44894968246213973
0.1725531914893617 0.4419019445160716 0.44894968246213973
0.1727659574468085 0.44286281465820354 0.4490994360510201
0.17297872340425532 0.442149916862148 0.44957470124839044
0.17319148936170212 0.4414370190660926 0.45004996644576073
0.17340425531914894 0.44072412127003713 0.4505252316431311
0.17361702127659576 0.4413127432297358 0.4509037616023448
0.17382978723404255 0.4449685349848864 0.45125377119132665
0.17404255319148937 0.4405903029722708 0.4528578407425501
0.17425531914893616 0.4426282937157033 0.4520810083761275
0.17446808510638298 0.44406448461162684 0.45019692548767787
0.17468085106382977 0.4442543902792424 0.45061890310092145
0.1748936170212766 0.44508992051609103 0.44936560774564854
0.1751063829787234 0.44592545075293966 0.4481123123903756
0.1753191489361702 0.4464921533534272 0.44844623249363247
0.17553191489361702 0.44706371518755944 0.4489837383949522
0.17574468085106382 0.4482927897804989 0.4495982756914219
0.17595744680851064 0.448237107699052 0.44992672203224227
0.17617021276595746 0.4473496998153394 0.4500447541967106
0.17638297872340425 0.44922420506189736 0.4506695892788965
0.17659574468085107 0.45019189375590785 0.45083746867142843
0.17680851063829786 0.45061601556440917 0.45073143821930306
0.17702127659574468 0.45104013737291054 0.45062540776717774
0.1772340425531915 0.4514642591814119 0.4505193773150524
0.1774468085106383 0.4518883809899133 0.45041334686292706
0.1776595744680851 0.4523125027984147 0.45030731641080174
0.1778723404255319 0.452736624606916 0.4502012859586764
0.17808510638297873 0.45316074641541737 0.45009525550655105
0.17829787234042552 0.4535848682239187 0.44998922505442573
0.17851063829787234 0.4555391630776958 0.44992672203224227
0.17872340425531916 0.4596907032069503 0.44992672203224227
0.17893617021276595 0.45639566969364875 0.44992672203224227
0.17914893617021277 0.45644767057752866 0.450585433156913
0.17936170212765956 0.4551747488356569 0.45355584524785075
0.17957446808510638 0.4549670665902169 0.4539019823235841
0.1797872340425532 0.45714040218307667 0.4512781647624611
0.18 0.45877732865192755 0.45280059025378805
0.1802127659574468 0.4596286674547083 0.4519492514510075
0.1804255319148936 0.46052965434777954 0.4521583133772846
0.18063829787234043 0.4614349821214554 0.4524600893018433
0.18085106382978725 0.4623403098951313 0.4527618652264019
0.18106382978723404 0.46234761228190385 0.4527175286617141
0.18127659574468086 0.46193611836653137 0.45251178170402784
0.18148936170212765 0.46152462445115894 0.4523060347463416
0.18170212765957447 0.46111313053578645 0.4521002877886554
0.18191489361702126 0.460701636620414 0.4518945408309692
0.18212765957446808 0.4587814510214913 0.4528271543133872
0.1823404255319149 0.46165119687347334 0.450977437150719
0.1825531914893617 0.46145710700453496 0.4512985315656324
0.1827659574468085 0.460992611582494 0.4492681367412629
0.1829787234042553 0.4629814713776593 0.4494832971975136
0.18319148936170213 0.46263770608294663 0.44943583483734834
0.18340425531914895 0.4606741573033708 0.44992672203224227
0.18361702127659574 0.46124567212233203 0.45278429612704857
0.18382978723404256 0.4597378873593069 0.45608745955886615
0.18404255319148935 0.4580041711461932 0.4560500920059881
0.18425531914893617 0.45856451294584644 0.45496748510007423
0.184468085106383 0.4587200781631655 0.46052105215737504
0.18468085106382978 0.4557889594528579 0.45362570340160846
0.1848936170212766 0.45555152493632395 0.4523556702055153
0.1851063829787234 0.45517957313046775 0.4534672270649401
0.1853191489361702 0.4562846179802014 0.4523621822152066
0.185531914893617 0.45613952142450775 0.453133756369353
0.18574468085106383 0.4542728552422855 0.45231877610208043
0.18595744680851065 0.4538348803126526 0.4527704498471202
0.18617021276595744 0.4537440510286394 0.4546756759567353
0.18638297872340426 0.4529641587580506 0.451700241574847
0.18659574468085105 0.45616680384053826 0.4509037616023448
0.18680851063829787 0.4541645051970814 0.4509037616023448
0.1870212765957447 0.4524735211282758 0.45035118854824785
0.18723404255319148 0.4519894916215225 0.45061431189533563
0.1874468085106383 0.4504032474624436 0.4492673660822739
0.1876595744680851 0.44922856458158467 0.44982237927546176
0.18787234042553191 0.44841337548544197 0.4508413656456401
0.18808510638297873 0.44759818638929927 0.4518603520158185
0.18829787234042553 0.4467829972931567 0.4528793383859967
0.18851063829787235 0.4463635011669534 0.4538348803126526
0.18872340425531914 0.45190356906035467 0.4538348803126526
0.18893617021276596 0.44434310293975604 0.4521319327520939
0.18914893617021278 0.44223622353097203 0.4527320226829996
0.18936170212765957 0.44265248745479824 0.45267714674809123
0.1895744680851064 0.44327540279017025 0.4524695083029672
0.18978723404255318 0.4438983181255422 0.4522618698578433
0.19 0.4445212334609142 0.4520542314127193
0.1902127659574468 0.44487062876081146 0.45170990575152964
0.19042553191489361 0.4443073419303412 0.4513894762397736
0.19063829787234043 0.4450415241817294 0.4517799645894071
0.19085106382978723 0.4445593041617205 0.45233782213228674
0.19106382978723405 0.44345680094708173 0.45177350156003016
0.19127659574468084 0.44740428841554014 0.449207248136573
0.19148936170212766 0.4430830285095454 0.44978777588393887
0.19170212765957448 0.44025679661765243 0.44714630875158834
0.19191489361702127 0.4409090426642083 0.4499828028415199
0.1921276595744681 0.4381470692980558 0.45108813393777425
0.19234042553191488 0.44147516945022114 0.45188080117244755
0.1925531914893617 0.43970466994773855 0.45188080117244755
0.19276595744680852 0.44093602753807654 0.4524663814314351
0.19297872340425531 0.4399571420824529 0.45142233181657093
0.19319148936170213 0.4408755215071034 0.4534481137213292
0.19340425531914893 0.441133365901319 0.44997109063674934
0.19361702127659575 0.4382022471910112 0.4498213545638564
0.19382978723404254 0.4382022471910112 0.4496572873044005
0.19404255319148936 0.43893230961962515 0.4533517950255273
0.19425531914893618 0.440377996527083 0.45234884464620173
0.19446808510638297 0.44071848145771436 0.4536385194021281
0.1946808510638298 0.4427570783183264 0.4486333763384326
0.19489361702127658 0.44231891513378135 0.44874117279977993
0.1951063829787234 0.44121377768930287 0.44894968246213973
0.19531914893617022 0.4439573025269953 0.44992672203224227
0.19553191489361701 0.44228086137216066 0.44992672203224227
0.19574468085106383 0.4435284167947583 0.4508086655387107
0.19595744680851063 0.4450415241817294 0.45359811116741244
0.19617021276595745 0.4462813915334806 0.4525478739046123
0.19638297872340427 0.44727146824515934 0.4523003547266926
0.19659574468085106 0.4476871338576554 0.4512704749369944
0.19680851063829788 0.44864963080519243 0.44864963080519243
0.19702127659574467 0.4472731348850835 0.4507706749198515
0.1972340425531915 0.4509201406236271 0.4510958937121089
0.19744680851063828 0.4527696017223591 0.4509037616023448
0.1976595744680851 0.4548038317167308 0.4489577706281641
0.19787234042553192 0.45371994946074035 0.4496968603284177
0.19808510638297872 0.4526318515592895 0.4479726428920372
0.19829787234042554 0.4522180110401707 0.44763543302431397
0.19851063829787233 0.4528578407425501 0.4474468213973578
0.19872340425531915 0.45398733051552165 0.448537387778523
0.19893617021276597 0.4561632515919691 0.44894968246213973
0.19914893617021276 0.4551919811727019 0.4481626735370105
0.19936170212765958 0.45481191988275516 0.44886554873923473
0.19957446808510637 0.4548345176629141 0.44992672203224227
0.1997872340425532 0.455626726699299 0.4500078384090217
0.2 0.4544370558779153 0.4511044867907657
0.2002127659574468 0.4558086552353193 0.45156168657656715
0.20042553191489362 0.4547116487452383 0.4513421458186377
0.20063829787234042 0.4569023935180889 0.45132408413983194
0.20085106382978724 0.45841838845883576 0.45157911146811774
0.20106382978723403 0.4573118810945522 0.45258489970675425
0.20127659574468085 0.45676599902296044 0.4514966137759681
0.20148936170212767 0.4573658458738871 0.4509037616023448
0.20170212765957446 0.457743038593063 0.4509037616023448
0.20191489361702128 0.457743038593063 0.450496286331054
0.20212765957446807 0.4588040524027398 0.45028039330213454
0.2023404255319149 0.4593738311700651 0.45025359853569197
0.2025531914893617 0.4584913821388453 0.4502437197990534
0.2027659574468085 0.4601334480643235 0.45025867345530546
0.20297872340425532 0.4590479938773902 0.4495988063180177
0.20319148936170212 0.45719956272261897 0.44764594887142223
0.20340425531914894 0.45760042954453795 0.4478300338435121
0.20361702127659576 0.457743038593063 0.4479726428920372
0.20382978723404255 0.45981929312000686 0.4479726428920372
0.20404255319148937 0.45754135161344234 0.4526718514269298
0.20425531914893616 0.45481191988275516 0.455309747441774
0.20446808510638298 0.4548790873654991 0.4520823036206793
0.20468085106382977 0.45571701552743493 0.45459608810648633
0.2048936170212766 0.45393846148251316 0.4520361729272383
0.2051063829787234 0.4554328626300781 0.4526797923311602
0.2053191489361702 0.4545070505960871 0.4528578407425501
0.20553191489361702 0.45305045208771677 0.4528578407425501
0.20574468085106382 0.4519876840507638 0.45275095786423386
0.20595744680851064 0.4528396683411735 0.45189897357382414
0.20617021276595746 0.45282375568022165 0.4557889594528579
0.20638297872340425 0.4516819083212058 0.45618674515534147
0.20659574468085107 0.44992672203224227 0.4592736764302956
0.20680851063829786 0.44925261977920516 0.4563165975209357
0.20702127659574468 0.44761857212439937 0.453254497876593
0.2072340425531915 0.44894968246213973 0.45177742780653274
0.2074468085106383 0.44804934909985833 0.45436175320161454
0.2076595744680851 0.4474223254896843 0.4534081581449029
0.2078723404255319 0.44761096744418183 0.4532195161904054
0.20808510638297872 0.44747349783309565 0.4528790912903304
0.20829787234042554 0.4479726428920372 0.4530718682570157
0.20851063829787234 0.4479726428920372 0.4531164378158057
0.20872340425531916 0.447125245939775 0.4528578407425501
0.20893617021276595 0.44796704290247463 0.44991552205311713
0.20914893617021277 0.4468555949409344 0.4479726428920372
0.20936170212765956 0.4460185637518319 0.4485231125789792
0.20957446808510638 0.4460185637518319 0.44992672203224227
0.2097872340425532 0.4454796810666449 0.44938783934705523
0.21 0.4450415241817294 0.45095774555835644
0.2102127659574468 0.4450415241817294 0.4533023757132079
0.2104255319148936 0.44100254762446756 0.4538348803126526
0.21063829787234042 0.44203446414667813 0.4528958114049218
0.21085106382978724 0.4402441449124809 0.4540983360564458
0.21106382978723404 0.44093030692239227 0.45635988106510683
0.21127659574468086 0.43961293014319597 0.45426852369473475
0.21148936170212765 0.43855117128705307 0.4525089166465082
0.21170212765957447 0.4387709878181741 0.4526973990583269
0.2119148936170213 0.4382022471910112 0.4520234487469876
0.21212765957446808 0.4392836087774108 0.4493860412390425
0.2123404255319149 0.4407833860645714 0.4476955629954298
0.2125531914893617 0.43903138175744777 0.44699560332193444
0.2127659574468085 0.4405616162992627 0.4446362342136831
0.2129787234042553 0.44285839278020117 0.44837705180883247
0.21319148936170212 0.44213449420793843 0.44894968246213973
0.21340425531914894 0.44076179530560067 0.4496239875450502
0.21361702127659574 0.442461674711342 0.4510793962223051
0.21382978723404256 0.44246953149235935 0.45134915013269167
0.21404255319148935 0.441133365901319 0.4504114729351846
0.21425531914893617 0.4416593375481363 0.4509786653258769
0.214468085106383 0.44260020430801167 0.45090120349926727
0.21468085106382978 0.443493587783243 0.4483021510653669
0.2148936170212766 0.4443775185174522 0.44570552984600653
0.2151063829787234 0.4451584086328415 0.44519737011654553
0.2153191489361702 0.445707139781712 0.4459290116483729
0.21553191489361703 0.4462558709305825 0.4466606531802002
0.21574468085106382 0.44680460207945294 0.44739229471202746
0.21595744680851064 0.44735333322832344 0.44812393624385477
0.21617021276595744 0.4479020643771939 0.44885557777568197
0.21638297872340426 0.44737589486083246 0.44954643049334436
0.21659574468085105 0.4478315773618482 0.45118068309211284
0.21680851063829787 0.44894968246213973 0.4528578407425501
0.2170212765957447 0.4491834926132994 0.4530137141766565
0.21723404255319148 0.45000213351553137 0.45355947477814446
0.2174468085106383 0.4508207744177634 0.45410523537963243
0.2176595744680851 0.4516394153199954 0.4546509959811204
0.2178723404255319 0.45606079681240247 0.45182620871135876
0.21808510638297873 0.4556888013624207 0.45053297739239123
0.21829787234042553 0.4553030721448328 0.4509037616023448
0.21851063829787234 0.4566399537295501 0.4492017730489604
0.21872340425531914 0.45676599902296044 0.44895093124158386
0.21893617021276596 0.45676599902296044 0.4500511288282559
0.21914893617021278 0.45725031541419914 0.4509037616023448
0.21936170212765957 0.45798832225552194 0.45126963955616667
0.2195744680851064 0.45836124590396854 0.45108317773194345
0.21978723404255318 0.45949287069287903 0.44992672203224227
0.22 0.45876439349389725 0.45094807693307654
0.2202127659574468 0.45841331670763635 0.4512389006596315
0.2204255319148936 0.4592954497861651 0.45167996719889597
0.22063829787234043 0.45695661693913636 0.4537078017018687
0.22085106382978723 0.4569057503462515 0.4500664733555334
0.22106382978723405 0.45972923643586466 0.4516789695179077
0.22127659574468084 0.46253680394185925 0.45117087962029967
0.22148936170212766 0.4606472370765379 0.45188080117244755
0.22170212765957448 0.4621326793858806 0.4511445028585485
0.22191489361702127 0.4612010456285433 0.4514306499275174
0.2221276595744681 0.4632644235594542 0.45222165362667194
0.22234042553191488 0.46283271471942056 0.45188080117244755
0.2225531914893617 0.4599011215229161 0.4500627245586742
0.22276595744680852 0.45688841030142413 0.448054250411013
0.2229787234042553 0.4594706726357428 0.449775758633892
0.22319148936170213 0.4588026940245887 0.45082114574092164
0.22340425531914893 0.4578218511709747 0.44910730761796314
0.22361702127659575 0.457743038593063 0.4508769691074015
0.22382978723404254 0.457743038593063 0.4529725032530326
0.22404255319148936 0.457743038593063 0.4528546175390994
0.22425531914893618 0.45731154127193646 0.45188080117244755
0.22446808510638297 0.4572889180031541 0.4524037201526412
0.2246808510638298 0.457743038593063 0.4528578407425501
0.22489361702127658 0.4624613115598979 0.4528578407425501
0.2251063829787234 0.45908509015014026 0.45210447643196044
0.22531914893617022 0.45690726355474615 0.45355235124908116
0.225531914893617 0.45676599902296044 0.452868805645126
0.22574468085106383 0.45625798230362274 0.45651199066329157
0.22595744680851063 0.45364028528609174 0.4555943644262968
0.22617021276595745 0.4561820503180695 0.4561706751322164
0.22638297872340427 0.45592402504621427 0.4538348803126526
0.22659574468085106 0.4541488292035971 0.4538348803126526
0.22680851063829788 0.4511353582630303 0.45293503962944526
0.22702127659574467 0.4518307053729817 0.45573886365339206
0.2272340425531915 0.4510704705366772 0.45497862881708756
0.22744680851063828 0.45188080117244755 0.45520093882527496
0.2276595744680851 0.4507756411824293 0.454203266975992
0.22787234042553192 0.4483062409878668 0.4544901991456187
0.22808510638297871 0.4478156450665507 0.45301483856803637
0.22829787234042553 0.44912726340935666 0.45170322022523046
0.22851063829787233 0.4479726428920372 0.4528578407425501
0.22872340425531915 0.4479726428920372 0.4528578407425501
0.22893617021276597 0.4471811394674654 0.45523235101626514
0.22914893617021276 0.44884525815181897 0.45023999496320455
0.22936170212765958 0.44691861884955675 0.45074979265758947
0.22957446808510637 0.4460185637518319 0.4490684367818162
0.2297872340425532 0.4460185637518319 0.44981977681505997
0.23 0.44321378837924363 0.4508616471564383
0.2302127659574468 0.44770024353182925 0.4573616794887718
0.23042553191489362 0.4438927745696298 0.45193803785311326
0.23063829787234041 0.441133365901319 0.4530435045929638
0.23085106382978723 0.441133365901319 0.4531996006437293
0.23106382978723405 0.441133365901319 0.451429645026967
0.23127659574468085 0.4405474182948287 0.4509037616023448
0.23148936170212767 0.4401563263312165 0.45306498939503637
0.23170212765957446 0.43952348951755726 0.45256920668533446
0.23191489361702128 0.4385431636975278 0.4506085550452756
0.23212765957446807 0.44200154616575915 0.45068658182719185
0.2323404255319149 0.43863656225515335 0.4509037616023448
0.2325531914893617 0.4401563263312165 0.4509037616023448
0.2327659574468085 0.4396314053848016 0.4509037616023448
0.23297872340425532 0.4375365538161159 0.4521491463831738
0.23319148936170211 0.4386492685441435 0.4534708558233582
0.23340425531914893 0.43917928676111373 0.4524611973480288
0.23361702127659575 0.43917928676111373 0.4500150899642949
0.23382978723404255 0.4400214895840561 0.4506340881080241
0.23404255319148937 0.44307298205537404 0.44798710587818724
0.23425531914893616 0.43933628948626297 0.44699560332193444
0.23446808510638298 0.4466536512963482 0.44699560332193444
0.2346808510638298 0.44508491121425736 0.44635870595270877
0.2348936170212766 0.4429955900826375 0.4481563528098105
0.2351063829787234 0.44603319539063246 0.44992672203224227
0.2353191489361702 0.4448427490572313 0.44992672203224227
0.23553191489361702 0.4458689833330144 0.45082897139293604
0.23574468085106381 0.4460185637518319 0.44924772790271644
0.23595744680851063 0.4450992906279543 0.44894968246213973
0.23617021276595745 0.4479726428920372 0.4507568923675436
0.23638297872340425 0.44734855242546506 0.44915771261766374
0.23659574468085107 0.4460629483076443 0.44958624732360397
0.23680851063829786 0.4488954490687356 0.44894968246213973
0.23702127659574468 0.4501268281607407 0.4487495763336413
0.2372340425531915 0.4505093852541159 0.4483670192402661
0.2374468085106383 0.4508919423474911 0.4479844621468909
0.2376595744680851 0.4512744994408663 0.4476019050535157
0.2378723404255319 0.4516570565342415 0.4472193479601405
0.23808510638297872 0.45188080117244755 0.44739568849278744
0.23829787234042554 0.4526442998158673 0.44682739492690754
0.23851063829787233 0.45344285454873795 0.4446494984178147
0.23872340425531915 0.4533164122981284 0.44559305646355457
0.23893617021276595 0.4543547137685237 0.449054061364872
0.23914893617021277 0.4553930152389191 0.4525150662661899
0.23936170212765956 0.4557889594528579 0.4529954610593738
0.23957446808510638 0.45606516642914685 0.45197287016454385
0.2397872340425532 0.4576126927652785 0.45248871227658777
0.24 0.45888766101825607 0.4528578407425501
0.2402127659574468 0.4594768788328298 0.4528578407425501
0.2404255319148936 0.4612199518647855 0.4517157151439122
0.24063829787234042 0.4635289683645018 0.44994579894453646
0.24085106382978724 0.45969711773326827 0.4511066386933223
0.24106382978723404 0.45969711773326827 0.4554194656950905
0.24127659574468086 0.45969711773326827 0.44996034040721217
0.24148936170212765 0.458868982925392 0.4515829916479946
0.24170212765957447 0.45898959230306613 0.4519706392190811
0.2419148936170213 0.4593177478788474 0.45208002441100814
0.24212765957446808 0.4596459034546286 0.45218940960293524
0.2423404255319149 0.4599740590304098 0.4522987947948623
0.2425531914893617 0.460302214606191 0.45240817998678934
0.2427659574468085 0.4606303701819722 0.4525175651787164
0.2429787234042553 0.4609585257577534 0.4526269503706435
0.24319148936170212 0.4612866813335347 0.45273633556257054
0.24340425531914894 0.4616148369093159 0.4528457207544976
0.24361702127659574 0.45956945739495336 0.45216392758304347
0.24382978723404256 0.4580477414741792 0.45188080117244755
0.24404255319148935 0.45852778690947626 0.45266554948886084
0.24425531914893617 0.4623889406604125 0.4528578407425501
0.244468085106383 0.45781204168987094 0.4527888376457421
0.24468085106382978 0.45851394678389884 0.45146853841391416
0.2448936170212766 0.457743038593063 0.45128651609052356
0.2451063829787234 0.45678571649963595 0.4533562192659391
0.2453191489361702 0.4551734295598535 0.45408890052855866
0.24553191489361703 0.45481191988275516 0.45178596711703084
0.24574468085106382 0.45481191988275516 0.4554033700157975
0.24595744680851064 0.4539014434273271 0.4538348803126526
0.24617021276595744 0.45481191988275516 0.45362194298796593
0.24638297872340426 0.45409521670352737 0.453216192332164
0.24659574468085105 0.45235577026913787 0.4538348803126526
0.24680851063829787 0.4505895854878543 0.4538348803126526
0.2470212765957447 0.44992672203224227 0.4538348803126526
0.24723404255319148 0.4517968765701972 0.4566401121195849
0.2474468085106383 0.4507132895153105 0.4556937234093407
0.2476595744680851 0.44917768189242274 0.4550399193130382
0.2478723404255319 0.44922077826326273 0.45437707191489873
0.24808510638297873 0.4476096215436834 0.45333288656586246
0.24829787234042552 0.44727867463595533 0.45493974551079547
0.24851063829787234 0.44755457736395765 0.4532759062706295
0.24872340425531914 0.4453740080754031 0.4538348803126526
0.24893617021276596 0.4453993345738979 0.4531674553315171
0.24914893617021278 0.44682669564210353 0.45204970885227846
0.24936170212765957 0.4441511524241364 0.45188080117244755
0.2495744680851064 0.4450415241817294 0.45176657968481715
0.24978723404255318 0.4452994294428655 0.45116166686348097
0.25 0.44561656534249044 0.45188080117244755
0.2502127659574468 0.44232167698649955 0.4513368317334015
0.25042553191489364 0.4415273354477077 0.4515892661605906
0.25063829787234043 0.4427979627730373 0.45188080117244755
0.2508510638297872 0.441552880626768 0.45341536558720363
0.251063829787234 0.441133365901319 0.45474392506252037
0.25127659574468086 0.44231441635757984 0.4537668766839332
0.25148936170212766 0.44462938689786974 0.45244570345869045
0.25170212765957445 0.44125174889427643 0.4491864484480546
0.2519148936170213 0.44211040547142155 0.4498788829683632
0.2521276595744681 0.4429032223935431 0.44699560332193444
0.2523404255319149 0.4429958235092506 0.4475299338731226
0.2525531914893617 0.44278360666204714 0.4506654476545398
0.2527659574468085 0.44146620430008704 0.45188080117244755
0.2529787234042553 0.44018197933201214 0.45092941460314045
0.2531914893617021 0.439295975637893 0.4537181914358734
0.25340425531914895 0.4401563263312165 0.4528578407425501
0.25361702127659574 0.4401563263312165 0.4519677523038141
0.25382978723404254 0.4409351300906385 0.45031612391195325
0.2540425531914894 0.44211040547142155 0.44932781452438925
0.2542553191489362 0.4414448127729495 0.44930382828898124
0.25446808510638297 0.44032707856268005 0.4491204346936033
0.25468085106382976 0.4411044425957638 0.44989779872668706
0.2548936170212766 0.4438573105268638 0.4443752457387714
0.2551063829787234 0.44211040547142155 0.44699560332193444
0.2553191489361702 0.4425604136387401 0.44654559515461595
0.25553191489361704 0.4441707745952644 0.44493523419809183
0.25574468085106383 0.44461001899923414 0.4444959897941221
0.2559574468085106 0.4450415241817294 0.44411707005144335
0.2561702127659574 0.445080638311887 0.4468782609314616
0.25638297872340426 0.4466743192204674 0.44472024008026234
0.25659574468085106 0.44963359563027233 0.4476795164900672
0.25680851063829785 0.4493789747833361 0.4457077263583453
0.2570212765957447 0.45106185172398944 0.4457671791492474
0.2572340425531915 0.45258704306185715 0.4484080871007538
0.2574468085106383 0.45201449572839736 0.4523230625187508
0.25765957446808513 0.4538316852882934 0.45090056657798555
0.2578723404255319 0.4528578407425501 0.45020746264863154
0.2580851063829787 0.4528578407425501 0.45244276319831833
0.2582978723404255 0.4541140263595367 0.45257869469566603
0.25851063829787235 0.4563460861357368 0.4525751416509816
0.25872340425531914 0.4574574981881161 0.4552178786429641
0.25893617021276594 0.4556252758860746 0.4529652758435401
0.2591489361702128 0.4555529972973227 0.45188080117244755
0.2593617021276596 0.4566468576838903 0.45102290294141495
0.25957446808510637 0.45772437164989693 0.4489683494053058
0.2597872340425532 0.4567673572207991 0.4499253638344036
0.26 0.45857248503907083 0.4500649631065769
0.2602127659574468 0.4630505058437765 0.4503489914324427
0.2604255319148936 0.4595633341522589 0.4493672550063826
0.26063829787234044 0.45732541566861623 0.4493673053865865
0.26085106382978723 0.45914818879294705 0.44894968246213973
0.261063829787234 0.458855838712922 0.44810840344179365
0.2612765957446809 0.46162989570258967 0.44992139673952136
0.26148936170212767 0.4584825881388089 0.4488017725529906
0.26170212765957446 0.46176172777840363 0.4482614791137613
0.26191489361702125 0.458835461664257 0.44894968246213973
0.2621276595744681 0.4583145980901435 0.4495212419592203
0.2623404255319149 0.4594346821542725 0.45135593001445606
0.2625531914893617 0.4588375289131367 0.451021212352316
0.26276595744680853 0.4577713468324048 0.450875453363003
0.2629787234042553 0.4588909939308257 0.4500976377999024
0.2631914893617021 0.45969711773326827 0.45058827949327335
0.26340425531914896 0.45877709564150626 0.4494667109863613
0.26361702127659575 0.4594793886616126 0.4495284658183229
0.26382978723404255 0.4599735809124711 0.44992672203224227
0.26404255319148934 0.45969711773326827 0.4541090014178815
0.2642553191489362 0.45676858298871 0.45285525677680055
0.264468085106383 0.4580286761029724 0.45173798241749286
0.26468085106382977 0.4591391330800633 0.4503457769491399
0.2648936170212766 0.4573384224939313 0.45016353075953475
0.2651063829787234 0.4551465218093146 0.45242062691032947
0.2653191489361702 0.4538348803126526 0.45150071569134936
0.265531914893617 0.45461488162922997 0.4509037616023448
0.26574468085106384 0.45390279616406176 0.449085514164958
0.26595744680851063 0.4555848079449282 0.45167664966451787
0.2661702127659574 0.4528578407425501 0.44908712534830403
0.2663829787234043 0.45313480964256203 0.45075762873227815
0.26659574468085107 0.45299985559505307 0.45160530366615065
0.26680851063829786 0.4508146248270759 0.45312525106835705
0.2670212765957447 0.45058148633470113 0.4531699022430224
0.2672340425531915 0.45329139029984544 0.45108492493994723
0.2674468085106383 0.44830293850649516 0.4509037616023448
0.2676595744680851 0.4470412798664969 0.4518351246278851
0.26787234042553193 0.4450415241817294 0.4518127282036952
0.2680851063829787 0.4446340057317392 0.45151503927733
0.2682978723404255 0.4434299091676569 0.4528074879342544
0.26851063829787236 0.44551584034351255 0.45138754684630683
0.26872340425531915 0.44699560332193444 0.45313972314333884
0.26893617021276595 0.44545250366602446 0.45460643014060764
0.26914893617021274 0.44687544249609973 0.45206104241119965
0.2693617021276596 0.4443071125114164 0.45554633155306834
0.2695744680851064 0.4467733334364014 0.45263557085701706
0.26978723404255317 0.4456520754330081 0.4515143128536237
0.27 0.4450415241817294 0.45140352996161853
0.2702127659574468 0.44398997937194024 0.4508292563626584
0.2704255319148936 0.4457074607593935 0.44940271888866845
0.27063829787234045 0.44433344208777786 0.44834314899476324
0.27085106382978724 0.44211040547142155 0.4508198289800537
0.27106382978723403 0.44211040547142155 0.45188080117244755
0.2712765957446808 0.4412333520753027 0.45100374777632846
0.2714893617021277 0.442096937946094 0.4489766175127948
0.27170212765957447 0.4439265663038696 0.45076584329458763
0.27191489361702126 0.4459252534611011 0.44997337717760766
0.2721276595744681 0.4411838448021986 0.44992672203224227
0.2723404255319149 0.441133365901319 0.44793046602783276
0.2725531914893617 0.4407293792345062 0.44739958998874724
0.2727659574468085 0.4385782695857284 0.44967604043576415
0.27297872340425533 0.441133365901319 0.448719104936385
0.2731914893617021 0.441133365901319 0.4547721297629089
0.2734042553191489 0.44036664403309617 0.4517450324098636
0.27361702127659576 0.443347433593039 0.4489890972452514
0.27382978723404255 0.44303534096112435 0.4484741886971884
0.27404255319148935 0.44191358888134685 0.45051012842219545
0.2742553191489362 0.4430874450415241 0.4516906790004553
0.274468085106383 0.44404140144370385 0.44849578742897267
0.2746808510638298 0.44395530357676505 0.44808182392689877
0.27489361702127657 0.44495944269802523 0.44894968246213973
0.2751063829787234 0.4445246098897573 0.44894968246213973
0.2753191489361702 0.4449361519693672 0.44720634774665885
0.275531914893617 0.44670104590156745 0.4461658424620154
0.27574468085106385 0.44864442227644763 0.4468429732290884
0.27595744680851064 0.44989627381257075 0.44510242062107236
0.27617021276595743 0.4504694522339783 0.4461922874991785
0.2763829787234042 0.44641975311556953 0.4475714535282996
0.2765957446808511 0.447289093813849 0.4464742631372907
0.27680851063829787 0.4460119719337956 0.4479726428920372
0.27702127659574466 0.44894968246213973 0.4486860460824555
0.2772340425531915 0.44895762932137495 0.452837973594462
0.2774468085106383 0.4508887720603889 0.44801011674692687
0.2776595744680851 0.451727564989958 0.4512678564424893
0.27787234042553194 0.4512616710546201 0.45188080117244755
0.27808510638297873 0.4517899052453596 0.45188080117244755
0.2782978723404255 0.45320992706133006 0.4511766285348875
0.2785106382978723 0.4542146657586825 0.4484075802481225
0.27872340425531916 0.45481191988275516 0.44616797894226023
0.27893617021276595 0.45481191988275516 0.4465071667731396
0.27914893617021275 0.45481191988275516 0.44684635460401895
0.2793617021276596 0.455376515749656 0.4475601991888353
0.2795744680851064 0.4557889594528579 0.44845550784025784
0.2797872340425532 0.45707262873222476 0.44852179270235076
0.27999999999999997 0.4581729341281393 0.4490669309620896
0.2802127659574468 0.4584294809300338 0.44992672203224227
0.2804255319148936 0.45954917905135634 0.44992672203224227
0.2806382978723404 0.45969711773326827 0.4518689874789183
0.28085106382978725 0.4595667437964467 0.45116450947598796
0.28106382978723404 0.45845833303546857 0.4528578407425501
0.28127659574468084 0.45894341273978656 0.452057591311401
0.2814893617021277 0.4606741573033708 0.45520519544125854
0.2817021276595745 0.4599981963257466 0.45398835131979615
0.28191489361702127 0.4572549338893985 0.4510667398911575
0.28212765957446806 0.4586723436379711 0.44995058929483944
0.2823404255319149 0.46313314877620304 0.45188080117244755
0.2825531914893617 0.45995696324276547 0.45162095566295024
0.2827659574468085 0.4598672285481825 0.4509037616023448
0.28297872340425534 0.4587200781631655 0.45145055488521163
0.28319148936170213 0.45940938584616053 0.4505021858064576
0.2834042553191489 0.45969711773326827 0.45075734348144114
0.2836170212765957 0.4616353404933761 0.4509037616023448
0.28382978723404256 0.45859743602274533 0.4498040798918221
0.28404255319148936 0.457743038593063 0.44894968246213973
0.28425531914893615 0.457743038593063 0.44914948324659376
0.284468085106383 0.457536422000759 0.4506971450100408
0.2846808510638298 0.4559631259726534 0.4507295950825493
0.2848936170212766 0.4542389289423285 0.45164569485352246
0.2851063829787234 0.45481191988275516 0.449382314093805
0.2853191489361702 0.4561825986180679 0.44894968246213973
0.285531914893617 0.4559370095754525 0.44894968246213973
0.2857446808510638 0.45481524196420686 0.44894968246213973
0.28595744680851065 0.4569072701300627 0.44825123237970393
0.28617021276595744 0.45159972388550357 0.44936456745835446
0.28638297872340424 0.45216336593892265 0.44965211534080757
0.2865957446808511 0.45102798549081946 0.4507580432437142
0.2868085106382979 0.450241223170644 0.45121826274074667
0.28702127659574467 0.4487803836556967 0.45188080117244755
0.28723404255319146 0.4488033645711747 0.45354224453072256
0.2874468085106383 0.45183900431918805 0.4528717730269699
0.2876595744680851 0.4469443998388565 0.4547607163996772
0.2878723404255319 0.4450415241817294 0.4530059226020883
0.28808510638297874 0.4447551047362707 0.45297562197627655
0.28829787234042553 0.44406448461162684 0.4513326546154542
0.2885106382978723 0.44406448461162684 0.45245484818395393
0.28872340425531917 0.44406448461162684 0.45429427600391975
0.28893617021276596 0.44406448461162684 0.45567003313642684
0.28914893617021276 0.44603791757411826 0.4519001549947339
0.28936170212765955 0.44636792467482067 0.45270092108077165
0.2895744680851064 0.44255508988476583 0.45188080117244755
0.2897872340425532 0.441133365901319 0.4525652490383222
0.29 0.441133365901319 0.4546918367567737
0.2902127659574468 0.4431866574119936 0.4557889594528579
0.2904255319148936 0.4431567143935873 0.4551606895234771
0.2906382978723404 0.44211040547142155 0.45634932677177537
0.2908510638297872 0.44302262952707366 0.45585377496730833
0.29106382978723405 0.44356085458324285 0.4554733530917121
0.29127659574468084 0.44741488226566345 0.45188080117244755
0.29148936170212764 0.44211040547142155 0.4525964921869255
0.2917021276595745 0.44211040547142155 0.45257769822720567
0.2919148936170213 0.44166974837343154 0.4513444187003349
0.29212765957446807 0.4416821639741483 0.4513320030996182
0.2923404255319149 0.44143341405087305 0.4536117272845389
0.2925531914893617 0.4418993836195175 0.45098183129176234
0.2927659574468085 0.4403273422428634 0.4490351904179632
0.2929787234042553 0.441133365901319 0.453664945115345
0.29319148936170214 0.4407389584946426 0.45031215049233025
0.29340425531914893 0.44086824497761157 0.44864822617863626
0.2936170212765957 0.44310747556904856 0.45088373107482055
0.29382978723404257 0.4408687990505581 0.4500183915411522
0.29404255319148936 0.440921168586728 0.4474199979511166
0.29425531914893616 0.4429468204371438 0.44971578512567184
0.29446808510638295 0.4416470949947013 0.4496698574855511
0.2946808510638298 0.4480432468823172 0.44632070894510606
0.2948936170212766 0.44332157725049187 0.4479726428920372
0.2951063829787234 0.44437655285634553 0.44766057464731845
0.29531914893617023 0.4450415241817294 0.44699560332193444
0.295531914893617 0.4456372321342042 0.44729345729817194
0.2957446808510638 0.4468478087697775 0.4479726428920372
0.29595744680851066 0.44613229910787444 0.4484275843162074
0.29617021276595745 0.4471567208350974 0.45107521360663294
0.29638297872340424 0.44772224837150143 0.4472459978424702
0.29659574468085104 0.44733474321458727 0.44899006256999546
0.2968085106382979 0.4483965457723801 0.450055955841659
0.2970212765957447 0.4496387020010867 0.4494090288214377
0.29723404255319147 0.45110497089189056 0.4503865414153069
0.2974468085106383 0.4522557213661269 0.4520285221833829
0.2976595744680851 0.4530994729137371 0.4531099837990916
0.2978723404255319 0.4541017395846847 0.4511706208743769
0.29808510638297875 0.45447757170842845 0.45154645299812074
0.29829787234042554 0.4538348803126526 0.4513285650800077
0.29851063829787233 0.4538348803126526 0.45084439556096334
0.2987234042553191 0.45501191240009253 0.45051523807596217
0.298936170212766 0.4557889594528579 0.4515633542342901
0.29914893617021276 0.4543487139289823 0.45188080117244755
0.29936170212765956 0.45693940612659684 0.45110466971896135
0.2995744680851064 0.457743038593063 0.45175622240606744
0.2997872340425532 0.4563841286710087 0.4512013462114203
0.3 0.45702661433207126 0.4502849341627381
0.3002127659574468 0.45642766379201327 0.4492690346317174
0.30042553191489363 0.45725883507844184 0.44968462027493167
0.3006382978723404 0.45526708484875844 0.44827608620270604
0.3008510638297872 0.4576390009958963 0.4479726428920372
0.30106382978723406 0.4585756419545395 0.44894968246213973
0.30127659574468085 0.4567014530096967 0.448885136448876
0.30148936170212765 0.4549164712640418 0.44710015470322106
0.3017021276595745 0.45794348162963433 0.4501271650688136
0.3019148936170213 0.4565076293225562 0.44869131276173546
0.3021276595744681 0.4566087396518245 0.4496122032899704
0.30234042553191487 0.45772083177361655 0.44992672203224227
0.3025531914893617 0.4560223127932679 0.44820599623244717
0.3027659574468085 0.4548312038600449 0.4479726428920372
0.3029787234042553 0.45481191988275516 0.44894968246213973
0.30319148936170215 0.45530678597871366 0.449197115510119
0.30340425531914894 0.4571555043394077 0.45187424861447884
0.30361702127659573 0.457220354855918 0.45167581745988505
0.3038297872340425 0.45676599902296044 0.4502486092067055
0.3040425531914894 0.455189502337588 0.4516920099450311
0.30425531914893617 0.4557417917865857 0.45188080117244755
0.30446808510638296 0.4529275364027936 0.4481817298727677
0.3046808510638298 0.4537418915232133 0.4509037616023448
0.3048936170212766 0.4528578407425501 0.45067056101482
0.3051063829787234 0.4532373718678069 0.45030625315749906
0.30531914893617024 0.4533098095060684 0.44932854918259224
0.30553191489361703 0.4528578407425501 0.44997674521000247
0.3057446808510638 0.4528578407425501 0.4509037616023448
0.3059574468085106 0.45191542285976594 0.4537310152506975
0.30617021276595746 0.45120451443658655 0.45393513125739987
0.30638297872340425 0.4533619505333389 0.45481191988275516
0.30659574468085105 0.45150047915008756 0.4544315978603953
0.3068085106382979 0.4509037616023448 0.45435996159058545
0.3070212765957447 0.4490150456817049 0.45418234790920853
0.3072340425531915 0.4479726428920372 0.4575477700540181
0.30744680851063827 0.4515044994283933 0.4543052574927204
0.3076595744680851 0.45017126946289154 0.4546896461674305
0.3078723404255319 0.4470292437187877 0.45577774598724013
0.3080851063829787 0.4477111561420039 0.4528578407425501
0.30829787234042555 0.44629252412451814 0.45258388036986386
0.30851063829787234 0.4465835023406946 0.45146870019120766
0.30872340425531913 0.4465733582149566 0.4514585560654696
0.308936170212766 0.44699560332193444 0.4512065091939979
0.3091489361702128 0.44618846057974315 0.4525180470867275
0.30936170212765957 0.4497826848233414 0.4547399012783047
0.30957446808510636 0.4461580261604714 0.4519853979789272
0.3097872340425532 0.4441658990563245 0.4512080049364377
0.31 0.4452853455887789 0.4548101659408509
0.3102127659574468 0.44485748155368465 0.455807901596151
0.31042553191489364 0.4430874450415241 0.4523307222811821
0.31063829787234043 0.4417494158259215 0.45254981578024883
0.3108510638297872 0.4427617721707229 0.4504152313384441
0.311063829787234 0.44596254317556594 0.4508850880769228
0.31127659574468086 0.44296706423222865 0.44809302370133264
0.31148936170212765 0.44211040547142155 0.44868772257747574
0.31170212765957445 0.44173172999328236 0.45062337123901147
0.3119148936170213 0.441133365901319 0.452414947643817
0.3121276595744681 0.4417559928503438 0.4511719759302919
0.3123404255319149 0.4413452173585134 0.45188080117244755
0.3125531914893617 0.4418986443092545 0.45188080117244755
0.3127659574468085 0.44124243074051755 0.4510128264415434
0.3129787234042553 0.4431215521139229 0.44992672203224227
0.3131914893617021 0.44406448461162684 0.4502825257709961
0.31340425531914895 0.4437417187068206 0.4512352693628352
0.31361702127659574 0.4430874450415241 0.450855482607574
0.31382978723404253 0.4436906954978253 0.45067430025984523
0.3140425531914894 0.44406448461162684 0.45066801011259305
0.3142553191489362 0.44318423343561947 0.4473827568983159
0.31446808510638297 0.4450415241817294 0.4480180487784406
0.31468085106382976 0.4450415241817294 0.4487630277167814
0.3148936170212766 0.4453660664369243 0.44764810063684224
0.3151063829787234 0.4455612803432288 0.44836745354774393
0.3153191489361702 0.44444040108297106 0.44932559893348395
0.31553191489361704 0.446297851607155 0.45043859379249185
0.31574468085106383 0.44614651399442645 0.44835649361982083
0.3159574468085106 0.4460185637518319 0.4489576557418858
0.31617021276595747 0.44662934271632093 0.44977402729112004
0.31638297872340426 0.4496312409290055 0.44924516356537647
0.31659574468085105 0.44853337468419724 0.4486777986984147
0.31680851063829785 0.4495589695466043 0.4464668277704121
0.3170212765957447 0.45359814791395847 0.44467137059602513
0.3172340425531915 0.4531864180471943 0.44243898277606575
0.3174468085106383 0.4538100511830485 0.44496703679291705
0.3176595744680851 0.4540790914054622 0.44522468250133657
0.3178723404255319 0.4567750720957706 0.4483598294909541
0.3180851063829787 0.45319331307202565 0.4495912497027667
0.3182978723404255 0.45479500612526 0.4518300598999617
0.31851063829787235 0.4576650150155279 0.4516851606116383
0.31872340425531914 0.4548756254380816 0.45069561257725904
0.31893617021276593 0.4538348803126526 0.44999568674658597
0.3191489361702128 0.45601343989468657 0.45075410797445903
0.3193617021276596 0.45828861891076283 0.4495968713407438
0.31957446808510637 0.45783422351083364 0.45116865151386537
0.3197872340425532 0.4582176400692613 0.4509130404749136
0.32 0.4580116651960687 0.449389468826231
0.3202127659574468 0.459476313492755 0.44872887822162644
0.3204255319148936 0.4618481409437133 0.45325172888302995
0.32063829787234044 0.4603137484402543 0.45404042388164795
0.32085106382978723 0.45882751577962005 0.4520956764053566
0.321063829787234 0.4595554850573801 0.45438702185509067
0.32127659574468087 0.45887622755497437 0.4507074689912864
0.32148936170212766 0.4595873662621994 0.44992672203224227
0.32170212765957445 0.46063384110973166 0.45086344540870565
0.32191489361702125 0.45973565041895054 0.45185190165818584
0.3221276595744681 0.46326244546358364 0.44920680537471097
0.3223404255319149 0.46131135638080834 0.4497143223397631
0.3225531914893617 0.4606741573033708 0.4492690271670391
0.3227659574468085 0.46184921112849253 0.45012473628726146
0.3229787234042553 0.4611374549142327 0.4494129800730016
0.3231914893617021 0.45969711773326827 0.44913759443439694
0.32340425531914896 0.45969711773326827 0.4502843085757703
0.32361702127659575 0.45969711773326827 0.44894968246213973
0.32382978723404254 0.45966020116259987 0.4490235156034765
0.32404255319148934 0.45863862927715615 0.45114810826037294
0.3242553191489362 0.4575837927893945 0.45319789709797853
0.324468085106383 0.45676599902296044 0.45139192833547925
0.32468085106382977 0.4573249102104216 0.456438912488987
0.3248936170212766 0.4593954437049886 0.4509640964080007
0.3251063829787234 0.4557180127800584 0.45169958259298687
0.3253191489361702 0.4529639863218328 0.45188080117244755
0.325531914893617 0.4529438951733347 0.45347544217377833
0.32574468085106384 0.4534109036200594 0.45438794319016196
0.32595744680851063 0.4526107424831082 0.45309358553432677
0.3261702127659574 0.4520252579695963 0.45140936039236557
0.32638297872340427 0.4535233249336366 0.4566525947665069
0.32659574468085106 0.45166855892154634 0.45341039581085046
0.32680851063829786 0.44983383879509214 0.44983383879509214
0.3270212765957447 0.4495780799868037 0.4495780799868037
0.3272340425531915 0.4493223211785154 0.4493223211785154
0.3274468085106383 0.4490665623702271 0.4490665623702271
0.3276595744680851 0.45185653557928435 0.4492139418364256
0.3278723404255319 0.45720978425877623 0.44970060080728846
0.3280851063829787 0.45229445625906994 0.44651010904415084
0.3282978723404255 0.44564460114261645 0.448117491149581
0.32851063829787236 0.4474631343316515 0.44911951864893496
0.32872340425531915 0.44513964776181875 0.4508383458822852
0.32893617021276594 0.44175308839480565 0.4509037616023448
0.32914893617021274 0.4429109521501531 0.45357014097559606
0.3293617021276596 0.43935192583059657 0.4529873200446622
0.3295744680851064 0.44271936140876456 0.4557889594528579
0.32978723404255317 0.4414576081635345 0.45449199040399585
0.33 0.4416447263763495 0.45281215936259167
0.3302127659574468 0.4417384184083315 0.4514146702846026
0.3304255319148936 0.44285693424939454 0.45141977958818846
0.33063829787234045 0.44219928717010454 0.4509926433010278
0.33085106382978724 0.44211040547142155 0.45371765612457254
0.33106382978723403 0.44133356495250803 0.4500268215578368
0.3312765957446808 0.44284607174006196 0.45017964169795843
0.33148936170212767 0.44211040547142155 0.44949661745574765
0.33170212765957446 0.4405784354525626 0.4508594878265415
0.33191489361702126 0.44109463576946584 0.44992672203224227
0.3321276595744681 0.4428894278853009 0.44914769961836293
0.3323404255319149 0.44145327641548665 0.4497667667751584
0.3325531914893617 0.441133365901319 0.4480635132952902
0.3327659574468085 0.4395678504592861 0.44894968246213973
0.33297872340425533 0.44188578918868093 0.44894968246213973
0.3331914893617021 0.43896692692314454 0.44933202232820635
0.3334042553191489 0.44120855282574584 0.4494006087849776
0.33361702127659576 0.44144307249997383 0.45028434840503523
0.33382978723404255 0.4451876221429553 0.45009291035401755
0.33404255319148934 0.44410841153791525 0.4508817981392006
0.3342553191489362 0.44406448461162684 0.4521132459961362
0.334468085106383 0.4438053962766762 0.45331670364275145
0.3346808510638298 0.4438912504326233 0.4522827038679971
0.33489361702127657 0.4450415241817294 0.45068500465046885
0.3351063829787234 0.4457279506084987 0.45100896174244787
0.3353191489361702 0.4460185637518319 0.4502268176255906
0.335531914893617 0.4451159539569237 0.44902411223733407
0.33574468085106385 0.4459662560884514 0.45357334199575006
0.33595744680851064 0.44699560332193444 0.4507430209221651
0.33617021276595743 0.4481024495153787 0.4493924209395174
0.3363829787234042 0.45006747775282324 0.45054109691842
0.33659574468085107 0.4494478049352605 0.4504171623549074
0.33680851063829786 0.45188080117244755 0.45033010753483066
0.33702127659574466 0.4498481940788183 0.4485716506364895
0.3372340425531915 0.44894968246213973 0.44878925635136885
0.3374468085106383 0.4508679087411828 0.4470314561830964
0.3376595744680851 0.4529763642431983 0.4479726428920372
0.33787234042553194 0.4548680713314136 0.4482309406467274
0.33808510638297873 0.4573418703819434 0.44894968246213973
0.3382978723404255 0.45392715118519644 0.4484765411558458
0.3385106382978723 0.4529429920217633 0.4510314885211649
0.33872340425531916 0.4535683121311393 0.45259127256103676
0.33893617021276595 0.4543904671396053 0.4488155483783369
0.33914893617021274 0.45481191988275516 0.4470720456477135
0.3393617021276596 0.45675716436484215 0.4489143438296666
0.3395744680851064 0.4559604478154888 0.4454416636945348
0.3397872340425532 0.45863856431019256 0.4516906021821773
0.34 0.4561003139977772 0.44789480425580736
0.3402127659574468 0.46036616746688996 0.44766465305555614
0.3404255319148936 0.4612177885493312 0.4506319459793646
0.3406382978723404 0.4591874205742138 0.45281548599454385
0.34085106382978725 0.45969711773326827 0.4507879263133158
0.34106382978723404 0.45969711773326827 0.44894968246213973
0.34127659574468083 0.45969711773326827 0.4480471063602596
0.3414893617021277 0.45969711773326827 0.44790076219514385
0.3417021276595745 0.45947579563184515 0.44699560332193444
0.34191489361702126 0.4590888129882887 0.4473643381470576
0.34212765957446806 0.4602118497858461 0.4479726428920372
0.3423404255319149 0.4586937552740652 0.4479726428920372
0.3425531914893617 0.45935035334560165 0.44877630026830645
0.3427659574468085 0.45875018750644025 0.4498966126889675
0.34297872340425534 0.4587200781631655 0.44838126240918325
0.34319148936170213 0.45791226499892723 0.44635701656356047
0.3434042553191489 0.45492855933733994 0.44883304300755494
0.34361702127659577 0.45326887550559025 0.44699560332193444
0.34382978723404256 0.457743038593063 0.44727845382879206
0.34404255319148935 0.45718432557816246 0.44950839547704025
0.34425531914893615 0.45410095884548335 0.45005976129865755
0.344468085106383 0.4501840862515805 0.44894968246213973
0.3446808510638298 0.4553246579001158 0.4482413518579202
0.3448936170212766 0.4543437283642016 0.4496722980064678
0.3451063829787234 0.45671021842886833 0.45471895222593495
0.3453191489361702 0.45615265447958353 0.45358954249530187
0.345531914893617 0.4516153847686162 0.4513499683647848
0.3457446808510638 0.4504946949909335 0.4511539218664763
0.34595744680851065 0.45102979732472503 0.4545124536812742
0.34617021276595744 0.45188080117244755 0.4571798506453894
0.34638297872340423 0.4476807794682193 0.4543830212296805
0.3465957446808511 0.44702056455862543 0.4528828019792411
0.3468085106382979 0.4496296709286108 0.45534338279741066
0.34702127659574467 0.4476975991443374 0.45313288449024985
0.3472340425531915 0.44738859514640805 0.4534418884881791
0.3474468085106383 0.44691799239747143 0.45233051549526726
0.3476595744680851 0.44661874782177585 0.45488172152216744
0.3478723404255319 0.44560736537084566 0.4553777610718715
0.34808510638297874 0.44587525946755063 0.45731312574021915
0.34829787234042553 0.44991932784632366 0.45579265654581724
0.3485106382978723 0.4460185637518319 0.4572433341476132
0.34872340425531917 0.4460185637518319 0.45408809777032644
0.34893617021276596 0.4464136511611632 0.4532315702454298
0.34914893617021275 0.4453907666924438 0.4514387071455085
0.34936170212765955 0.44406448461162684 0.4525554761524037
0.3495744680851064 0.44488089973811196 0.4528578407425501
0.3497872340425532 0.44216593251792286 0.45094077963334567
0.35 0.4472468381887951 0.45297880819309044
0.3502127659574468 0.4426350946206159 0.45435956946184697
0.3504255319148936 0.4428521778837484 0.4545766527249795
0.3506382978723404 0.4405880381390644 0.4539484962670593
0.35085106382978726 0.43838101951577463 0.45185307519035217
0.35106382978723405 0.4383628423563307 0.44935790466453124
0.35127659574468084 0.44099690361539795 0.45016142703166245
0.35148936170212763 0.44211040547142155 0.4530662850227866
0.3517021276595745 0.4390758865673237 0.4508003614085548
0.3519148936170213 0.4389825236388898 0.45070699848012086
0.35212765957446807 0.43828378984313643 0.45538124619223164
0.3523404255319149 0.43849533731612367 0.4546360658076877
0.3525531914893617 0.44348885396274573 0.4520815056330584
0.3527659574468085 0.44367544714235746 0.453199360002393
0.3529787234042553 0.4401752394329728 0.4552720700151719
0.35319148936170214 0.44042149236550193 0.45552379341857224
0.35340425531914893 0.4480402739493081 0.4571142225654182
0.3536170212765957 0.4459923791495545 0.4561693014399879
0.35382978723404257 0.43990502415103283 0.4566450427913073
0.35404255319148936 0.44398722663645207 0.4558044110478929
0.35425531914893615 0.4450415241817294 0.4559149105403108
0.354468085106383 0.4451678379573147 0.4572377834907218
0.3546808510638298 0.4456455410557524 0.4542079030087322
0.3548936170212766 0.44406448461162684 0.45510545715035583
0.3551063829787234 0.44406448461162684 0.45267840249715774
0.3553191489361702 0.44472241834433457 0.4517163177392706
0.355531914893617 0.44801981959185094 0.4510452917017861
0.3557446808510638 0.4486766059373727 0.4530156507383514
0.35595744680851066 0.4472968761052554 0.4510802030511788
0.35617021276595745 0.44648241221804846 0.45126892479322256
0.35638297872340424 0.4481443723963226 0.45574949543663285
0.35659574468085103 0.4495150220941198 0.4566615784725532
0.3568085106382979 0.45044025423295114 0.45482859482652693
0.3570212765957447 0.45188080117244755 0.45172098864826904
0.35723404255319147 0.45383792973028064 0.4496020586480841
0.3574468085106383 0.45190041566239547 0.45138247414242216
0.3576595744680851 0.4543230860826573 0.45119693627638496
0.3578723404255319 0.4557889594528579 0.44807009032717526
0.35808510638297875 0.453484936396076 0.4508356417499043
0.35829787234042554 0.4568631277930527 0.4502786863522464
0.35851063829787233 0.4569025479877231 0.4507672126375821
0.3587234042553191 0.4550639301350773 0.44920169271446186
0.35893617021276597 0.45822539271130264 0.4480963142550029
0.35914893617021276 0.4578759125560129 0.4471284772848844
0.35936170212765955 0.45860183194797227 0.44957198338666254
0.3595744680851064 0.46394921301911174 0.45079824450823325
0.3597872340425532 0.45980933306293753 0.4509037616023448
0.36 0.4588843613197196 0.4514744229656732
0.3602127659574468 0.46026590453444755 0.45150160997166133
0.3604255319148936 0.46127568801889723 0.45082842098202813
0.3606382978723404 0.4622854715033467 0.45015523199239504
0.3608510638297872 0.4613959912662812 0.44910522524737917
0.36106382978723406 0.45978003097103876 0.4481384693675781
0.36127659574468085 0.46059221812099443 0.4498857524410541
0.36148936170212764 0.45837368490903774 0.4491228790892036
0.3617021276595745 0.45707496043967794 0.4514715291158298
0.3619148936170213 0.4590818710041032 0.45391936494206175
0.3621276595744681 0.4595108178473404 0.45169450128651967
0.36234042553191487 0.4601566909464105 0.45162206799396737
0.3625531914893617 0.45895230483277205 0.45188080117244755
0.3627659574468085 0.457743038593063 0.45188080117244755
0.3629787234042553 0.45757793498549676 0.4508901795270502
0.36319148936170215 0.45615493927662926 0.44815727286399093
0.36340425531914894 0.45481191988275516 0.45153105468546867
0.36361702127659573 0.45536534414268587 0.4493732977723117
0.3638297872340425 0.45645613622292497 0.4502840360022738
0.36404255319148937 0.45515309845863033 0.4509037616023448
0.36425531914893616 0.45481191988275516 0.4499510278095391
0.36446808510638296 0.45132284550681584 0.4530673826947856
0.3646808510638298 0.45481191988275516 0.45470044997897513
0.3648936170212766 0.4543237195322612 0.4535907801374056
0.3651063829787234 0.45390501849037107 0.45320689999182373
0.36531914893617023 0.45670894146209345 0.4519949162941814
0.365531914893617 0.454138739002224 0.4493260054337691
0.3657446808510638 0.45336964438377786 0.45043852567347004
0.3659574468085106 0.4556043693923151 0.4509037616023448
0.36617021276595746 0.4520862999079849 0.44915518119767706
0.36638297872340425 0.45521618477300757 0.45228506606269975
0.36659574468085104 0.4525258709852109 0.4505906615469207
0.3668085106382979 0.45188080117244755 0.4528304352390093
0.3670212765957447 0.45188080117244755 0.45259781870437504
0.3672340425531915 0.4488329785806727 0.4495949342286164
0.36744680851063827 0.44887611707213865 0.45256357918254564
0.3676595744680851 0.44802950800514013 0.4510174918285507
0.3678723404255319 0.4471145407469359 0.4519402698849483
0.3680851063829787 0.448760255325683 0.45266841360609333
0.36829787234042555 0.44768504798729775 0.45216839607718695
0.36851063829787234 0.4486448023833691 0.453187680554837
0.36872340425531913 0.4495085328401381 0.4519370656468051
0.368936170212766 0.4463838534595802 0.4502325969634194
0.36914893617021277 0.4452762843138461 0.4507863815362865
0.36936170212765956 0.4491005944738055 0.4549628318944211
0.36957446808510636 0.4471507620714537 0.4520876795051399
0.3697872340425532 0.4477973317945482 0.4509037616023448
0.37 0.4458283773789038 0.4514743207211292
0.3702127659574468 0.4448986924485609 0.4541205437789896
0.37042553191489364 0.44391317469957897 0.45563764954081004
0.3706382978723404 0.4416882234857322 0.4540459713054973
0.3708510638297872 0.44119777308430924 0.4537704731296624
0.371063829787234 0.4411344210829971 0.45383382513097453
0.37127659574468086 0.44229628342196764 0.45391876145634563
0.37148936170212765 0.44406448461162684 0.4551439063293849
0.37170212765957444 0.4425710968168259 0.45354887776065655
0.3719148936170213 0.4437750290909466 0.4528578407425501
0.3721276595744681 0.4431082529078454 0.45190160903876886
0.3723404255319149 0.443819434832525 0.45253110770374766
0.3725531914893617 0.441133365901319 0.44968507779120953
0.3727659574468085 0.44062940455980326 0.45333091897113686
0.3729787234042553 0.439304483286893 0.4503526435544039
0.3731914893617021 0.44407907600486085 0.4477684801420761
0.37340425531914895 0.44486902136527995 0.4433603363060138
0.37361702127659574 0.4430874450415241 0.44180349786123546
0.37382978723404253 0.4422776851152893 0.4437299253238913
0.3740425531914894 0.4430596303357169 0.4459629343402175
0.37425531914893617 0.44482652915278514 0.4472105983508787
0.37446808510638296 0.4440129608794931 0.4480241666241707
0.37468085106382976 0.44699560332193444 0.4463051888669653
0.3748936170212766 0.44699560332193444 0.4480495452796873
0.3751063829787234 0.44817309963183743 0.4487618477867889
0.3753191489361702 0.44894968246213973 0.4491976479014661
0.37553191489361704 0.4498194086919759 0.4524285873814845
0.37574468085106383 0.44817423077073454 0.4519815951117962
0.3759574468085106 0.4480007429849939 0.45084756141643134
0.37617021276595747 0.44945683329227176 0.44894968246213973
0.37638297872340426 0.4512761828848891 0.4498566098934774
0.37659574468085105 0.45076073734355915 0.45146379351678906
0.37680851063829784 0.4524289525440201 0.45035561023077225
0.3770212765957447 0.4521694996168077 0.44923838090649987
0.3772340425531915 0.4510518180746849 0.4497786655599022
0.3774468085106383 0.4518714668614394 0.44895901677314787
0.3776595744680851 0.4528578407425501 0.44895964688592244
0.3778723404255319 0.45299899138438315 0.4497855713904092
0.3780851063829787 0.4546708712150025 0.44922834609625634
0.37829787234042556 0.4576013430101473 0.4486737060514619
0.37851063829787235 0.4598315547836862 0.4497742948732361
0.37872340425531914 0.46276063223191305 0.4511853095296
0.37893617021276593 0.4594339991749255 0.4517380169700955
0.3791489361702128 0.46061227971277746 0.45188080117244755
0.3793617021276596 0.46056835058655077 0.4528578407425501
0.37957446808510636 0.45992504347798024 0.45308576648726206
0.3797872340425532 0.4600620551841848 0.45322277819346674
0.38 0.4591667495527247 0.4514341297828884
0.3802127659574468 0.45969711773326827 0.44973053066064733
0.3804255319148936 0.4618825322105704 0.4467642679848374
0.38063829787234044 0.46176021781718474 0.44688658237822304
0.38085106382978723 0.459780847114699 0.4460604284425473
0.381063829787234 0.45881181822100464 0.451422100883252
0.38127659574468087 0.45969711773326827 0.4474633159630461
0.38148936170212766 0.45969711773326827 0.44970042516950326
0.38170212765957445 0.45969711773326827 0.4514218105224921
0.3819148936170213 0.46299582337529455 0.45056131891563694
0.3821276595744681 0.4589634807616787 0.44992672203224227
0.3823404255319149 0.46151846203740177 0.4470951544489881
0.3825531914893617 0.45796130809285296 0.4491679519619297
0.3827659574468085 0.4594464952260102 0.45115438410960285
0.3829787234042553 0.4579319639964037 0.4506986299223047
0.3831914893617021 0.45572273380096046 0.4494713150731397
0.38340425531914896 0.4567583340164479 0.4492779173210114
0.38361702127659575 0.4554753718713039 0.44819379355488675
0.38382978723404254 0.45569245173887674 0.4470921110359156
0.38404255319148933 0.45298681614839054 0.44988373023029543
0.3842553191489362 0.45567007397639314 0.44930633889153393
0.384468085106383 0.45494235813975326 0.45148948640145337
0.38468085106382977 0.4540685866561886 0.45188080117244755
0.3848936170212766 0.45463837189952416 0.45188080117244755
0.3851063829787234 0.45387542354352456 0.4490713121547556
0.3853191489361702 0.4511987170989027 0.45022167752880016
0.38553191489361704 0.4538348803126526 0.452637734025391
0.38574468085106384 0.45285758078986327 0.45188080117244755
0.38595744680851063 0.45130152447284544 0.4506875125609458
0.3861702127659574 0.4524167352073967 0.45055748456698747
0.38638297872340427 0.45218410905983464 0.44985960612430115
0.38659574468085106 0.4478151879661033 0.4497628051034085
0.38680851063829785 0.44881666543726473 0.44901619097457723
0.3870212765957447 0.44721285830818497 0.4506865066160943
0.3872340425531915 0.4497372216651935 0.4509037616023448
0.3874468085106383 0.4451844306881453 0.4510466681087607
0.3876595744680851 0.44955650486000415 0.45541874228061974
0.3878723404255319 0.4480591835407277 0.4539214209613432
0.3880851063829787 0.4451072793083041 0.45477904231946775
0.3882978723404255 0.4468863774090108 0.4535072025738817
0.38851063829787236 0.44587709622080873 0.4508566057586704
0.38872340425531915 0.443110865209723 0.4500672430414357
0.38893617021276594 0.44394929691619084 0.455097833280242
0.3891489361702128 0.4428823411021629 0.45283360067919814
0.3893617021276596 0.44248973554316706 0.4528004119610725
0.3895744680851064 0.44244234542359456 0.45546640964389307
0.38978723404255317 0.4399891325641338 0.4544305087703601
0.39 0.4404385469347424 0.4538348803126526
0.3902127659574468 0.4425638849930279 0.45488200040964516
0.3904255319148936 0.44032263396667287 0.45340526411319304
0.39063829787234045 0.4410197755245278 0.4512673049179761
0.39085106382978724 0.4386818989417543 0.4514751793572894
0.39106382978723403 0.4367438660472926 0.4508894051794745
0.3912765957446808 0.43767006224578026 0.44948186740737067
0.39148936170212767 0.4382022471910112 0.44937722649001177
0.39170212765957446 0.4385163723986981 0.45055497244761616
0.39191489361702125 0.4392697388253783 0.45160944497965394
0.3921276595744681 0.4400750880233828 0.44919339738564074
0.3923404255319149 0.4376373877634217 0.4497893286514046
0.3925531914893617 0.4374073227837418 0.4502909523579086
0.39276595744680853 0.437620854007171 0.45071801480476703
0.3929787234042553 0.43783438523060014 0.4511450772516254
0.3931914893617021 0.4380479164540293 0.45157213969848375
0.3934042553191489 0.43889590889202656 0.45136055489668603
0.39361702127659576 0.4413978888680818 0.44948406991464457
0.39382978723404255 0.4413463322255631 0.4512419021997154
0.39404255319148934 0.44024759520839013 0.45099503047951844
0.3942553191489362 0.4431307781067549 0.45081709547188326
0.394468085106383 0.44406448461162684 0.4493163596054824
0.3946808510638298 0.4443410629431364 0.45228665325989276
0.39489361702127657 0.4453363622775663 0.4543147689736733
0.3951063829787234 0.44559047846235095 0.44961950573390186
0.3953191489361702 0.44617954556657363 0.4496796749693036
0.395531914893617 0.44699560332193444 0.4509037616023448
0.39574468085106385 0.44553839328136924 0.4494465515617796
0.39595744680851064 0.44781017514148247 0.4551791471215842
0.39617021276595743 0.4481953062145592 0.45095365236483814
0.3963829787234043 0.44886159003217113 0.4462828410417378
0.39659574468085107 0.4521198985109277 0.4470553776565545
0.39680851063829786 0.4545571596577533 0.44756204296033564
0.39702127659574465 0.45063117841101336 0.446723020130603
0.3972340425531915 0.45188080117244755 0.4484711948444589
0.3974468085106383 0.45188080117244755 0.4495941895347944
0.3976595744680851 0.45188080117244755 0.4560535607820288
0.39787234042553193 0.45367971754376873 0.4523462894790992
0.3980851063829787 0.4557889594528579 0.45201042181338164
0.3982978723404255 0.45536708923671027 0.4536239452045788
0.3985106382978723 0.4538348803126526 0.45392867849850627
0.39872340425531916 0.45484046267362555 0.454783377091885
0.39893617021276595 0.456436274843874 0.45318756492163653
0.39914893617021274 0.45676599902296044 0.45206633366303806
0.3993617021276596 0.45864263968810254 0.45188080117244755
0.3995744680851064 0.45755004459953474 0.45031271001929873
0.3997872340425532 0.45654193942249427 0.4527054103581981
0.4 0.46002958693751533 0.44830511209628426
0.4002127659574468 0.45972009945133113 0.44942671138815954
0.4004255319148936 0.4587200781631655 0.44992672203224227
0.4006382978723404 0.4587200781631655 0.44992672203224227
0.40085106382978725 0.4609361017928637 0.44992672203224227
0.40106382978723404 0.455476495687025 0.44992672203224227
0.40127659574468083 0.45784363562279784 0.44817383695150687
0.4014893617021277 0.4593117593065347 0.45149544274571396
0.40170212765957447 0.4584187115263951 0.44992672203224227
0.40191489361702126 0.45969711773326827 0.45089645501481984
0.40212765957446805 0.460327690274453 0.45188080117244755
0.4023404255319149 0.4622245100907858 0.4503304483850324
0.4025531914893617 0.4607841770968742 0.45269281105229503
0.4027659574468085 0.46236183167731404 0.4517031979949397
0.40297872340425533 0.4599322300760358 0.44969160968947475
0.4031914893617021 0.4618165867915946 0.44971130212095556
0.4034042553191489 0.46165006069139575 0.4513925654329156
0.40361702127659577 0.45969711773326827 0.451399032035576
0.40382978723404256 0.45919990915491493 0.4509037616023448
0.40404255319148935 0.45934902155270885 0.45153270499188813
0.40425531914893614 0.4604673498562991 0.4526510332954784
0.404468085106383 0.45792914071083174 0.450112824150011
0.4046808510638298 0.4575713595290718 0.4493788801221177
0.4048936170212766 0.45555497164997627 0.45360089250977104
0.4051063829787234 0.45404937965191183 0.4524765706271284
0.4053191489361702 0.45338274877696644 0.45083098510361475
0.405531914893617 0.45316775139272847 0.4512609798720907
0.4057446808510638 0.45123395456632515 0.45269274426055994
0.40595744680851065 0.4499719827062071 0.4519260618464124
0.40617021276595744 0.450834716181332 0.44905325059365897
0.40638297872340423 0.4490617972672496 0.4518247437698926
0.4065957446808511 0.45083172932665094 0.4511198584294264
0.40680851063829787 0.45003489717429807 0.4535103548864852
0.40702127659574466 0.4490039711639929 0.4538348803126526
0.4072340425531915 0.4477452681263444 0.45300942391967863
0.4074468085106383 0.44460751104965657 0.45481191988275516
0.4076595744680851 0.4430874450415241 0.4544839544264444
0.4078723404255319 0.44349214607963344 0.4538348803126526
0.40808510638297874 0.44406448461162684 0.45438123123281215
0.4082978723404255 0.44406448461162684 0.45345543997039417
0.4085106382978723 0.441642952740258 0.4536650180330063
0.40872340425531917 0.4430258343998544 0.4557273488111882
0.40893617021276596 0.4413553289766844 0.4528578407425501
0.40914893617021275 0.4433397767034359 0.45311017240446183
0.40936170212765954 0.44445960415762137 0.4534397607666581
0.4095744680851064 0.4450415241817294 0.4517846360203383
0.4097872340425532 0.4463999036573129 0.45294133081572024
0.41 0.4431944662618592 0.4507939706645924
0.4102127659574468 0.44211040547142155 0.4507986898170101
0.4104255319148936 0.44218119024838504 0.4490204672391032
0.4106382978723404 0.4442407634363926 0.45231399220047114
0.41085106382978726 0.4447227435261976 0.4571261748855068
0.41106382978723405 0.4454410918446061 0.45291714215733314
0.41127659574468084 0.4451981364420664 0.45128164554582473
0.41148936170212763 0.44406448461162684 0.45164070837681813
0.4117021276595745 0.4433310714112993 0.45188080117244755
0.41191489361702127 0.44226001328737224 0.44939850590999186
0.41212765957446806 0.44211040547142155 0.4517250560586312
0.4123404255319149 0.4400722517099802 0.4545596960190464
0.4125531914893617 0.43895066957041806 0.4523380355538389
0.4127659574468085 0.4393165315156653 0.4527205959879985
0.4129787234042553 0.441133365901319 0.45141759803091186
0.41319148936170214 0.44178838106459284 0.45188080117244755
0.41340425531914893 0.43891795708215553 0.45188080117244755
0.4136170212765957 0.44102897593204016 0.4509385582587711
0.41382978723404257 0.4430874450415241 0.4509037616023448
0.41404255319148936 0.4430874450415241 0.4514222731347484
0.41425531914893615 0.4430874450415241 0.45245048706433183
0.414468085106383 0.4426013137330723 0.4504224072470922
0.4146808510638298 0.4454041989946454 0.4484007168749358
0.4148936170212766 0.4452619432658365 0.4466172930789368
0.4151063829787234 0.44406448461162684 0.44927654158296476
0.4153191489361702 0.44127980480906165 0.4471420422296771
0.415531914893617 0.44317796605938375 0.4460185637518319
0.4157446808510638 0.4445072706478172 0.4460185637518319
0.41595744680851066 0.4460185637518319 0.4467227630401944
0.41617021276595745 0.4455229474892157 0.4474770266294209
0.41638297872340424 0.4463188763916021 0.44699560332193444
0.4165957446808511 0.4493441161132582 0.44699560332193444
0.4168085106382979 0.44899974262099857 0.44977654155566565
0.41702127659574467 0.44964647655028517 0.45188080117244755
0.41723404255319146 0.4474657507388151 0.45282109600620885
0.4174468085106383 0.44978590028486765 0.45595620301740347
0.4176595744680851 0.45228684780867323 0.4564563925221646
0.4178723404255319 0.45313149905891587 0.4560626177692236
0.41808510638297874 0.4540187561132825 0.45338661658886514
0.41829787234042554 0.457743038593063 0.45236421987649955
0.41851063829787233 0.457743038593063 0.45507234508323685
0.4187234042553191 0.45698527098325603 0.45427342423324385
0.41893617021276597 0.4576628365381513 0.4538348803126526
0.41914893617021276 0.45394452548919856 0.45288525203668656
0.41936170212765955 0.453292941190682 0.4516632509483816
0.4195744680851064 0.45676599902296044 0.44992672203224227
0.4197872340425532 0.45714346829380803 0.45068166057393755
0.42 0.4573269560172817 0.45146471859666615
0.42021276595744683 0.4571667027440043 0.45010235416025707
0.4204255319148936 0.4562878879890439 0.4504048330661588
0.4206382978723404 0.4559526428609599 0.45016971670514055
0.4208510638297872 0.45548153626759136 0.44830745108445524
0.42106382978723406 0.45342843551098644 0.4507396116355748
0.42127659574468085 0.45653791751751194 0.45188080117244755
0.42148936170212764 0.456920916594596 0.45188080117244755
0.4217021276595745 0.45676599902296044 0.4536779163572146
0.4219148936170213 0.457698862181209 0.45196915399615556
0.4221276595744681 0.46317838481455104 0.45097491013553276
0.42234042553191486 0.45595655871068463 0.4509037616023448
0.4225531914893617 0.45882186630482347 0.4533097294555858
0.4227659574468085 0.4582005804902835 0.45084180582668326
0.4229787234042553 0.45930352146589265 0.44992672203224227
0.42319148936170214 0.45884131290397406 0.45163833169083045
0.42340425531914894 0.4568323479053721 0.45188080117244755
0.42361702127659573 0.45479159297443106 0.44990639512391817
0.4238297872340426 0.4540261660793858 0.4491409682288729
0.42404255319148937 0.45461802625486514 0.4528654121732025
0.42425531914893616 0.4530682889277282 0.4538348803126526
0.42446808510638295 0.4556248078219121 0.4519902355930781
0.4246808510638298 0.4521883922175818 0.45098065936362836
0.4248936170212766 0.45188080117244755 0.4563770309526903
0.4251063829787234 0.4501534967462349 0.45244773795742904
0.42531914893617023 0.44908282890696494 0.45525637367355715
0.425531914893617 0.45054374152455057 0.4526008413280361
0.4257446808510638 0.45401636487071095 0.4511026503553559
0.4259574468085106 0.452328667207627 0.4502829484335628
0.42617021276595746 0.45005862278515846 0.4503492914408354
0.42638297872340425 0.44916874160680315 0.4500275250236912
0.42659574468085104 0.4499040140224942 0.4470296653365566
0.4268085106382979 0.4479726428920372 0.44992672203224227
0.4270212765957447 0.44852788970125534 0.45066705111119987
0.4272340425531915 0.4509037616023448 0.4522462384151765
0.4274468085106383 0.45000056001102307 0.44894968246213973
0.4276595744680851 0.44894968246213973 0.45100433367212206
0.4278723404255319 0.44894968246213973 0.4516995140236177
0.4280851063829787 0.4477819849045991 0.453239156717426
0.42829787234042555 0.44823219624835725 0.45357532695633246
0.42851063829787234 0.4474456654989365 0.4498498068161438
0.42872340425531913 0.447888079860151 0.4507346355385724
0.428936170212766 0.44887219782891996 0.44820509679169646
0.42914893617021277 0.4479726428920372 0.4517950758254795
0.42936170212765956 0.4479726428920372 0.4495533972424412
0.42957446808510635 0.4473208925008075 0.4486243932832668
0.4297872340425532 0.44554839902939347 0.4518073809219961
0.43 0.4450415241817294 0.4507779272893515
0.4302127659574468 0.44202586293943286 0.44894968246213973
0.43042553191489363 0.441133365901319 0.44894968246213973
0.4306382978723404 0.44192579607006915 0.45261169487408026
0.4308510638297872 0.43958055095501763 0.4493509466560436
0.43106382978723407 0.44285432366125954 0.4502153784983686
0.43127659574468086 0.4437307364713247 0.4498648133743426
0.43148936170212765 0.441133365901319 0.45145494657032914
0.43170212765957444 0.43995177120335 0.45069920647447853
0.4319148936170213 0.4398516426598422 0.45059907793097065
0.4321276595744681 0.4432342740450109 0.45244273545924213
0.4323404255319149 0.44585623668537055 0.45196196470567823
0.4325531914893617 0.43832456301466766 0.45194195908427576
0.4327659574468085 0.43994983887183947 0.4524448658237961
0.4329787234042553 0.43917928676111373 0.4530104408061594
0.4331914893617021 0.4386840751844198 0.45280430640940894
0.43340425531914895 0.43947811752923216 0.44767381212391877
0.43361702127659574 0.4409390729223252 0.4485610965041521
0.43382978723404253 0.441133365901319 0.44616749816927737
0.4340425531914894 0.44201842850465933 0.44522547811525387
0.43425531914893617 0.44231109074803193 0.44770223822996225
0.43446808510638296 0.4456421560038743 0.44766827554449656
0.4346808510638298 0.44556187660474816 0.44354413218860794
0.4348936170212766 0.44668299782103676 0.44441631317993396
0.4351063829787234 0.4461882608188508 0.44746355169098045
0.4353191489361702 0.4498249310448861 0.4479726428920372
0.43553191489361703 0.44699560332193444 0.45031029754266433
0.4357446808510638 0.44721964383679735 0.4471387663261463
0.4359574468085106 0.4487347563061439 0.4498876103835358
0.43617021276595747 0.4497478804149578 0.4462250158636764
0.43638297872340426 0.4484978122190085 0.44556669350870065
0.43659574468085105 0.4476197177199791 0.44734852849399254
0.43680851063829784 0.44699560332193444 0.450268168747995
0.4370212765957447 0.44699560332193444 0.450160526398831
0.4372340425531915 0.4495013031231508 0.45326765510053063
0.4374468085106383 0.4479832891586173 0.45286316387584014
0.4376595744680851 0.4496615477082057 0.4534371188265977
0.4378723404255319 0.44906294592435403 0.45117633736042406
0.4380851063829787 0.45229456328941736 0.45188080117244755
0.43829787234042555 0.4534134308951911 0.4502140307145244
