0.0 0.4587200781631655 0.45969711773326827
0.0002127659574468085 0.4587200781631655 0.46027633250566896
0.000425531914893617 0.45840850196422583 0.4609857335023105
0.0006382978723404255 0.457743038593063 0.46234557109219954
0.000851063829787234 0.4573854853973446 0.46467793560083376
0.0010638297872340426 0.45676599902296044 0.4665363947239862
0.001276595744680851 0.45655730204630546 0.46632769774733124
0.0014893617021276596 0.4561168563557376 0.4654500561862571
0.001702127659574468 0.45846714589571896 0.46466662633959666
0.0019148936170212765 0.45443687370978747 0.45958524372150666
0.002127659574468085 0.45080720849330214 0.45637595042689777
0.002340425531914894 0.4527545546278725 0.4557889594528579
0.002553191489361702 0.4599294176999588 0.45655077662627114
0.0027659574468085106 0.4519343507967771 0.45190757598461223
0.0029787234042553193 0.4466753640151037 0.4460267245766371
0.0031914893617021275 0.4436327168863236 0.4450415241817294
0.003404255319148936 0.44861008174208444 0.4418857317814092
0.003617021276595745 0.4471651940783777 0.441133365901319
0.003829787234042553 0.444816402498063 0.44053228527443455
0.004042553191489362 0.44406448461162684 0.4359203276662481
0.00425531914893617 0.4453073637832973 0.4339384889263335
0.004468085106382979 0.4460185637518319 0.4325000709890552
0.004680851063829788 0.44542924731790035 0.43018433733242994
0.004893617021276595 0.44437905835568814 0.4287464252340467
0.005106382978723404 0.44327883375858823 0.42607489893086997
0.005319148936170213 0.4430874450415241 0.4291378047337117
0.005531914893617021 0.4429171185773991 0.43176039861658466
0.00574468085106383 0.4398045568400298 0.4390816709189778
0.005957446808510639 0.4387078586354288 0.44485708509698574
0.006170212765957446 0.439387674493768 0.45492295897565715
0.006382978723404255 0.4397482592320258 0.46365891113758567
0.006595744680851064 0.441133365901319 0.46781845310588854
0.006808510638297872 0.43799721336008346 0.4702515515696029
0.007021276595744681 0.43900534546950076 0.46955448408010053
0.00723404255319149 0.43913951812584934 0.47146136120976373
0.007446808510638298 0.4388935359176444 0.4715345212363104
0.007659574468085106 0.44095762481041983 0.4680898246245898
0.007872340425531916 0.4394406753364625 0.46988032281611114
0.008085106382978723 0.44003579377789764 0.47154212512781796
0.008297872340425531 0.43983903576717015 0.47239863214460187
0.00851063829787234 0.44077509258769254 0.4761112296834582
0.008723404255319148 0.44173418942472953 0.48126498718227
0.008936170212765958 0.44211040547142155 0.48572236018646886
0.009148936170212766 0.44211040547142155 0.4876754910564306
0.009361702127659575 0.4416244331797947 0.48851723755787013
0.009574468085106383 0.44171031264475336 0.4864120444908912
0.00978723404255319 0.44292161890284826 0.47988329642807087
0.01 0.4411396056062311 0.47631926983483647
0.010212765957446808 0.4418994552786899 0.47247634353815776
0.010425531914893617 0.44211040547142155 0.4676344035528722
0.010638297872340425 0.44381177762355023 0.4665363947239862
0.010851063829787235 0.4421511471067025 0.4598397134567515
0.011063829787234043 0.4449993972696877 0.45295613687064745
0.01127659574468085 0.445174412045314 0.4508594656478166
0.01148936170212766 0.4479726428920372 0.4494718963442598
0.011702127659574468 0.4479726428920372 0.4457882016546144
0.011914893617021277 0.4479726428920372 0.4431966461653725
0.012127659574468085 0.4453136988913855 0.4368832423733371
0.012340425531914893 0.4467352453566321 0.4303201439386462
0.012553191489361702 0.45050101657754377 0.42730564310672237
0.01276595744680851 0.44943324076215196 0.42280643173433685
0.01297872340425532 0.44911862451862883 0.4206155349291647
0.013191489361702127 0.4511112779995035 0.4170618670273811
0.013404255319148937 0.45375607077323576 0.4185038367101257
0.013617021276595745 0.45349803875817074 0.4219294160537491
0.013829787234042552 0.45353716606469674 0.4252869153579565
0.014042553191489362 0.4569132311158699 0.4280169477513888
0.01425531914893617 0.4568432972678228 0.43473004076666677
0.01446808510638298 0.4558436944926202 0.4414070411001305
0.014680851063829787 0.4562149758442659 0.4473042845021192
0.014893617021276596 0.4535468790207735 0.4540098459100666
0.015106382978723404 0.4545596974246756 0.4571914631934918
0.015319148936170212 0.4584532140051921 0.457743038593063
0.015531914893617021 0.4561953892203778 0.46054442140337526
0.01574468085106383 0.45642151414684684 0.46165119687347334
0.015957446808510637 0.4549079529942614 0.4653672889308712
0.016170212765957447 0.45676599902296044 0.46549052172530864
0.016382978723404256 0.45636216727490136 0.46478423145781067
0.016595744680851062 0.45548361388489883 0.46455181415066826
0.01680851063829787 0.45629123430897417 0.46405253058553486
0.01702127659574468 0.4564042004702511 0.46248315006691765
0.01723404255319149 0.4582767203341154 0.46218487861452573
0.017446808510638297 0.46137988583833656 0.4608550313267953
0.017659574468085106 0.4682203930803329 0.45866006021119693
0.017872340425531916 0.46125123276484103 0.4571113579188655
0.018085106382978722 0.4614156456610082 0.45934379091457045
0.01829787234042553 0.46553556177464067 0.45578102832644357
0.01851063829787234 0.46277108328137556 0.4545262262071558
0.01872340425531915 0.4633414597654424 0.45338547323902245
0.018936170212765956 0.46321001968550074 0.4536483533989054
0.019148936170212766 0.4630853689699408 0.4499057971931179
0.019361702127659575 0.46055711668120414 0.44699560332193444
0.01957446808510638 0.46169614368822254 0.44413190483375037
0.01978723404255319 0.46024155159733376 0.4395000643091224
0.02 0.45886737674158967 0.4333841656929283
0.02021276595744681 0.4571003033142763 0.4297431953514038
0.020425531914893616 0.45534842503335654 0.42657374308088036
0.020638297872340425 0.4563439290394798 0.4262667373580398
0.020851063829787235 0.45676599902296044 0.4297125691133114
0.02106382978723404 0.45676599902296044 0.43214409982481444
0.02127659574468085 0.4596717271406716 0.4342771618488697
0.02148936170212766 0.45693138362898 0.4413814428103484
0.02170212765957447 0.4587200781631655 0.44444322604959724
0.021914893617021276 0.4587200781631655 0.4467443786895742
0.022127659574468085 0.45784898083203074 0.4487377979842042
0.022340425531914895 0.457743038593063 0.44814531427802634
0.0225531914893617 0.45494860008139115 0.449369862147873
0.02276595744680851 0.4538348803126526 0.4505538327159522
0.02297872340425532 0.4513266397378135 0.4504857215065383
0.023191489361702126 0.4478250341512634 0.4497791132914685
0.023404255319148935 0.44704533973159494 0.4488999460524793
0.023617021276595745 0.44792757405668465 0.4479636291249667
0.023829787234042554 0.4430874450415241 0.44699560332193444
0.02404255319148936 0.4430874450415241 0.44699560332193444
0.02425531914893617 0.4426251954062309 0.44745785295722773
0.02446808510638298 0.44244192194548987 0.44730960994390045
0.024680851063829785 0.4437640866073002 0.44635688453471994
0.024893617021276595 0.4458724891701149 0.44699560332193444
0.025106382978723404 0.44797851951679646 0.4494528938090894
0.025319148936170214 0.44604744120193957 0.4507199046683674
0.02553191489361702 0.4446670195986154 0.4487216520582652
0.02574468085106383 0.4450415241817294 0.44755618606241043
0.02595744680851064 0.44519512900410035 0.4471492081443054
0.026170212765957445 0.44605910966593126 0.4480537347202359
0.026382978723404255 0.4461956024716148 0.45015529370376217
0.026595744680851064 0.4397692882454909 0.45207432021531035
0.026808510638297874 0.43863977174403707 0.45417041440162764
0.02702127659574468 0.4393786589368122 0.4587200781631655
0.02723404255319149 0.4366963163389449 0.45782378158688786
0.0274468085106383 0.43794509994325703 0.4563548033692803
0.027659574468085105 0.43785583552038415 0.4606741573033708
0.027872340425531914 0.43784283241929206 0.46201061164519247
0.028085106382978724 0.4361127362119029 0.46570445922538045
0.028297872340425533 0.438540308607392 0.46781435103142976
0.02851063829787234 0.43877193494323236 0.4669437465418677
0.02872340425531915 0.4377236492173158 0.46942782618887063
0.02893617021276596 0.44000331482648913 0.47475532122119585
0.029148936170212764 0.43898475480778815 0.474783309464208
0.029361702127659574 0.44005598064142554 0.4726679784595752
0.029574468085106383 0.441133365901319 0.46761002737220303
0.029787234042553193 0.441133365901319 0.46391541440792333
0.03 0.4399901869232371 0.4591986995093304
0.03021276595744681 0.44104574259354573 0.45241093541395255
0.030425531914893618 0.4398958830345069 0.4491885478866041
0.030638297872340424 0.44179281780026336 0.44459379739689053
0.030851063829787233 0.44211040547142155 0.4346003791580529
0.031063829787234043 0.4435483485876786 0.43108642807260034
0.03127659574468085 0.4475679503494236 0.42782481267606504
0.03148936170212766 0.44635544882156963 0.42381630743098897
0.03170212765957447 0.4451122172882252 0.4201446884207373
0.031914893617021274 0.4473188122382086 0.41782505227476874
0.03212765957446809 0.44697318094629523 0.4152306061057808
0.03234042553191489 0.44688947402985446 0.41475329750854906
0.0325531914893617 0.4460686723976707 0.4198639842653363
0.03276595744680851 0.4478094453493297 0.4294110367462304
0.03297872340425532 0.44699560332193444 0.43639041600422657
0.033191489361702124 0.44873094782923495 0.44460405491592003
0.03340425531914894 0.45146958512181423 0.452910447098425
0.03361702127659574 0.4504867756068699 0.4592740233668018
0.033829787234042556 0.4528972688174173 0.4614167939996645
0.03404255319148936 0.45222577533260117 0.46245574936349904
0.03425531914893617 0.45452356202337946 0.4591045553089998
0.03446808510638298 0.45481191988275516 0.4587200781631655
0.03468085106382979 0.4539614366004981 0.4587200781631655
0.03489361702127659 0.45672916921212336 0.4548610262972046
0.035106382978723406 0.4576028603971675 0.45188080117244755
0.03531914893617021 0.45389138666890017 0.4516547757474573
0.03553191489361702 0.45525539924412783 0.4484161222534099
0.03574468085106383 0.45711865265726503 0.449446861085483
0.03595744680851064 0.4556362928950206 0.4421409475830075
0.036170212765957444 0.457743038593063 0.4369961837719046
0.036382978723404256 0.457743038593063 0.43627343198527596
0.03659574468085106 0.45692375683327413 0.4354288862910171
0.03680851063829787 0.46244769179023837 0.4352711284807034
0.03702127659574468 0.46393309411018324 0.4359203499543014
0.03723404255319149 0.4655076846156849 0.4387847128534813
0.0374468085106383 0.4678392636925405 0.44145919529977057
0.03765957446808511 0.46906474201953746 0.4461302825588433
0.03787234042553191 0.46895784080400704 0.4520077182438618
0.038085106382978726 0.46904458204932875 0.45758246080844167
0.03829787234042553 0.4668292438618759 0.46101625251947725
0.03851063829787234 0.4655593551538837 0.4694652595738119
0.03872340425531915 0.46282589158468124 0.4686881290052969
0.03893617021276596 0.46542518016763 0.46828921138481094
0.03914893617021276 0.4634050249498237 0.46515885302617394
0.039361702127659576 0.4622943519913592 0.4629375071092452
0.03957446808510638 0.46118174373301224 0.46071229059255114
0.03978723404255319 0.4588628957266382 0.4609046254510899
0.04 0.4570039861094757 0.4564778294883619
0.04021276595744681 0.4526501483331446 0.4556350900207185
0.04042553191489362 0.4509477270703857 0.4595212558611047
0.040638297872340426 0.4509917485721895 0.44992672203224227
0.04085106382978723 0.4512118657639565 0.4497037435627453
0.041063829787234045 0.4507159978316398 0.4493029455360397
0.04127659574468085 0.45432388084376557 0.44845972043890336
0.04148936170212766 0.4553598569312273 0.4458997292249904
0.04170212765957447 0.4552314172167141 0.4439264397094419
0.041914893617021276 0.4560439675283113 0.4424714212187461
0.04212765957446808 0.45606004901508007 0.4399925554477803
0.042340425531914895 0.4557889594528579 0.4464922547232399
0.0425531914893617 0.4523232204058387 0.444506903845018
0.04276595744680851 0.45007619738469234 0.44586908839938183
0.04297872340425532 0.44992672203224227 0.446897033181487
0.043191489361702126 0.4452675398203595 0.44792743976431115
0.04340425531914894 0.44589113813106046 0.44691065290808685
0.043617021276595745 0.4430874450415241 0.4446202916412878
0.04382978723404255 0.44385313129421966 0.44211040547142155
0.044042553191489364 0.44668774443429604 0.44195647602760235
0.04425531914893617 0.44525456173622585 0.44100554336862113
0.044468085106382976 0.44860093555967734 0.43899771907455015
0.04468085106382979 0.4473230963922844 0.4423680482149438
0.044893617021276595 0.44638688425225487 0.4451216570381483
0.0451063829787234 0.4476155281997499 0.44585005807306277
0.045319148936170214 0.44749176808142904 0.45068625912037075
0.04553191489361702 0.4485953251066269 0.4586238182969605
0.045744680851063826 0.4483306596703139 0.46575337668333894
0.04595744680851064 0.448654874827292 0.47005712870398964
0.046170212765957445 0.447181100452194 0.4718173637944209
0.04638297872340425 0.44495756704151695 0.4729291304997594
0.046595744680851064 0.44406448461162684 0.4733756717147044
0.04680851063829787 0.4416924680189315 0.4702129829244439
0.047021276595744683 0.43929278523649273 0.47130809409912033
0.04723404255319149 0.43706920109254577 0.46532534536133935
0.047446808510638296 0.4350949867945739 0.46192366969905796
0.04765957446808511 0.4347759859793118 0.45839881345069156
0.047872340425531915 0.4361570152631477 0.45623190284407994
0.04808510638297872 0.4348932864514283 0.45481191988275516
0.048297872340425534 0.43670946388709436 0.45326468868131226
0.04851063829787234 0.43624816805080613 0.45188080117244755
0.048723404255319146 0.4409735518745175 0.45109323720182887
0.04893617021276596 0.43748981847443574 0.44905552680355054
0.049148936170212765 0.43722520762090866 0.44828563628999973
0.04936170212765957 0.43735678593491073 0.4516176445444434
0.049574468085106384 0.4382022471910112 0.4504547087555666
0.04978723404255319 0.43977396964767634 0.4510949399441149
0.05 0.44004827519283707 0.45198885231082675
0.05021276595744681 0.43950309653645153 0.4538348803126526
0.050425531914893615 0.44643544260373397 0.45069532217639385
0.05063829787234043 0.4433669099513992 0.45361130838475255
0.050851063829787234 0.44496431905508343 0.45460693157911214
0.05106382978723404 0.4434352170890893 0.4625564968094494
0.05127659574468085 0.44252101106158587 0.45941390074329896
0.05148936170212766 0.4440798098976629 0.4616358715874372
0.051702127659574465 0.4437014157919708 0.4638561779444692
0.05191489361702128 0.4433140868310301 0.46458231558378116
0.052127659574468084 0.44473617299327356 0.4678797714872799
0.05234042553191489 0.4450415241817294 0.4661325151294182
0.0525531914893617 0.4450415241817294 0.46784969081320416
0.05276595744680851 0.445871145230862 0.4651719896676608
0.05297872340425532 0.44775153598226336 0.46198285723813404
0.05319148936170213 0.451454619442605 0.45642823204762173
0.053404255319148934 0.4527983250710167 0.4548714355542886
0.05361702127659575 0.45540547395203895 0.4505658645336072
0.05382978723404255 0.45340714523444847 0.4523085362506517
0.05404255319148936 0.45643761547841466 0.4528578407425501
0.05425531914893617 0.4552788762059773 0.4576392705212358
0.05446808510638298 0.4619131440212557 0.4571050621136312
0.054680851063829784 0.45514102327464934 0.4622991330516818
0.0548936170212766 0.4553305041348639 0.46027583091949154
0.0551063829787234 0.45539078725039994 0.4581412107955209
0.05531914893617021 0.45508106037897067 0.457743038593063
0.05553191489361702 0.4588135327844229 0.45440836117500666
0.05574468085106383 0.4606741573033708 0.4542903267848758
0.055957446808510634 0.4572647169324252 0.45310719969728247
0.05617021276595745 0.457743038593063 0.45089200619860026
0.05638297872340425 0.457743038593063 0.44992672203224227
0.056595744680851066 0.45888486742117046 0.4502121792392691
0.05680851063829787 0.4595460221529645 0.4500616917141413
0.05702127659574468 0.4562096050734967 0.44950607641160345
0.05723404255319149 0.4557889594528579 0.4506206638948421
0.0574468085106383 0.46243784717324715 0.448410428707199
0.057659574468085104 0.4597483877889123 0.4479726428920372
0.05787234042553192 0.45969711773326827 0.4517580883234724
0.05808510638297872 0.4627267999328687 0.44885111897284696
0.05829787234042553 0.4631332038847001 0.44655642650510163
0.05851063829787234 0.462020084426282 0.44063485526018675
0.05872340425531915 0.46312872354571505 0.4346988374760374
0.058936170212765954 0.46424174399266477 0.43009003424232073
0.05914893617021277 0.4653504908044645 0.4286407158394046
0.05936170212765957 0.4637513655140676 0.4266238618501691
0.059574468085106386 0.46532883129574926 0.4265354033143137
0.05978723404255319 0.46105887025037506 0.4278496963352815
0.06 0.46037356725972234 0.4300702866987106
0.06021276595744681 0.4622289972196046 0.4341155277884411
0.06042553191489362 0.4594909618711997 0.4419579893495929
0.06063829787234042 0.4594457551473555 0.4414131392607803
0.060851063829787236 0.45797855761754824 0.43929704627335636
0.06106382978723404 0.4567456205184745 0.4450415241817294
0.06127659574468085 0.4559448790950342 0.4456652027504345
0.06148936170212766 0.4570305294224767 0.448156091263591
0.06170212765957447 0.4571580187092886 0.44806613334504225
0.06191489361702127 0.4554461347721656 0.4535434901039345
0.062127659574468086 0.45385644666958225 0.456722866309101
0.06234042553191489 0.4583842802069741 0.45933412699254605
0.0625531914893617 0.46014729145891015 0.4604490704405499
0.0627659574468085 0.4561897276776096 0.4597973097894562
0.06297872340425532 0.4530767081700188 0.4600361491436231
0.06319148936170213 0.45009222583435754 0.4604092094355808
0.06340425531914894 0.44828799989565254 0.46035880029975546
0.06361702127659574 0.4476528060960597 0.45969711773326827
0.06382978723404255 0.4471390299024789 0.46081758388391514
0.06404255319148935 0.4472773390460225 0.4595652853354297
0.06425531914893617 0.4436699418928922 0.4587200781631655
0.06446808510638298 0.4469398550463173 0.44812595064998445
0.06468085106382979 0.4458999265105683 0.4471142405631981
0.06489361702127659 0.44478951010577733 0.4464605584363249
0.0651063829787234 0.4436741314730026 0.44250075861004573
0.06531914893617022 0.44149606950080766 0.4388437769329467
0.06553191489361702 0.43948655915122264 0.4366106628406909
0.06574468085106383 0.44076490604668517 0.43722520762090866
0.06595744680851064 0.44387416759806275 0.43539800648974614
0.06617021276595744 0.4393572199419431 0.43917928676111373
0.06638297872340425 0.44193719392268055 0.4397566585902505
0.06659574468085107 0.4397623712614033 0.4485609594619467
0.06680851063829787 0.4424416908127362 0.4486520300285079
0.06702127659574468 0.44261802572315373 0.4523502204908179
0.06723404255319149 0.44028652491459863 0.4540737611137653
0.06744680851063829 0.4399205263235149 0.4525882011955521
0.06765957446808511 0.43933041722491206 0.4543585284913603
0.06787234042553192 0.4419524023692021 0.4529631761440297
0.06808510638297872 0.4420597159643928 0.45691806754404674
0.06829787234042553 0.4408551065842001 0.4594188584161493
0.06851063829787234 0.43868706852215134 0.4574969294735818
0.06872340425531914 0.43815672042803344 0.4561449904848772
0.06893617021276596 0.43976097471064235 0.45441656826218113
0.06914893617021277 0.4382539816426217 0.4515216175164224
0.06936170212765957 0.4383023175740839 0.4484111274855521
0.06957446808510638 0.4385985693264816 0.4444883382842443
0.06978723404255319 0.4382022471910112 0.4415341103941475
0.06999999999999999 0.43935864101707733 0.43939877516221987
0.07021276595744681 0.4401563263312165 0.43622323488943937
0.07042553191489362 0.44094891077713283 0.43368595958887074
0.07063829787234042 0.4420592925721017 0.434242976011281
0.07085106382978723 0.4431763516478861 0.4334059559468603
0.07106382978723404 0.44474152250335214 0.4338427303161173
0.07127659574468086 0.44699560332193444 0.43269847682142965
0.07148936170212766 0.4479655285201827 0.4333170493404983
0.07170212765957447 0.4495651578060764 0.433932524684435
0.07191489361702127 0.45067803557730074 0.43805065663589327
0.07212765957446808 0.44912400083984994 0.4436286886673513
0.07234042553191489 0.4500329745864079 0.44617794258308036
0.0725531914893617 0.45225037877327684 0.449319260062969
0.07276595744680851 0.45330260061113126 0.4517021811546269
0.07297872340425532 0.45248593804223836 0.4544400171824435
0.07319148936170213 0.45483394331060845 0.4564550014514951
0.07340425531914893 0.45676599902296044 0.4583988317246044
0.07361702127659574 0.4565659468596579 0.4600972220598733
0.07382978723404256 0.4557889594528579 0.46156941772455834
0.07404255319148936 0.4557889594528579 0.46072714731311437
0.07425531914893617 0.4572376267846491 0.46357149196695335
0.07446808510638298 0.457743038593063 0.46458231558378116
0.07468085106382978 0.4559801599834955 0.4657575679901594
0.0748936170212766 0.45534584251268817 0.46813816261378494
0.07510638297872341 0.4562525122814124 0.46946751343429405
0.07531914893617021 0.45848690777843815 0.46860705905655525
0.07553191489361702 0.45869413618405663 0.4704834659730602
0.07574468085106383 0.4591550587577828 0.469792082112471
0.07595744680851063 0.458647139275567 0.4688647796459581
0.07617021276595745 0.4569854205536622 0.46795227735549255
0.07638297872340426 0.4607927369600523 0.4707348246437625
0.07659574468085106 0.46421276183980437 0.46971388259694524
0.07680851063829787 0.4618699141834787 0.46946751343429405
0.07702127659574468 0.46359383237100765 0.46946751343429405
0.0772340425531915 0.4635740322485041 0.4633865696574568
0.0774468085106383 0.46261803801146933 0.45671500686242766
0.07765957446808511 0.460711803362928 0.4468450190837057
0.07787234042553191 0.4614655625684389 0.4438299822616619
0.07808510638297872 0.45931085538040894 0.43996698971743825
0.07829787234042553 0.4569693267598899 0.4365531596562003
0.07851063829787235 0.45482291467107433 0.435276625874863
0.07872340425531915 0.4569728210610099 0.42714457886280854
0.07893617021276596 0.4599113141984483 0.422736839156651
0.07914893617021276 0.45943548610203083 0.4191152320965874
0.07936170212765957 0.45916768322392904 0.4141035757327491
0.07957446808510638 0.4602908213881623 0.4119460624501653
0.0797872340425532 0.4605588216297227 0.41758127684375485
0.08 0.45700430285058075 0.4210921425844053
0.08021276595744681 0.4594487605825541 0.42598105804835185
0.08042553191489361 0.4563996693766291 0.4330726690630584
0.08063829787234042 0.4573376363318355 0.43506842735008966
0.08085106382978724 0.4559154436179908 0.4456275000061124
0.08106382978723405 0.45481191988275516 0.45188080117244755
0.08127659574468085 0.4543921855990728 0.4552386754419066
0.08148936170212766 0.4548904893253534 0.4614564660877695
0.08170212765957446 0.4560185485995677 0.4658903538247185
0.08191489361702127 0.45326392057704096 0.47071095286414033
0.08212765957446809 0.45444347219369585 0.47538567120236397
0.0823404255319149 0.4526836628475449 0.47134085734285464
0.0825531914893617 0.45188080117244755 0.4720666616580029
0.08276595744680851 0.4525267452292553 0.4733756717147044
0.08297872340425531 0.45147880385101086 0.4713071163773956
0.08319148936170212 0.4501410767613357 0.46891918332237836
0.08340425531914894 0.4514967028573657 0.46927546427675315
0.08361702127659575 0.44835536100849704 0.46946751343429405
0.08382978723404255 0.44765319001330817 0.4674947533601731
0.08404255319148936 0.44868013802439144 0.47007387038575765
0.08425531914893616 0.4458078926750005 0.4706361451277144
0.08446808510638298 0.44327487424911377 0.4686779030717812
0.08468085106382979 0.44312799872879743 0.46454987263396247
0.0848936170212766 0.44785222382727086 0.4605537382386045
0.0851063829787234 0.44652544616197265 0.45875680341334457
0.08531914893617021 0.4453667528193067 0.454162816264971
0.08553191489361701 0.4460185637518319 0.45028645146945206
0.08574468085106383 0.4460185637518319 0.448593421925681
0.08595744680851064 0.4462375537122902 0.4472145932823927
0.08617021276595745 0.4473853803900571 0.4488518053784764
0.08638297872340425 0.44208470843876924 0.4478184606961234
0.08659574468085106 0.44113489231560793 0.44210735264284373
0.08680851063829788 0.44373968588921076 0.43689776549563825
0.08702127659574468 0.441506525796753 0.42686898572960214
0.08723404255319149 0.441133365901319 0.42312375907146954
0.0874468085106383 0.441133365901319 0.42041902936153935
0.0876595744680851 0.4433663811649445 0.4203828337802705
0.08787234042553191 0.44016776521247664 0.42217422268882465
0.08808510638297873 0.4408616936983174 0.4309816487553877
0.08829787234042553 0.43970365150735635 0.4373440101492648
0.08851063829787234 0.44030067696383185 0.4408613720651908
0.08872340425531915 0.43927668664499464 0.44396708472774593
0.08893617021276595 0.4376570546348084 0.44774595180743093
0.08914893617021276 0.4388846341363872 0.45060910897761824
0.08936170212765958 0.4401563263312165 0.4534643072246217
0.08957446808510638 0.4401563263312165 0.46023371587447526
0.08978723404255319 0.4401563263312165 0.4541710638780667
0.09 0.43884032416071544 0.45812184942455403
0.0902127659574468 0.44053256787065204 0.45950899696355035
0.09042553191489362 0.4410258894310159 0.46360040034499145
0.09063829787234043 0.4411676027430006 0.4685247107058731
0.09085106382978723 0.4425990206730611 0.4723992046441317
0.09106382978723404 0.444016615175006 0.47718809112187344
0.09127659574468085 0.4458939750055234 0.4800903599591141
0.09148936170212765 0.4480801169207864 0.48010747467667314
0.09170212765957447 0.4496602379401754 0.47719493319694967
0.09191489361702128 0.4502783065339501 0.47435271128480694
0.09212765957446808 0.45386193971316807 0.47359272714913725
0.09234042553191489 0.45026080725863216 0.4707786382307865
0.0925531914893617 0.45249148355004887 0.47215435919356136
0.0927659574468085 0.456689893032782 0.470520658994575
0.09297872340425532 0.45575444451524355 0.47146761249131847
0.09319148936170213 0.4532415817612368 0.47481809616332743
0.09340425531914893 0.4550264319367972 0.4753297508549097
0.09361702127659574 0.45535634805579384 0.4748971394578456
0.09382978723404255 0.4547359579234043 0.4742007873661052
0.09404255319148937 0.454083713418668 0.47289629835663266
0.09425531914893617 0.45330042602694376 0.4691919064303485
0.09446808510638298 0.45220665812393024 0.4636060729401972
0.09468085106382979 0.4509842764908287 0.4575659058383985
0.09489361702127659 0.4543438786793707 0.4501747810236062
0.0951063829787234 0.45443773014776484 0.4429419154066554
0.09531914893617022 0.4537178780461646 0.4367688516849871
0.09553191489361702 0.45612081275374294 0.4318237094865155
0.09574468085106383 0.457743038593063 0.4244887039767151
0.09595744680851064 0.457743038593063 0.42361141820389503
0.09617021276595744 0.4584985813828254 0.4235466536394723
0.09638297872340426 0.4607691263610354 0.42491268577138563
0.09659574468085107 0.4605523058098083 0.4255007327796776
0.09680851063829787 0.45780891404037954 0.42965478090403264
0.09702127659574468 0.4556969444926891 0.43735444881322355
0.09723404255319149 0.45901717421552835 0.44182659002349894
0.09744680851063829 0.46157367391268905 0.4480243248658934
0.09765957446808511 0.45876208083197034 0.44989872025303906
0.09787234042553192 0.4589722460579353 0.44967455413747254
0.09808510638297872 0.4592282382454675 0.4494185619499404
0.09829787234042553 0.4594842304329997 0.44916256976240826
0.09851063829787234 0.4594429519514965 0.44869551668036795
0.09872340425531914 0.45793350699984486 0.44718607172871633
0.09893617021276596 0.46200570936952884 0.4487006716325209
0.09914893617021277 0.4600834516867487 0.4497979440477488
0.09936170212765957 0.45897474537517446 0.44992672203224227
0.09957446808510638 0.4607651370205034 0.44856334946068377
0.09978723404255319 0.46234272913490687 0.4458980461077364
0.1 0.4599632436969149 0.4450415241817294
0.10021276595744681 0.4581029723960238 0.4450415241817294
0.10042553191489362 0.45679817079136215 0.4431517885783276
0.10063829787234042 0.4546621073864057 0.44197850495115815
0.10085106382978723 0.45188080117244755 0.44406448461162684
0.10106382978723404 0.45188080117244755 0.44406448461162684
0.10127659574468086 0.4537130944896401 0.44452255794092493
0.10148936170212766 0.4555978529462941 0.44542373719485695
0.10170212765957447 0.45421391871008776 0.4481916056672695
0.10191489361702127 0.4516277986978829 0.4502739314310016
0.10212765957446808 0.44939534511044765 0.45188080117244755
0.10234042553191489 0.4531430106558997 0.45188080117244755
0.1025531914893617 0.45328824931605755 0.4486010151928769
0.10276595744680851 0.45247584662006174 0.44640055787432026
0.10297872340425532 0.451408757188134 0.447467647306248
0.10319148936170212 0.450228081528991 0.44831048292871406
0.10340425531914893 0.44894968246213973 0.44895514924178226
0.10361702127659575 0.44894968246213973 0.4505766650549365
0.10382978723404256 0.44658989857641535 0.4532635454880692
0.10404255319148936 0.4457514112351613 0.45658663751633516
0.10425531914893617 0.4468593067734679 0.46010600737866786
0.10446808510638297 0.44603509286336956 0.46257864910896296
0.10468085106382978 0.44687966971654136 0.46865597819654237
0.1048936170212766 0.4444924682468531 0.46529562164249166
0.1051063829787234 0.4437027882701158 0.4653057082668032
0.10531914893617021 0.443278052073907 0.4661551806592205
0.10553191489361702 0.4442288655241682 0.4676778152066303
0.10574468085106382 0.4455932062257302 0.469212298918633
0.10595744680851064 0.44245839286537453 0.4673314109024196
0.10617021276595745 0.4426347163510264 0.4680377451736936
0.10638297872340426 0.442951283989423 0.46946751343429405
0.10659574468085106 0.4413388004931389 0.4692620788424742
0.10680851063829787 0.44209770393713116 0.46849470770895496
0.10702127659574467 0.43977529066907733 0.4692688454649729
0.1072340425531915 0.4404382241916136 0.46946751343429405
0.1074468085106383 0.441133365901319 0.4644134953891414
0.1076595744680851 0.44096337070161146 0.45753011176521236
0.10787234042553191 0.4404572493078966 0.4539872620092084
0.10808510638297872 0.43985201390010387 0.45157648874133494
0.10829787234042552 0.43917928676111373 0.4504586337123472
0.10851063829787234 0.43917928676111373 0.4461674423233467
0.10872340425531915 0.4405767097648657 0.44182629474057633
0.10893617021276596 0.4400929048611778 0.4385956347710047
0.10914893617021276 0.43917928676111373 0.4360547738936317
0.10936170212765957 0.43974508858414146 0.43429408891060084
0.10957446808510639 0.44182127572326335 0.4324023369002539
0.1097872340425532 0.44465695428103386 0.42460422086638505
0.11 0.44061451949365094 0.42417908288062645
0.1102127659574468 0.441142298372644 0.42060362496739806
0.11042553191489361 0.44289123576493467 0.4182717084443439
0.11063829787234042 0.440868256937073 0.4192899901079345
0.11085106382978724 0.440457093016998 0.4163318704502146
0.11106382978723404 0.44180821391827496 0.41903411225276865
0.11127659574468085 0.4446907160588441 0.41899341771220633
0.11148936170212766 0.4460185637518319 0.4215456490650756
0.11170212765957446 0.4460185637518319 0.42629049701300964
0.11191489361702127 0.44817166084526894 0.4295084000367039
0.11212765957446809 0.4488142739839323 0.4359481708717406
0.1123404255319149 0.45209419516637755 0.4413339126953137
0.1125531914893617 0.45300473173129363 0.4451223857238576
0.1127659574468085 0.4550340767991319 0.4501488789486189
0.11297872340425531 0.45676599902296044 0.45045461228550443
0.11319148936170213 0.45916320892211315 0.45072579199862645
0.11340425531914894 0.46126785830422085 0.45325987245877386
0.11361702127659574 0.46165119687347334 0.45634591376901973
0.11382978723404255 0.4609562185733387 0.45676599902296044
0.11404255319148936 0.4606741573033708 0.4587570208852039
0.11425531914893616 0.46140820429188073 0.45676092977922844
0.11446808510638298 0.46165119687347334 0.4557889594528579
0.11468085106382979 0.4634270446838869 0.45312518773723764
0.1148936170212766 0.46263975130902574 0.45478889015185536
0.1151063829787234 0.46158405664140606 0.4538572603900084
0.11531914893617021 0.4587200781631655 0.4545146830835711
0.11553191489361703 0.4587200781631655 0.4507096707857238
0.11574468085106383 0.45740114651643693 0.4505861878556066
0.11595744680851064 0.4552800325575914 0.45328513919695596
0.11617021276595745 0.45639145190811875 0.4542094274274943
0.11638297872340425 0.4575021630201971 0.45457104430988926
0.11659574468085106 0.45513137390959096 0.4582941394607178
0.11680851063829788 0.45772654453305994 0.4548943901827702
0.11702127659574468 0.45721593766976754 0.4592471790864612
0.11723404255319149 0.45941668845917844 0.45648556974887067
0.1174468085106383 0.4583240205998866 0.4553929018895789
0.1176595744680851 0.4598956193851166 0.455242436041166
0.11787234042553191 0.4617503896317976 0.4593003466999712
0.11808510638297873 0.4601778944536485 0.46013143606562207
0.11829787234042553 0.46184049998502286 0.4599810724005923
0.11851063829787234 0.4617686436841136 0.4614038148905326
0.11872340425531915 0.46138271407090375 0.45925704376830473
0.11893617021276595 0.46165119687347334 0.45953818436825256
0.11914893617021277 0.4579461317231556 0.45969711773326827
0.11936170212765958 0.4596805622143315 0.4567908323013656
0.11957446808510638 0.4606651046251083 0.45577085409633283
0.11978723404255319 0.4587018725086562 0.4518443898634286
0.12 0.458139857821164 0.44952990280414123
0.1202127659574468 0.4589484392743691 0.4496347657957505
0.12042553191489362 0.4594138157020218 0.4528723582818102
0.12063829787234043 0.4577857151614034 0.45857071017397416
0.12085106382978723 0.457743038593063 0.4555216252132145
0.12106382978723404 0.45708251194458893 0.45613297317970336
0.12127659574468085 0.4544138745283745 0.45958854841646357
0.12148936170212765 0.45188080117244755 0.46289183247617804
0.12170212765957447 0.45188080117244755 0.46302849997985845
0.12191489361702128 0.45188080117244755 0.4579374386981125
0.12212765957446808 0.45105661904012234 0.4520801398573947
0.12234042553191489 0.44992672203224227 0.4451605853814908
0.1225531914893617 0.44992672203224227 0.4363220493456156
0.12276595744680852 0.4507059436757232 0.43157283818992015
0.12297872340425532 0.4509037616023448 0.4280785300271986
0.12319148936170213 0.4483957573298618 0.4299628161923658
0.12340425531914893 0.44981225132078206 0.4405037769882878
0.12361702127659574 0.4479359707316339 0.4333537215009016
0.12382978723404255 0.4469156897064373 0.435013311450075
0.12404255319148937 0.4458955978247167 0.4432104109686393
0.12425531914893617 0.4450415241817294 0.4448560002411376
0.12446808510638298 0.4442616604351586 0.4471927791454664
0.12468085106382978 0.44281743748254115 0.44610207219840875
0.12489361702127659 0.44406448461162684 0.4479726428920372
0.1251063829787234 0.44406448461162684 0.4474190406023058
0.12531914893617022 0.4428464827224426 0.44699560332193444
0.125531914893617 0.44117406663522907 0.44840011157622334
0.12574468085106383 0.4399044902904065 0.4489193778690026
0.12595744680851065 0.43947013890825126 0.4457277116046944
0.12617021276595744 0.44195410310169625 0.44345215057088316
0.12638297872340426 0.4390916488584315 0.4498171746538895
0.12659574468085105 0.43544602506891633 0.44526014491699556
0.12680851063829787 0.43778301010975923 0.44671611193443317
0.1270212765957447 0.4382022471910112 0.4538625350573122
0.12723404255319148 0.43752700519921867 0.45781468542823556
0.1274468085106383 0.43923796317847197 0.4607328337207288
0.1276595744680851 0.44032011181131414 0.46371257523024906
0.12787234042553192 0.4382242944653358 0.46654374381542774
0.1280851063829787 0.4402804229412028 0.4672291199740502
0.12829787234042553 0.441133365901319 0.4651179197293589
0.12851063829787235 0.4415388737731787 0.46303374431543565
0.12872340425531914 0.4425650743427809 0.4613319316568815
0.12893617021276596 0.443605894320271 0.45820162888441873
0.12914893617021275 0.443484348171711 0.45658276571323153
0.12936170212765957 0.4430874450415241 0.4532117752717176
0.1295744680851064 0.44380275592084295 0.45188080117244755
0.12978723404255318 0.4452439904068486 0.45011154247961477
0.13 0.4454590587382883 0.44950918747568336
0.1302127659574468 0.4443533342556713 0.44717396232800977
0.13042553191489362 0.4473212917639552 0.4443901601756678
0.13063829787234044 0.4470244974816902 0.4450126300219736
0.13085106382978723 0.4460185637518319 0.44699560332193444
0.13106382978723405 0.44577748132900497 0.44723668574476144
0.13127659574468084 0.4450415241817294 0.4479726428920372
0.13148936170212766 0.445554952021888 0.4479726428920372
0.13170212765957448 0.4460185637518319 0.44667177277324654
0.13191489361702127 0.4475894898182624 0.44523310071861677
0.1321276595744681 0.44613463412569304 0.4432035154153852
0.13234042553191488 0.44894968246213973 0.4382790618265898
0.1325531914893617 0.44894968246213973 0.43981681965663416
0.1327659574468085 0.44894968246213973 0.4428078356518925
0.13297872340425532 0.44894968246213973 0.44454940892291733
0.13319148936170214 0.44770927859308896 0.4475223319198307
0.13340425531914893 0.44547993072000447 0.4512231913650349
0.13361702127659575 0.4476003155797129 0.4467632183764805
0.13382978723404254 0.44610293729222916 0.4497579749514478
0.13404255319148936 0.4454083753357019 0.4478992726612427
0.13425531914893618 0.4502768430586979 0.446804628216595
0.13446808510638297 0.45916812785424677 0.44158517473605624
0.1346808510638298 0.45174951338778646 0.44350065008799905
0.13489361702127659 0.4538348803126526 0.44211040547142155
0.1351063829787234 0.4543821516693925 0.4437522195416413
0.13531914893617022 0.4554967247660022 0.4464111339482232
0.13553191489361702 0.45908479794614143 0.451115401438539
0.13574468085106384 0.45875757608270307 0.44906217622075245
0.13595744680851063 0.4606183687421844 0.4498709334710559
0.13617021276595745 0.4587200781631655 0.4478751891710133
0.13638297872340424 0.45913354297437214 0.44699560332193444
0.13659574468085106 0.462517087718707 0.44699560332193444
0.13680851063829788 0.4642927802264897 0.44699560332193444
0.13702127659574467 0.46539708732998275 0.4486251468143378
0.1372340425531915 0.4647008629867166 0.4506666667964739
0.13744680851063829 0.466132682903503 0.4501285779424839
0.1376595744680851 0.4645022847383207 0.4514523045214914
0.13787234042553193 0.46262823644357587 0.452630879447001
0.13808510638297872 0.46262823644357587 0.45193852452331584
0.13829787234042554 0.46262823644357587 0.4534406019672245
0.13851063829787233 0.46206773745286833 0.45439537930336016
0.13872340425531915 0.46017829407989047 0.4544436941843595
0.13893617021276597 0.457743038593063 0.4545654161244312
0.13914893617021276 0.457743038593063 0.45745492638943713
0.13936170212765958 0.4585625014894796 0.4569235756966464
0.13957446808510637 0.45793853496499803 0.4544213694284578
0.1397872340425532 0.4570604362204344 0.4538348803126526
0.13999999999999999 0.4551031793307482 0.4527263338511779
0.1402127659574468 0.45482467440693863 0.4503961100310186
0.14042553191489363 0.45631390813103384 0.4484247337839638
0.14063829787234042 0.4555937388273142 0.4485587729898603
0.14085106382978724 0.45414058152958436 0.447607005755798
0.14106382978723403 0.45760499334384624 0.44699560332193444
0.14127659574468085 0.4537401404433101 0.4436756448420308
0.14148936170212767 0.4537538893135804 0.45025583360976723
0.14170212765957446 0.46164103888586216 0.44700068231574
0.14191489361702128 0.45308367665192684 0.4495658593883985
0.14212765957446807 0.45619685304550206 0.4482003012830206
0.1423404255319149 0.45203502312519683 0.4451340573533789
0.1425531914893617 0.4510092216734965 0.4439062945048993
0.1427659574468085 0.45228247073300165 0.441133365901319
0.14297872340425533 0.4478957399638968 0.441133365901319
0.14319148936170212 0.45126657069494525 0.441133365901319
0.14340425531914894 0.4498873688041718 0.4426284401775259
0.14361702127659573 0.4473396147098886 0.4478626537045178
0.14382978723404255 0.445458349411895 0.45146397594228194
0.14404255319148937 0.4432313847038446 0.4582162893450438
0.14425531914893616 0.44217532317587344 0.46373511142258245
0.14446808510638298 0.4423013781280148 0.4671314889809023
0.14468085106382977 0.4398070667021262 0.4740034516557169
0.1448936170212766 0.4398244195445278 0.4779476435684921
0.1451063829787234 0.43991286535390506 0.4811919882755251
0.1453191489361702 0.44042542783540145 0.4854396166710307
0.14553191489361703 0.44269954427215374 0.4853587470688491
0.14574468085106382 0.43659629790953414 0.4834773597729381
0.14595744680851064 0.4375796376229971 0.48006805522600543
0.14617021276595746 0.4390454317894512 0.4758651707415598
0.14638297872340425 0.44012284942347724 0.4734426255301829
0.14659574468085107 0.4409413935616026 0.47113363406492476
0.14680851063829786 0.4386558231737137 0.46866496172665817
0.14702127659574468 0.436367743678977 0.4694077256202086
0.14723404255319147 0.4383917078455483 0.4675431705915058
0.1474468085106383 0.43917928676111373 0.4623197837663313
0.14765957446808511 0.43917928676111373 0.46148835717537556
0.1478723404255319 0.43917928676111373 0.4595085528820983
0.14808510638297873 0.44063027217626977 0.4560405063153825
0.14829787234042552 0.43940439084459954 0.4557889594528579
0.14851063829787234 0.4392036856982048 0.4537860824384705
0.14872340425531916 0.44030669973788283 0.4521815479857803
0.14893617021276595 0.4414187182103999 0.45354952800357173
0.14914893617021277 0.4404219424192691 0.45074726192735953
0.14936170212765956 0.4387638776906843 0.44684938189269086
0.14957446808510638 0.4419732040224094 0.4404307292292405
0.1497872340425532 0.4430874450415241 0.43335397261830627
0.15 0.4430874450415241 0.4268239498078927
0.15021276595744681 0.4439632576874206 0.4211216695501957
0.1504255319148936 0.44420562477028097 0.4137056878591195
0.15063829787234043 0.4498642457684962 0.4108763773600117
0.15085106382978725 0.44699560332193444 0.40809357175944566
0.15106382978723404 0.44699560332193444 0.4008059548726898
0.15127659574468086 0.44699560332193444 0.3987125888495801
0.15148936170212765 0.44699560332193444 0.4010747435271129
0.15170212765957447 0.44699560332193444 0.4043621472307153
0.15191489361702126 0.44936567188647797 0.413860169926104
0.15212765957446808 0.4480906362916518 0.4239927229113093
0.1523404255319149 0.4462378650383785 0.4350250931990894
0.1525531914893617 0.4491546947025804 0.4461146070160334
0.15276595744680851 0.4490055552248502 0.4565983807348288
0.1529787234042553 0.44699560332193444 0.4665016952652128
0.15319148936170213 0.44808501696295217 0.4751913611164006
0.15340425531914895 0.4503157189260587 0.4794278602466668
0.15361702127659574 0.4513366041733421 0.47859493284954197
0.15382978723404256 0.45263784754211067 0.47268008856108856
0.15404255319148935 0.4547728928098057 0.4677869644913267
0.15425531914893617 0.4574567062696743 0.4658456874772724
0.154468085106383 0.4564220821457646 0.46825597910996564
0.15468085106382978 0.4566059051923484 0.47142159257449934
0.1548936170212766 0.4572275442352503 0.4734835700057501
0.1551063829787234 0.45614078619142906 0.479081027844098
0.15531914893617021 0.4569527224593698 0.4806101067722692
0.155531914893617 0.4572385971805178 0.4797105072928774
0.15574468085106383 0.45628964732426375 0.48114331593010684
0.15595744680851065 0.4573313853157722 0.48057535764420634
0.15617021276595744 0.4575317148479761 0.4764783245924332
0.15638297872340426 0.45742869684886506 0.4726789595512911
0.15659574468085105 0.4570013123285338 0.47067986630997
0.15680851063829787 0.45676599902296044 0.46121646896061563
0.1570212765957447 0.45827590381742084 0.4529025461581959
0.15723404255319148 0.4587200781631655 0.4460401685355961
0.1574468085106383 0.45603032910095154 0.4373401119560918
0.1576595744680851 0.45372335825442034 0.4304841232114287
0.15787234042553192 0.4552168151503853 0.42666848711727096
0.15808510638297874 0.4572292969551994 0.42460626405489793
0.15829787234042553 0.4551207355819645 0.42256961406936977
0.15851063829787235 0.45851661725188225 0.4217557704242368
0.15872340425531914 0.45781907672752564 0.4186361097441385
0.15893617021276596 0.4605006017609054 0.41774226806634535
0.15914893617021275 0.45681699295123945 0.41961299839492244
0.15936170212765957 0.4649602373156544 0.42069042465894335
0.1595744680851064 0.45754881304163425 0.42159257449926724
0.15978723404255318 0.455084481685083 0.4212291587628302
0.16 0.4575726512364862 0.41791159936095923
0.1602127659574468 0.45582361098733476 0.4196038438245851
0.16042553191489362 0.4556706028772935 0.4206747132169469
0.16063829787234044 0.45423620112162905 0.4222614425142279
0.16085106382978723 0.4578719826590472 0.4273994253798524
0.16106382978723405 0.4615961384503077 0.4328373959049619
0.16127659574468084 0.4557889594528579 0.4417194652237268
0.16148936170212766 0.45570760040637515 0.44658807707721127
0.16170212765957448 0.4548509324545712 0.452584752739838
0.16191489361702127 0.45259267405985676 0.45655658378071423
0.1621276595744681 0.45188080117244755 0.45553594479598003
0.16234042553191488 0.4527302044486069 0.45566132315891467
0.1625531914893617 0.4528578407425501 0.4567591252810757
0.1627659574468085 0.4507818885933798 0.4600627367601632
0.16297872340425532 0.45118170424872023 0.4628792328868715
0.16319148936170214 0.45239416355173834 0.46464145729840006
0.16340425531914893 0.4491694109171048 0.46693531739900884
0.16361702127659575 0.4504519290091195 0.467513434294089
0.16382978723404254 0.4479183979661769 0.46851759632712164
0.16404255319148936 0.44689576650903196 0.46946751343429405
0.16425531914893618 0.4476579154527483 0.46789387623785
0.16446808510638297 0.44657160979710947 0.4656422993958437
0.1646808510638298 0.44536033814843684 0.46909556380646866
0.16489361702127658 0.45026657758862715 0.4619910524298582
0.1651063829787234 0.44552691132212374 0.45700869259315763
0.16531914893617022 0.4466191136297318 0.45699005920865765
0.16553191489361702 0.4460185637518319 0.4593162007116508
0.16574468085106384 0.4443897505888304 0.4604564855595739
0.16595744680851063 0.4436860823759334 0.4569241661599381
0.16617021276595745 0.44333233825245455 0.4557889594528579
0.16638297872340424 0.4430874450415241 0.45232990312278154
0.16659574468085106 0.4411548866107483 0.4528793614519794
0.16680851063829788 0.44195126438311944 0.4535165981360484
0.16702127659574467 0.4417270694643255 0.45188080117244755
0.1672340425531915 0.44178660623116617 0.4514471882356615
0.16744680851063828 0.44186490579988125 0.44919518213368004
0.1676595744680851 0.4417463906201539 0.44931369731340737
0.16787234042553192 0.4456963793218447 0.4476452153219793
0.16808510638297872 0.44554306831875673 0.44772187082352344
0.16829787234042554 0.4442823769964663 0.44645434852151084
0.16851063829787233 0.4423902478709969 0.4485299188627767
0.16872340425531915 0.44211040547142155 0.44894968246213973
0.16893617021276597 0.4430490215239789 0.4508269145672544
0.16914893617021276 0.44394322804121394 0.4491921956029654
0.16936170212765958 0.4396521299863685 0.44894968246213973
0.16957446808510637 0.43943734547550894 0.4514198790311351
0.1697872340425532 0.4405436522249561 0.4538907097925225
0.17 0.44120792543887666 0.4556621050296441
0.1702127659574468 0.44187219865279714 0.45743350026676544
0.17042553191489362 0.4425364718667177 0.45920489550388705
0.17063829787234042 0.4435642101950236 0.4608648633647706
0.17085106382978724 0.4463594636060269 0.46198296472917183
0.17106382978723403 0.4481639939008623 0.4643503955230021
0.17127659574468085 0.4486164820729731 0.46842278907199947
0.17148936170212767 0.4485464387583391 0.4716232144263996
0.17170212765957446 0.4470168352906201 0.47238801616025905
0.17191489361702128 0.45022676233600706 0.46755189362349286
0.17212765957446807 0.4509037616023448 0.4686859604210633
0.1723404255319149 0.44955097956578055 0.4687911224160119
0.1725531914893617 0.45020877308811486 0.47037910980315434
0.1727659574468085 0.4509037616023448 0.4733057869196747
0.17297872340425532 0.45371693866624097 0.4764625940827291
0.17319148936170212 0.4540382640211909 0.4788311417182435
0.17340425531914894 0.4563577388982267 0.475874097687888
0.17361702127659576 0.45676599902296044 0.4779197475856812
0.17382978723404255 0.45742495099507924 0.47364820576038547
0.17404255319148937 0.4571409099830053 0.47202372118455704
0.17425531914893616 0.45676599902296044 0.4730732278754252
0.17446808510638298 0.45676599902296044 0.47054292895801203
0.17468085106382977 0.45723068331825295 0.46616705238772893
0.1748936170212766 0.457743038593063 0.46010620659663953
0.1751063829787234 0.45695822079486287 0.4545503139500218
0.1753191489361702 0.4544347977737188 0.4528920750400618
0.17553191489361702 0.454704049377724 0.44751374241256003
0.17574468085106382 0.4594614863262834 0.4407418363794279
0.17595744680851064 0.454159633417104 0.43527668899420013
0.17617021276595746 0.4560176351321799 0.4297553498677267
0.17638297872340425 0.45854099950238186 0.42426296828260723
0.17659574468085107 0.4587224826658922 0.4176892252243099
0.17680851063829786 0.4564825459054556 0.41434316417345624
0.17702127659574468 0.4562574644868536 0.41619884211264735
0.1772340425531915 0.45825137447110054 0.4181927520968944
0.1774468085106383 0.4594184281975386 0.41991718489479163
0.1776595744680851 0.4587200781631655 0.42166532580753807
0.1778723404255319 0.4587200781631655 0.4257368153876955
0.17808510638297873 0.45811596561149504 0.4294983351081327
0.17829787234042552 0.45737745371522315 0.43319089458949234
0.17851063829787234 0.4564353468721984 0.43542153767390107
0.17872340425531916 0.45481191988275516 0.4318450451191487
0.17893617021276595 0.45500059501516077 0.4344827640430064
0.17914893617021277 0.45570976682433434 0.4353767186520682
0.17936170212765956 0.4550394648236651 0.43627045465296044
0.17957446808510638 0.4543691628229958 0.43716419065385287
0.1797872340425532 0.4536988608223264 0.4380579266547453
0.18 0.4530285588216572 0.4389516626556376
0.1802127659574468 0.4528578407425501 0.4387330040684078
0.1804255319148936 0.4528578407425501 0.438134217420412
0.18063829787234043 0.4528578407425501 0.43753543077241613
0.18085106382978725 0.4530238483126028 0.4383872606112775
0.18106382978723404 0.45336832402634836 0.44079859060749677
0.18127659574468086 0.453712799740094 0.44320992060371633
0.18148936170212765 0.45442486614583605 0.44347449877844325
0.18170212765957447 0.45310927311217264 0.4453576407356343
0.18191489361702126 0.45188080117244755 0.4489088727171237
0.18212765957446808 0.44961237982313673 0.45143900293178285
0.1823404255319149 0.44894968246213973 0.450999257939501
0.1825531914893617 0.4474737824539325 0.4516417116064485
0.1827659574468085 0.4500450377563573 0.4503560839552361
0.1829787234042553 0.4473687359853836 0.449042965628002
0.18319148936170213 0.4479445547593174 0.44691133892377505
0.18340425531914895 0.44699560332193444 0.4439052148022188
0.18361702127659574 0.44611754678007937 0.4425020740136207
0.18382978723404256 0.44449505098935105 0.4424250650344917
0.18404255319148935 0.4439982093213263 0.44406448461162684
0.18425531914893617 0.4430874450415241 0.4446731736757355
0.184468085106383 0.44160975251740964 0.4487357554920157
0.18468085106382978 0.44201142248399133 0.4534389483629318
0.1848936170212766 0.44024175044381936 0.4539630164815569
0.1851063829787234 0.4418106775780771 0.4573654548096493
0.1853191489361702 0.4401563263312165 0.4609476613643896
0.185531914893617 0.44067846966836244 0.46367252311786783
0.18574468085106383 0.44179191714604193 0.4668548830493659
0.18595744680851065 0.44048581075106463 0.4688085445945977
0.18617021276595744 0.4383237928729172 0.4718493395185976
0.18638297872340426 0.43815304329662097 0.47007904295532094
0.18659574468085105 0.43869901975245634 0.4665529002767741
0.18680851063829787 0.4382022471910112 0.4635520361229819
0.1870212765957447 0.4392428003219416 0.45957009061161264
0.18723404255319148 0.439632518985472 0.45460019451859685
0.1874468085106383 0.4381371170617525 0.449796461773725
0.1876595744680851 0.43995929694402175 0.44305128211043354
0.18787234042553191 0.44034041395035556 0.4409492782821797
0.18808510638297873 0.4385294625451058 0.43691181174335747
0.18829787234042553 0.43681664371318196 0.43498689064951546
0.18851063829787235 0.4377459177289005 0.4292801297683257
0.18872340425531914 0.4382022471910112 0.42745481191988266
0.18893617021276596 0.43995443627818126 0.42745481191988266
0.18914893617021278 0.43731899257333023 0.4284005898391782
0.18936170212765957 0.4411472575549735 0.43443300544714597
0.1895744680851064 0.4418449868179365 0.441410298076776
0.18978723404255318 0.4429222948550235 0.44690609745423343
0.19 0.44406448461162684 0.45115914941110075
0.1902127659574468 0.44438123243864436 0.4534913363965851
0.19042553191489361 0.4460185637518319 0.4574761259300737
0.19063829787234043 0.44558893087389373 0.46012675061120645
0.19085106382978723 0.44454926195073846 0.4618127893198439
0.19106382978723405 0.44699560332193444 0.46212116162302147
0.19127659574468084 0.4476778079298092 0.46135636191124546
0.19148936170212766 0.4485635548309705 0.4595392153942219
0.19170212765957448 0.44856946598760583 0.45451350833497084
0.19191489361702127 0.4495390902678332 0.45360230125400713
0.1921276595744681 0.4464561050527637 0.4517525101249654
0.19234042553191488 0.44735867833435544 0.4503244730641883
0.1925531914893617 0.4495531001200196 0.4493233043743624
0.19276595744680852 0.451270059825201 0.45096468915157784
0.19297872340425531 0.44947274317667874 0.45348617316962664
0.19319148936170213 0.450837690632994 0.45855490073978855
0.19340425531914893 0.45394176124381985 0.4640327997383476
0.19361702127659575 0.4545978709868357 0.4683696298777668
0.19382978723404254 0.45456213625157316 0.471906429867113
0.19404255319148936 0.4571444602620973 0.47488951667125207
0.19425531914893618 0.457743038593063 0.47728382999511476
0.19446808510638297 0.4562334035706743 0.4782902533433739
0.1946808510638298 0.45606367449666874 0.47673439990749306
0.19489361702127658 0.456001269557987 0.47456502138993606
0.1951063829787234 0.45488154923428553 0.47163048062909046
0.19531914893617022 0.4564622718107736 0.47397305226957337
0.19553191489361701 0.45351500677969997 0.4690294027428608
0.19574468085106383 0.45684685266969344 0.46610291000497484
0.19595744680851063 0.45773134519822095 0.4645940089786232
0.19617021276595745 0.4586732329157544 0.4630163766301585
0.19638297872340427 0.45969711773326827 0.46165119687347334
0.19659574468085106 0.45969711773326827 0.4625710945563554
0.19680851063829788 0.4627148564695728 0.4606741573033708
0.19702127659574467 0.4633959576694317 0.46046483895912393
0.1972340425531915 0.4623441975113147 0.4588450009364848
0.19744680851063828 0.4612295366955252 0.4542360379552713
0.1976595744680851 0.4611541181887136 0.4480239962902879
0.19787234042553192 0.4621790296902003 0.4445136913650024
0.19808510638297872 0.4606406248661142 0.44340194741913946
0.19829787234042554 0.46130886965839485 0.4398639411912707
0.19851063829787233 0.46354389332721047 0.44107198321485086
0.19872340425531915 0.4647861133624138 0.4389583605349795
0.19893617021276597 0.4598862456855745 0.43745844112539045
0.19914893617021276 0.46295479022754593 0.4398284616563428
0.19936170212765958 0.46250673021605976 0.4426596783702309
0.19957446808510637 0.46145914413404215 0.44264693844133063
0.1997872340425532 0.4616802885838309 0.44639272979246214
0.2 0.4657992659243089 0.4455943707814874
0.2002127659574468 0.45910890362431356 0.4459699605691884
0.20042553191489362 0.4613782215514786 0.4464735226218231
0.20063829787234042 0.45788516229781456 0.44986011677065607
0.20085106382978724 0.4545787781407443 0.44625170549384274
0.20106382978723403 0.45357448349068985 0.44751639696586
0.20127659574468085 0.4528578407425501 0.4492979548170009
0.20148936170212767 0.4528578407425501 0.4503502385733783
0.20170212765957446 0.451867561054181 0.4505736683728885
0.20191489361702128 0.44999998591346674 0.4497069303885688
0.20212765957446807 0.45078275438326876 0.4466325816647063
0.2023404255319149 0.44967433033027127 0.44330730950571373
0.2025531914893617 0.44788051828992403 0.4377416241804455
0.2027659574468085 0.4472590046957034 0.43463405620934287
0.20297872340425532 0.44699560332193444 0.4278734744025413
0.20319148936170212 0.44684075446492866 0.4206155349291647
0.20340425531914894 0.4461726075924727 0.4206155349291647
0.20361702127659576 0.44550446072001665 0.4206155349291647
0.20382978723404255 0.4448363138475607 0.4206155349291647
0.20404255319148937 0.44416816697510475 0.4206155349291647
0.20425531914893616 0.4428480718067493 0.4236565669413584
0.20446808510638298 0.4424296396127074 0.4261392010622493
0.20468085106382977 0.44308424093435556 0.42744840370554554
0.2048936170212766 0.4437388422560038 0.42875760634884197
0.2051063829787234 0.4448239519113479 0.42940889106008795
0.2053191489361702 0.4463352294550273 0.42940889106008795
0.20553191489361702 0.4464071923675866 0.43078184995356644
0.20574468085106382 0.4453621242993254 0.4332203421128425
0.20595744680851064 0.4443170562310642 0.43565883427211893
0.20617021276595746 0.4439074203433298 0.4393894534167465
0.20638297872340425 0.4437002990979215 0.4435318783249113
0.20659574468085107 0.44349317785251324 0.4476743032330766
0.20680851063829786 0.44328605660710496 0.4518167281412414
0.20702127659574468 0.44301219362871036 0.4558892946699429
0.2072340425531915 0.44118061281054033 0.4583314024275031
0.2074468085106383 0.438496933233288 0.46011196600775034
0.2076595744680851 0.43667402781981424 0.46237759637940334
0.2078723404255319 0.4367137890777106 0.46560515267017727
0.20808510638297872 0.434504110507951 0.46769909975255636
0.20829787234042554 0.4338596895264385 0.47011839442201214
0.20851063829787234 0.4355888869621297 0.47098999322398966
0.20872340425531916 0.4378647881376148 0.4701247627460435
0.20893617021276595 0.4396376184499262 0.4696966792787003
0.20914893617021277 0.44098140476396286 0.47014063072968426
0.20936170212765956 0.44057313213877397 0.46869887676797023
0.20957446808510638 0.4426613755282415 0.4689165433774742
0.2097872340425532 0.44384380928161843 0.4681754602841141
0.21 0.4431227771963037 0.47033855654005774
0.2102127659574468 0.44398554451666866 0.4650559561535301
0.2104255319148936 0.44406448461162684 0.46458231558378116
0.21063829787234042 0.4469459862724394 0.46266131447657255
0.21085106382978724 0.44699560332193444 0.46168899505098027
0.21106382978723404 0.44699560332193444 0.4624811058258852
0.21127659574468086 0.44626194601190317 0.4596936072034506
0.21148936170212765 0.44673964489704965 0.4578187267316433
0.21170212765957447 0.44772758915282085 0.45658379641192937
0.2119148936170213 0.448715533408592 0.4553488660922154
0.21212765957446808 0.449703477664363 0.45411393577250164
0.2123404255319149 0.45073787629338524 0.4546460345737956
0.2125531914893617 0.4499809387838093 0.4520434514271486
0.2127659574468085 0.44992672203224227 0.4488323068002454
0.2129787234042553 0.4508557040167216 0.4466240105281427
0.21319148936170212 0.4545005123437615 0.4450415241817294
0.21340425531914894 0.4529825968357456 0.4458938076586364
0.21361702127659574 0.4541167947050555 0.44699560332193444
0.21382978723404256 0.4537837704928383 0.44699560332193444
0.21404255319148935 0.4567685922326543 0.44699560332193444
0.21425531914893617 0.457743038593063 0.4494867126784133
0.214468085106383 0.4568099958606518 0.4527258502294761
0.21468085106382978 0.459525088972942 0.44610457813199506
0.2148936170212766 0.4585958350805924 0.44720880244381683
0.2151063829787234 0.46165119687347334 0.44738557206145735
0.2153191489361702 0.46165119687347334 0.44633435608587707
0.21553191489361703 0.4612058169518132 0.45011326277355573
0.21574468085106382 0.461822060628427 0.44981721867495567
0.21595744680851064 0.46051943270265094 0.44699560332193444
0.21617021276595744 0.4638755737988485 0.44699560332193444
0.21638297872340426 0.4597780567166423 0.45083901041564556
0.21659574468085105 0.46153378145379925 0.4479726428920372
0.21680851063829787 0.4609268860936635 0.44771991410174444
0.2170212765957447 0.4612632272657109 0.4458316944986472
0.21723404255319148 0.46172179157188775 0.4430168503431098
0.2174468085106383 0.46262823644357587 0.44211040547142155
0.2176595744680851 0.46262823644357587 0.4397879842634579
0.2178723404255319 0.4617305252511889 0.44187242033827473
0.21808510638297873 0.4636052760136786 0.4401563263312165
0.21829787234042553 0.46379289705730603 0.4405315684184713
0.21851063829787234 0.4636082541163005 0.4424350926272484
0.21872340425531914 0.4620707741810601 0.44140913581117713
0.21893617021276596 0.4624556923674401 0.44021455121792846
0.21914893617021278 0.4620697681908227 0.4425300962776332
0.21936170212765957 0.4616838440142053 0.44484564133733756
0.2195744680851064 0.46452066588059354 0.4433198427774572
0.21978723404255318 0.46359111935818664 0.4432148837335964
0.22 0.46006630705698526 0.4472852390047622
0.2202127659574468 0.4603482531907416 0.4489495142701934
0.2204255319148936 0.4578315522013137 0.4470619885281225
0.22063829787234043 0.4559519903840963 0.44642614107992784
0.22085106382978723 0.45695251937588083 0.4507061317980493
0.22106382978723405 0.45445074837017113 0.4502346560610015
0.22127659574468084 0.4549244870741418 0.453064942549135
0.22148936170212766 0.45494728839264575 0.4563451634928544
0.22170212765957448 0.4552312414668621 0.45899687096694336
0.22191489361702127 0.4524865506313975 0.4635808688675679
0.2221276595744681 0.45253625890496146 0.4693685155266558
0.22234042553191488 0.4538348803126526 0.4739832362519362
0.2225531914893617 0.45510508719712606 0.47850526806609306
0.22276595744680852 0.451228644516875 0.480975001194753
0.2229787234042553 0.44992672203224227 0.4811919882755251
0.22319148936170213 0.4498575225863089 0.47926097561729786
0.22340425531914893 0.44691523232752645 0.4801345777110146
0.22361702127659575 0.44582255399597037 0.4780618506001506
0.22382978723404254 0.4450415241817294 0.4725721091940264
0.22404255319148936 0.4442993975444311 0.4701971774586305
0.22425531914893618 0.44356568494200854 0.46692077436076684
0.22446808510638297 0.4450365516090929 0.4601732060867283
0.2246808510638298 0.4421959594734931 0.45649735516764056
0.22489361702127658 0.44187811276577427 0.4520652251305812
0.2251063829787234 0.44123584100584595 0.44828006820561794
0.22531914893617022 0.44217024618226297 0.44415424567788897
0.225531914893617 0.44357015447649506 0.44650127318680266
0.22574468085106383 0.4423006539588867 0.443480840582843
0.22595744680851063 0.44545264093933223 0.4416992887138187
0.22617021276595745 0.4470881187045803 0.44059858842494487
0.22638297872340427 0.44666212701793645 0.4408115842682668
0.22659574468085106 0.44680216863688305 0.4395661561312165
0.22680851063829788 0.4460810415102381 0.43917928676111373
0.22702127659574467 0.4441686469060771 0.44750391256701094
0.2272340425531915 0.44303115438588175 0.44102078459003435
0.22744680851063828 0.44172224537916555 0.43917928676111373
0.2276595744680851 0.439494980663727 0.43917928676111373
0.22787234042553192 0.4372687320984363 0.43777901412225134
0.22808510638297871 0.43624816805080613 0.43624816805080613
0.22829787234042553 0.4355086432628833 0.4392062672024969
0.22851063829787233 0.4361418147494952 0.435802894987258
0.22872340425531915 0.4352803695478682 0.4382761757283299
0.22893617021276597 0.43624816805080613 0.4461461246357597
0.22914893617021276 0.436767699700762 0.4477749007968683
0.22936170212765958 0.43781534619455 0.4507005240251648
0.22957446808510637 0.43722520762090866 0.45394948100568117
0.2297872340425532 0.43911914649474476 0.45705158536874857
0.23 0.4409070894398098 0.4562415123758764
0.2302127659574468 0.4429025878258889 0.45313512656600285
0.23042553191489362 0.441133365901319 0.45176205522374163
0.23063829787234041 0.441133365901319 0.44843673284872926
0.23085106382978723 0.44202599671186005 0.4460185637518319
0.23106382978723405 0.44449812587089094 0.44428399871477536
0.23127659574468085 0.4450415241817294 0.4404386701458727
0.23148936170212767 0.4450415241817294 0.435690915864832
0.23170212765957446 0.44772183085319806 0.43170886533761704
0.23191489361702128 0.4483603532320368 0.4282974388965832
0.23212765957446807 0.4480434822030044 0.42700171179031504
0.2323404255319149 0.4483727730935346 0.42803172128848793
0.2325531914893617 0.44866445597564525 0.43189091690802583
0.2327659574468085 0.44894968246213973 0.4341342590241333
0.23297872340425532 0.45179666083950487 0.43998804566533106
0.23319148936170211 0.4509037616023448 0.4434755275562841
0.23340425531914893 0.4507835502129705 0.447236026100683
0.23361702127659575 0.45006065768164155 0.44868181116334116
0.23382978723404255 0.4527319884181325 0.45245626544450246
0.23404255319148937 0.4545396029079458 0.4538348803126526
0.23425531914893616 0.4554335317302761 0.4606726106353823
0.23446808510638298 0.45689413572627613 0.46071419862681723
0.2346808510638298 0.45881410995476357 0.457743038593063
0.2348936170212766 0.4581527644298804 0.46031696076537604
0.2351063829787234 0.4582594606089524 0.4641216980295678
0.2353191489361702 0.4616180627286468 0.46411864640734973
0.23553191489361702 0.4626968304837842 0.46171979091368154
0.23574468085106381 0.46165119687347334 0.4583584210129569
0.23595744680851063 0.4615590568572487 0.45453549983408115
0.23617021276595745 0.46126088783412406 0.4536409927647074
0.23638297872340425 0.46096271881099954 0.45274648569533377
0.23659574468085107 0.46073088315252203 0.4519091640970232
0.23680851063829786 0.46249136858027284 0.4527894068108986
0.23702127659574468 0.46440451612300854 0.4537459805822663
0.2372340425531915 0.4629887212809884 0.4522412860098601
0.2374468085106383 0.4641863200454906 0.45343888477436206
0.2376595744680851 0.46176384909292933 0.4538348803126526
0.2378723404255319 0.46149312719645835 0.4526064254730212
0.23808510638297872 0.4625925790220144 0.4508681041807833
0.23829787234042554 0.46173584751768443 0.45001137267645336
0.23851063829787233 0.4601350346825574 0.45068480312770026
0.23872340425531915 0.46096758203696 0.455350386665266
0.23893617021276595 0.46043206677054804 0.45225695312989883
0.23914893617021277 0.4602872122450668 0.44953977697393827
0.23936170212765956 0.4588793738696641 0.45172150546594897
0.23957446808510638 0.4590813313663436 0.45218869435590986
0.2397872340425532 0.4573311730145706 0.45345809765157924
0.24 0.45676599902296044 0.4538348803126526
0.2402127659574468 0.4558187184881368 0.45783231569889965
0.2404255319148936 0.45658137424643724 0.4609203236720684
0.24063829787234042 0.4541188572721005 0.46420367963785064
0.24085106382978724 0.4534188961332655 0.4659689295150714
0.24106382978723404 0.45294868760103973 0.46753629128915736
0.24127659574468086 0.45247847906881383 0.4691036530632436
0.24148936170212765 0.45200827053658804 0.47067101483732954
0.24170212765957447 0.4515380620043622 0.47223837661141577
0.2419148936170213 0.4510678534721363 0.47380573838550194
0.24212765957446808 0.45019362641138755 0.47387928782416877
0.2423404255319149 0.44910282781464805 0.47315208875967574
0.2425531914893617 0.44801202921790867 0.4724248896951828
0.2427659574468085 0.4479726428920372 0.4655799210904973
0.2429787234042553 0.4488125225015484 0.46458231558378116
0.24319148936170212 0.44716839287568 0.4583478020311723
0.24340425531914894 0.449880543435195 0.4481265715488614
0.24361702127659574 0.4480603485600096 0.44330670921145543
0.24382978723404256 0.4461661841122572 0.4385712980920745
0.24404255319148935 0.4466939870203424 0.435500554116969
0.24425531914893617 0.44922256087296464 0.4331806101350858
0.244468085106383 0.4497534212119885 0.4311896693800394
0.24468085106382978 0.449596515662974 0.42973909742935623
0.2448936170212766 0.4492158341365922 0.42940889106008795
0.2451063829787234 0.44894968246213973 0.4314630482096393
0.2453191489361702 0.44894968246213973 0.4268954234457764
0.24553191489361703 0.4485158881231134 0.42090473115518223
0.24574468085106382 0.4464716151292271 0.422267579817773
0.24595744680851064 0.4440144566814977 0.4185613999287015
0.24617021276595744 0.4424290281072006 0.41736579358307785
0.24638297872340426 0.44072251407371144 0.4204601990142772
0.24659574468085105 0.44242331226146026 0.4185699265922754
0.24680851063829787 0.4409284951156869 0.4148058163177404
0.2470212765957447 0.4414208674498456 0.4137762579384465
0.24723404255319148 0.44146668588022575 0.41506369712083807
0.2474468085106383 0.4403884465276906 0.4172201758259086
0.2476595744680851 0.4401563263312165 0.42460472034276703
0.2478723404255319 0.4430886130594343 0.43139217064804886
0.24808510638297873 0.44324226123664945 0.4352333750784269
0.24829787234042552 0.4433959094138646 0.43907457950880446
0.24851063829787234 0.44354955759107967 0.4429157839391825
0.24872340425531914 0.4437032057682948 0.44675698836956
0.24893617021276596 0.44385685394550994 0.45059819279993807
0.24914893617021278 0.4440105021227251 0.4544393972303161
0.24936170212765957 0.44416415029994016 0.4582806016606937
0.2495744680851064 0.4443177984771553 0.46212180609107173
0.24978723404255318 0.44447144665437044 0.4659630105214493
0.25 0.4446250948315855 0.46980421495182734
0.2502127659574468 0.44477874300880066 0.4736454193822049
0.25042553191489364 0.4449323911860158 0.47748662381258344
0.25063829787234043 0.444919954822934 0.4807012261406041
0.2508510638297872 0.44450034718001175 0.4823796567122933
0.251063829787234 0.44408073953708943 0.4840580872839826
0.25127659574468086 0.44496096331980217 0.4778477560286051
0.25148936170212766 0.45044037577641644 0.47368459559865667
0.25170212765957445 0.44833366155475135 0.47423237173056887
0.2519148936170213 0.44716198055705125 0.46624608793494904
0.2521276595744681 0.44771994004441845 0.459511958526394
0.2523404255319149 0.4479726428920372 0.4523108330553865
0.2525531914893617 0.4492803148646638 0.44992672203224227
0.2527659574468085 0.4518538279390295 0.44029119249830617
0.2529787234042553 0.4528578407425501 0.43223007686544423
0.2531914893617021 0.45339194760244833 0.42718128947080103
0.25340425531914895 0.45339755996363873 0.4236490525115471
0.25361702127659574 0.4544343398318386 0.4238308133408006
0.25382978723404254 0.45755645610846163 0.4266643548343815
0.2540425531914894 0.4567003195644915 0.4276518502952896
0.2542553191489362 0.4562952328900112 0.42886711031873037
0.25446808510638297 0.45589014621553103 0.43008237034217106
0.25468085106382976 0.455079944851193 0.43109494523185526
0.2548936170212766 0.45559598574911847 0.42901077260120357
0.2551063829787234 0.4576073329643503 0.4329777852687166
0.2553191489361702 0.45676599902296044 0.4295286074553822
0.25553191489361704 0.4565972583480375 0.431700451550139
0.25574468085106383 0.4554946696397243 0.43508278821929974
0.2559574468085106 0.4551763447856198 0.4377215871496554
0.2561702127659574 0.4569791366665479 0.4340809512670134
0.25638297872340426 0.4566499418675007 0.43026987347473095
0.25659574468085106 0.4574123683900319 0.42908196361680456
0.25680851063829785 0.45636941431898564 0.43332666413372123
0.2570212765957447 0.4557889594528579 0.4370530549651602
0.2572340425531915 0.45676599902296044 0.44074592099159726
0.2574468085106383 0.4571668226907258 0.44857387839368523
0.25765957446808513 0.4587200781631655 0.45289149342401197
0.2578723404255319 0.4587200781631655 0.45863943615103947
0.2580851063829787 0.45913582615952536 0.4656631332596885
0.2582978723404255 0.46077934548709937 0.4729397460215174
0.25851063829787235 0.45964072138702794 0.4773966226875952
0.25872340425531914 0.46111699193969224 0.48323276542953114
0.25893617021276594 0.45792106046856484 0.48692070928951436
0.2591489361702128 0.45934368434969947 0.49060385282769375
0.2593617021276596 0.45644902479463006 0.49748468673893875
0.25957446808510637 0.45802483068964644 0.5001033638442339
0.2597872340425532 0.4572435648082108 0.5012103454628273
0.26 0.45896318942205694 0.5010997438331826
0.2602127659574468 0.45969711773326827 0.4977609809730676
0.2604255319148936 0.4588210811134513 0.49594858477734977
0.26063829787234044 0.45676599902296044 0.4937199195457815
0.26085106382978723 0.45631241110123255 0.48660063777441287
0.261063829787234 0.4538348803126526 0.48242153379578884
0.2612765957446809 0.4538348803126526 0.4762138046744978
0.26148936170212767 0.45329154863610527 0.4717456766850622
0.26170212765957446 0.4528578407425501 0.4678255284050068
0.26191489361702125 0.452086503065264 0.4611370309829833
0.2621276595744681 0.45278218368798706 0.4569929701866495
0.2623404255319149 0.4518213574090653 0.4535376614957415
0.2625531914893617 0.45071076711705177 0.4475987210650885
0.26276595744680853 0.45057947435962153 0.4404785246529735
0.2629787234042553 0.4509649664912472 0.43722520762090866
0.2631914893617021 0.44992672203224227 0.43545216890590843
0.26340425531914896 0.4492029297858014 0.4357416734034827
0.26361702127659575 0.4498062209664186 0.43881778356364265
0.26382978723404255 0.44894265993986054 0.4411544334681565
0.26404255319148934 0.4479726428920372 0.444205086395355
0.2642553191489362 0.4479726428920372 0.44926702032871896
0.264468085106383 0.4479726428920372 0.45177266838157165
0.26468085106382977 0.4475500221970168 0.4542575010076729
0.2648936170212766 0.4475463618945691 0.45756571274592794
0.2651063829787234 0.44457417813662775 0.46241588953759577
0.2653191489361702 0.44515848284745874 0.46636665975492475
0.265531914893617 0.4446484300793986 0.467513434294089
0.26574468085106384 0.4426803095773859 0.467513434294089
0.26595744680851063 0.4409858675723779 0.46633344766255985
0.2661702127659574 0.4402966214711708 0.4608194788529029
0.2663829787234043 0.4409701628520886 0.45237258904541855
0.26659574468085107 0.4403109768185432 0.44350225985736197
0.26680851063829786 0.43763760908062266 0.43203553646904647
0.2670212765957447 0.4396642642620889 0.4263208362282236
0.2672340425531915 0.4377268650894154 0.4165927082264071
0.2674468085106383 0.43973850772769624 0.40637563048592407
0.2676595744680851 0.43666566090372505 0.4023649027369046
0.26787234042553193 0.4372109020076422 0.39723811331303505
0.2680851063829787 0.4382022471910112 0.4009852595539716
0.2682978723404255 0.43840111675846327 0.40148979092917464
0.26851063829787236 0.44011631314542726 0.40693698094772834
0.26872340425531915 0.4433834535381784 0.40736133030331395
0.26893617021276595 0.4450415241817294 0.41168343334793284
0.26914893617021274 0.43987160762551514 0.4153995370780758
0.2693617021276596 0.44021331279841425 0.41797141596178083
0.2695744680851064 0.4385606750315207 0.4203765830354917
0.26978723404255317 0.43916074040474623 0.4254080009978401
0.27 0.4393557861986825 0.42976188993522546
0.2702127659574468 0.44131878094266924 0.43276080421644764
0.2704255319148936 0.44183045164683127 0.4315057459285518
0.27063829787234045 0.44378345093296956 0.4358084232144011
0.27085106382978724 0.44453113524624344 0.4382022471910112
0.27106382978723403 0.44173969754771536 0.43880857883740754
0.2712765957446808 0.4449906589564657 0.4370190966473307
0.2714893617021277 0.44268006689972206 0.4404212891159434
0.27170212765957447 0.444014947175486 0.44303790760538325
0.27191489361702126 0.4459257286984825 0.4505765674056881
0.2721276595744681 0.4454546326887695 0.4571791075300006
0.2723404255319149 0.4492452024806999 0.45936282077995566
0.2725531914893617 0.45208759608178073 0.4637319047073966
0.2727659574468085 0.45081212401256593 0.4670707333039271
0.27297872340425533 0.4531703263158971 0.4678259198674358
0.2731914893617021 0.45481191988275516 0.4700114719465166
0.2734042553191489 0.45875966156652387 0.47241842384628097
0.27361702127659576 0.45680450544806755 0.4718278109725832
0.27382978723404255 0.45920611222801405 0.47142159257449934
0.27404255319148935 0.4587330596227437 0.4694934763534504
0.2742553191489362 0.45676599902296044 0.4775653148008258
0.274468085106383 0.4565862387067546 0.4819110295403486
0.2746808510638298 0.4569669547452059 0.48539464537902244
0.27489361702127657 0.46092990018903235 0.4877208960670569
0.2751063829787234 0.4605075463315982 0.4905155169344429
0.2753191489361702 0.46001288841741395 0.4922551942307994
0.275531914893617 0.45914752924070235 0.4929164631167562
0.27574468085106385 0.465761875457035 0.4867548904846203
0.27595744680851064 0.46259666610556194 0.48013076113738545
0.27617021276595743 0.45969711773326827 0.4721433133898744
0.2763829787234042 0.4594518454138176 0.4694634637265942
0.2765957446808511 0.4601551467974241 0.46546009324829235
0.27680851063829787 0.46172934213705796 0.46315582886041956
0.27702127659574466 0.462282583744039 0.45941138356223954
0.2772340425531915 0.4629528756019258 0.45546119819945485
0.2774468085106383 0.46339386013637646 0.452515048804354
0.2776595744680851 0.4636052760136786 0.45188080117244755
0.27787234042553194 0.4606632399364772 0.4489060129945652
0.27808510638297873 0.45969711773326827 0.4454258364675128
0.2782978723404255 0.45969711773326827 0.44623362338642225
0.2785106382978723 0.45896070749937623 0.43966054543353505
0.27872340425531916 0.4582266427726184 0.43722520762090866
0.27893617021276595 0.4587200781631655 0.43542000253841034
0.27914893617021275 0.4594396928912081 0.4335744741825584
0.2793617021276596 0.4563462090867756 0.43080386785562874
0.2795744680851064 0.4557889594528579 0.431340989844763
0.2797872340425532 0.45666959276092944 0.42940889106008795
0.27999999999999997 0.4551477887483361 0.43005006176460975
0.2802127659574468 0.45351306394515317 0.43201239816909415
0.2804255319148936 0.45481191988275516 0.43046661415583354
0.2806382978723404 0.45367857583753385 0.43054223510530926
0.28085106382978725 0.454916231077522 0.4327352304236077
0.28106382978723404 0.4542830310967564 0.4370818702307518
0.28127659574468084 0.45298320902400135 0.43905391847966246
0.2814893617021277 0.4518894376380046 0.44402130228384173
0.2817021276595745 0.4497122662294088 0.4463402474560822
0.28191489361702127 0.44887139030470946 0.449848429874812
0.28212765957446806 0.4522233976761556 0.4518300512314259
0.2823404255319149 0.45101810658093133 0.451766456193861
0.2825531914893617 0.44952934807599515 0.45441454592650804
0.2827659574468085 0.44853873077165973 0.45481191988275516
0.28297872340425534 0.44716374158966316 0.4531941172780074
0.28319148936170213 0.44699560332193444 0.4528578407425501
0.2834042553191489 0.4450415241817294 0.4496571511701101
0.2836170212765957 0.444676147072403 0.44547049808784234
0.28382978723404256 0.44427311628797317 0.4427910272299118
0.28404255319148936 0.4449237156536808 0.44086727287046934
0.28425531914893615 0.4422051424474969 0.43917928676111373
0.284468085106383 0.4423999767144481 0.43917928676111373
0.2846808510638298 0.4425948109813992 0.43917928676111373
0.2848936170212766 0.4427896452483503 0.43917928676111373
0.2851063829787234 0.44298447951530145 0.43917928676111373
0.2853191489361702 0.44274815925428107 0.4388400009738707
0.285531914893617 0.44202860549616657 0.4381204472157562
0.2857446808510638 0.4413090517380521 0.43740089345764177
0.28595744680851065 0.44058949797993746 0.4366813396995271
0.28617021276595744 0.44077699098158624 0.4368688327011759
0.28638297872340424 0.44198973892532467 0.4401329119285617
0.2865957446808511 0.44115727686772455 0.453452304850164
0.2868085106382979 0.441133365901319 0.45686787078564656
0.28702127659574467 0.441133365901319 0.4599905547042345
0.28723404255319146 0.441133365901319 0.4631132386228225
0.2874468085106383 0.44263844611172837 0.46558570239072067
0.2876595744680851 0.44255071247215366 0.46502262258451316
0.2878723404255319 0.4394773533874843 0.4652612885275132
0.28808510638297874 0.4382022471910112 0.4665363947239862
0.28829787234042553 0.4361897416910519 0.4598280430574554
0.2885106382978723 0.4374106649119572 0.4553396414021245
0.28872340425531917 0.4382022471910112 0.4541588853451434
0.28893617021276596 0.4382022471910112 0.4548017464069597
0.28914893617021276 0.43907054531590206 0.45607839216115487
0.28936170212765955 0.4410037764512243 0.45728435682333934
0.2895744680851064 0.44021489706793754 0.46043987435648664
0.2897872340425532 0.44153188123552545 0.46388378541342534
0.29 0.44301775561164203 0.4673508256243642
0.2902127659574468 0.44371952817669585 0.4687776005644322
0.2904255319148936 0.444859214785831 0.46907014834719196
0.2906382978723404 0.4457718108792213 0.4677502152463596
0.2908510638297872 0.4453864250218698 0.46569731548993987
0.29106382978723405 0.44846214837730497 0.46692760483211404
0.29127659574468084 0.4506791195587775 0.467513434294089
0.29148936170212764 0.45200953069758887 0.466741057143241
0.2917021276595745 0.4527974681892527 0.46201343219325774
0.2919148936170213 0.4528578407425501 0.46165119687347334
0.29212765957446807 0.45430927699513873 0.4587483243682962
0.2923404255319149 0.4557889594528579 0.4543045092883747
0.2925531914893617 0.4558880063492845 0.44989370640010007
0.2927659574468085 0.4575616611712689 0.4493358214594386
0.2929787234042553 0.4587200781631655 0.44870057486748893
0.29319148936170214 0.4588197032528544 0.44817189307141503
0.29340425531914893 0.45957694273603533 0.44992672203224227
0.2936170212765957 0.4582556103233282 0.449617076805684
0.29382978723404257 0.4558576234160988 0.4482472987450008
0.29404255319148936 0.4566890051634354 0.45188080117244755
0.29425531914893616 0.4557889594528579 0.4523290605575748
0.29446808510638295 0.45594718056271716 0.45497014099261446
0.2946808510638298 0.4565169839270491 0.4559134670008136
0.2948936170212766 0.45489493830405253 0.45676599902296044
0.2951063829787234 0.456779767040734 0.4568210710940547
0.29531914893617023 0.4577059083849569 0.4605256364709464
0.295531914893617 0.45687821609377705 0.45894451230479877
0.2957446808510638 0.45676599902296044 0.4568395692417842
0.29595744680851066 0.457743038593063 0.45676599902296044
0.29617021276595745 0.457743038593063 0.45676599902296044
0.29638297872340424 0.4550701849410334 0.4542653220764497
0.29659574468085104 0.457743038593063 0.45957678834222476
0.2968085106382979 0.4584333149625975 0.4595219927806709
0.2970212765957447 0.4606475140691688 0.4538348803126526
0.29723404255319147 0.4592267494981509 0.45201654478116077
0.2974468085106383 0.4595499498387962 0.45030145785376713
0.2976595744680851 0.46019527278528316 0.450245978377634
0.2978723404255319 0.45937657062188314 0.45079177981990076
0.29808510638297875 0.45855786845848284 0.4513375812621676
0.29829787234042554 0.4577520676669117 0.45187177209859886
0.29851063829787233 0.4596610432497021 0.44996279651580845
0.2987234042553191 0.4577906555146728 0.45183318425083774
0.298936170212766 0.45672017070623694 0.45072044833545083
0.29914893617021276 0.4566940723236161 0.44751281067665344
0.29936170212765956 0.46243524692840793 0.45051778257200886
0.2995744680851064 0.46086316493902363 0.4486870051506565
0.2997872340425532 0.4590168109293856 0.4479726428920372
0.3 0.4588394011345133 0.4482585484249555
0.3002127659574468 0.45767226847695747 0.44713714355414574
0.30042553191489363 0.45969711773326827 0.4424652549344455
0.3006382978723404 0.45907671200419 0.4426843802240147
0.3008510638297872 0.4599243198776744 0.44529146999029484
0.30106382978723406 0.46171313444826145 0.44519976955087703
0.30127659574468085 0.45823451774675067 0.4489378449875938
0.30148936170212765 0.4626981150372559 0.4521425307133931
0.3017021276595745 0.4581677723634375 0.4565536321377731
0.3019148936170213 0.4538348803126526 0.4587200781631655
0.3021276595744681 0.4532064758151129 0.4593484826607054
0.30234042553191487 0.45150665963615355 0.4590215271800699
0.3025531914893617 0.45492204178022044 0.4611310462698909
0.3027659574468085 0.4492524002273321 0.45698222599809785
0.3029787234042553 0.4472863783096581 0.45427104279423813
0.30319148936170215 0.44790824258742606 0.44927168398519524
0.30340425531914894 0.44777386526617063 0.4466643072788235
0.30361702127659573 0.4452406116012126 0.4417122306324551
0.3038297872340425 0.44572248929688246 0.4377877306916208
0.3040425531914894 0.44471193555321975 0.4297033007423188
0.30425531914893617 0.44406448461162684 0.421646317068735
0.30446808510638296 0.44363071263253606 0.4141047447742101
0.3046808510638298 0.4425481944503386 0.40922738745458215
0.3048936170212766 0.44211040547142155 0.4079140205178309
0.3051063829787234 0.44263488039434823 0.4073895455949042
0.30531914893617024 0.4430874450415241 0.41041504350922386
0.30553191489361703 0.4423798604577377 0.4184598950386355
0.3057446808510638 0.4467848405506394 0.42295275246877345
0.3059574468085106 0.43815810967299973 0.4280078051026713
0.30617021276595746 0.43640395131420634 0.43444987217400105
0.30638297872340425 0.4401132634503229 0.4385467502381596
0.30659574468085105 0.43866998432353094 0.4470371686269976
0.3068085106382979 0.4371286306359138 0.45334823881429376
0.3070212765957447 0.43875937870550696 0.45844563124538756
0.3072340425531915 0.43710120249525336 0.4639772913906444
0.30744680851063827 0.43760887981624413 0.46857746237214337
0.3076595744680851 0.4357602216831892 0.47190953894211607
0.3078723404255319 0.43621301167512666 0.4695729825613324
0.3080851063829787 0.4378055488905546 0.4779486396588361
0.30829787234042555 0.4352219241946776 0.46676835354500545
0.30851063829787234 0.4371075352954097 0.4664187223984875
0.30872340425531913 0.43626868892181636 0.4660786562454506
0.308936170212766 0.43722520762090866 0.46689566914153935
0.3091489361702128 0.4342989879071318 0.46799950458087475
0.30936170212765957 0.4419319337157843 0.4736594044893631
0.30957446808510636 0.43727089376306855 0.4763829339952787
0.3097872340425532 0.4401563263312165 0.4815062626672788
0.31 0.4406653711040371 0.484971514940534
0.3102127659574468 0.4433576834130586 0.4892785432078803
0.31042553191489364 0.44476048072303065 0.4906813405178522
0.31063829787234043 0.44802335459812936 0.49314229805443216
0.3108510638297872 0.451410941711658 0.4958849024755877
0.311063829787234 0.4524975397414262 0.4931241899832945
0.31127659574468086 0.4535887254452652 0.49023149927383586
0.31148936170212765 0.4605896073725393 0.48914100352396256
0.31170212765957445 0.45400742748224476 0.48136453544511726
0.3119148936170213 0.4529464789516769 0.4748865598092756
0.3121276595744681 0.45303732036130734 0.4696469930530513
0.3123404255319149 0.4487192263612327 0.46502702513522426
0.3125531914893617 0.44676643086015133 0.4597815291026749
0.3127659574468085 0.4475118339921034 0.4549227634232256
0.3129787234042553 0.4464370522690396 0.45006508547807583
0.3131914893617021 0.44732771661626014 0.44600891359539496
0.31340425531914895 0.45257719635398935 0.44043697071977705
0.31361702127659574 0.449408072045402 0.440064648414564
0.31382978723404253 0.44974736803399684 0.4401563263312165
0.3140425531914894 0.45337535552142266 0.43929416795892123
0.3142553191489362 0.4567657240625647 0.4421101305110258
0.31446808510638297 0.45784818229603264 0.4431925887444938
0.31468085106382976 0.4585669019486649 0.44391130839712617
0.3148936170212766 0.45807721519624234 0.4429203567399344
0.3151063829787234 0.46045126295719796 0.4413562602474918
0.3153191489361702 0.46403090521824675 0.43672461640543975
0.31553191489361704 0.46607168285815453 0.430481162307069
0.31574468085106383 0.46440184823091757 0.4278530980285022
0.3159574468085106 0.46291295657989795 0.42814713135366333
0.31617021276595747 0.465040422416119 0.4300399754716807
0.31638297872340426 0.4628244402387116 0.43220920724030526
0.31659574468085105 0.46340197800035055 0.4306908776501826
0.31680851063829785 0.4602009205601709 0.4367519708777088
0.3170212765957447 0.46178605041102067 0.440021472793669
0.3172340425531915 0.45969711773326827 0.44211040547142155
0.3174468085106383 0.45969711773326827 0.4422082603175151
0.3176595744680851 0.45969711773326827 0.44241752831489356
0.3178723404255319 0.45969711773326827 0.44262679631227203
0.3180851063829787 0.45969711773326827 0.44283606430965045
0.3182978723404255 0.45969711773326827 0.44304533230702886
0.31851063829787235 0.46028168595894475 0.4442565814928772
0.31872340425531914 0.4598110795415017 0.4454730630626639
0.31893617021276593 0.4588837179819659 0.4463458433894327
0.3191489361702128 0.4592791578473154 0.4471367231201316
0.3193617021276596 0.4596745977126648 0.4479276028508302
0.31957446808510637 0.45775182722678515 0.44913981719592705
0.3197872340425532 0.45568906380245333 0.45037747525052607
0.32 0.45362630037812207 0.4516151333051248
0.3202127659574468 0.4515635369537908 0.4528527913597235
0.3204255319148936 0.4502558510052645 0.4544931382586971
0.32063829787234044 0.45184974135351763 0.4576809189552032
0.32085106382978723 0.45188080117244755 0.45610017044962836
0.321063829787234 0.45188080117244755 0.45442465181331987
0.32127659574468087 0.45188080117244755 0.4527491331770109
0.32148936170212766 0.45188080117244755 0.4510736145407024
0.32170212765957445 0.4515454419047664 0.4497590423984017
0.32191489361702125 0.45048249652000927 0.4492275697060232
0.3221276595744681 0.44946394190255323 0.44941246259182877
0.3223404255319149 0.44817973974724934 0.44915677931735193
0.3225531914893617 0.4469238496913042 0.4478291356307767
0.3227659574468085 0.44666526901967624 0.44731197428752073
0.3229787234042553 0.44640668834804836 0.44679481294426493
0.3231914893617021 0.4461481076764205 0.44627765160100913
0.32340425531914896 0.4460185637518319 0.44590733605426214
0.32361702127659575 0.4460185637518319 0.4456844434798512
0.32382978723404254 0.4460185637518319 0.44546155090544026
0.32404255319148934 0.4460185637518319 0.4452386583310293
0.3242553191489362 0.44571481826443576 0.44461628049937474
0.324468085106383 0.44308645052224727 0.4409365656603108
0.32468085106382977 0.4410332130355961 0.438402552922457
0.3248936170212766 0.44064339348692644 0.4391821920197963
0.3251063829787234 0.4402535739382569 0.4399618311171354
0.3253191489361702 0.43986375438958736 0.44074147021447446
0.325531914893617 0.43947393484091785 0.4415211093118136
0.32574468085106384 0.43908411529224817 0.4423007484091529
0.32595744680851063 0.43869429574357865 0.443080387506492
0.3261702127659574 0.4383044761949091 0.44386002660383106
0.32638297872340427 0.43778133547524845 0.44532721975891504
0.32659574468085106 0.43727686215300093 0.447111826019142
0.32680851063829786 0.4393228369692586 0.4517152693557219
0.3270212765957447 0.44090478336132227 0.4562461245328514
0.3272340425531915 0.439318263296106 0.4603920004082296
0.3274468085106383 0.4399338923652255 0.46680665524369047
0.3276595744680851 0.4389109783669118 0.47542594486161466
0.3278723404255319 0.43839207710025524 0.4790201892021935
0.3280851063829787 0.4393763316957877 0.48177493797627974
0.3282978723404255 0.442090699428268 0.4763462025113193
0.32851063829787236 0.43752842313021606 0.4680592222108423
0.32872340425531915 0.43817043773005193 0.4646777439666589
0.32893617021276594 0.44101844605912527 0.4516222315275116
0.32914893617021274 0.43737164191500233 0.4428921993160659
0.3293617021276596 0.43995247271683485 0.4394510915802892
0.3295744680851064 0.4418382613339482 0.4423329148912358
0.32978723404255317 0.44366444194882637 0.44575700354413234
0.33 0.44549062256370503 0.44918109219702973
0.3302127659574468 0.44731680317858313 0.4526051808499263
0.3304255319148936 0.44768360137754726 0.4538348803126526
0.33063829787234045 0.44723258577174013 0.4538348803126526
0.33085106382978724 0.44699560332193444 0.45425855378114166
0.33106382978723403 0.4484027024923533 0.4531234008782526
0.3312765957446808 0.4517678611511688 0.4487614490933418
0.33148936170212767 0.4498943019540098 0.44563885043141027
0.33170212765957446 0.45005894551709114 0.4407366954467725
0.33191489361702126 0.4522140243663822 0.43493790528676873
0.3321276595744681 0.4538348803126526 0.4330503942372483
0.3323404255319149 0.45386593379218737 0.43035487715065573
0.3325531914893617 0.4547915643592433 0.42949031315413555
0.3327659574468085 0.4538748945541585 0.4332770350989924
0.33297872340425533 0.45481191988275516 0.43241943353924783
0.3331914893617021 0.45481191988275516 0.4332842844729694
0.3334042553191489 0.45401472117207897 0.43889744031523215
0.33361702127659576 0.4538348803126526 0.4490114038837464
0.33382978723404255 0.4538348803126526 0.45680148510228796
0.33404255319148934 0.4538348803126526 0.461974166625556
0.3342553191489362 0.4559354353621608 0.46623096982556383
0.334468085106383 0.45741526714289316 0.4701293311150407
0.3346808510638298 0.45692822099672586 0.4730512277671735
0.33489361702127657 0.45768678213212977 0.47220918302756465
0.3351063829787234 0.4568159606599417 0.48440068363819855
0.3353191489361702 0.45676599902296044 0.4749982523839205
0.335531914893617 0.4574199953219042 0.4766456532094233
0.33574468085106385 0.457743038593063 0.47926911426022695
0.33595744680851064 0.45900384910056835 0.48046711080692367
0.33617021276595743 0.46177413723853883 0.4810211684345177
0.3363829787234042 0.46092655672240274 0.47608694911200544
0.33659574468085107 0.45932122520202523 0.46976738442590094
0.33680851063829786 0.4588939738942748 0.46364650211168235
0.33702127659574466 0.45969711773326827 0.4544472920053815
0.3372340425531915 0.45974935304194314 0.44971778079754265
0.3374468085106383 0.4607616661741025 0.4458435460103684
0.3376595744680851 0.46157442864499465 0.4441412528401055
0.33787234042553194 0.46091307884810706 0.4448026026369931
0.33808510638297873 0.4606741573033708 0.4462307269406757
0.3382978723404255 0.4612175745907087 0.44753902060927253
0.3385106382978723 0.4611643621021159 0.45089365152018185
0.33872340425531916 0.4606741573033708 0.45339850938988996
0.33893617021276595 0.46139952618805313 0.45430857851191486
0.33914893617021274 0.4621760040630073 0.45586153426182324
0.3393617021276596 0.4605825185635512 0.45267456326291095
0.3395744680851064 0.4588599830014287 0.4492294921386662
0.3397872340425532 0.462085435062206 0.4422189686640587
0.34 0.4599275540325756 0.4357320010793181
0.3402127659574468 0.4587200781631655 0.43028978208654717
0.3404255319148936 0.45887225296038175 0.4276069867170989
0.3406382978723404 0.45833565156275563 0.4289764379581904
0.34085106382978725 0.45515447865849373 0.431413606957406
0.34106382978723404 0.4550623854035086 0.43440691041452223
0.34127659574468083 0.453346040317547 0.43869236802633427
0.3414893617021277 0.4540939112593704 0.44298747167654956
0.3417021276595745 0.4528652382836926 0.44666006007704373
0.34191489361702126 0.4526006135107782 0.4486924552303678
0.34212765957446806 0.45116069864008873 0.4514953956158317
0.3423404255319149 0.450886690474312 0.4567773797749823
0.3425531914893617 0.44757144695747114 0.45912127409773157
0.3427659574468085 0.4453103356640528 0.4608447624265029
0.34297872340425534 0.44561477745642886 0.4587200781631655
0.34319148936170213 0.4450415241817294 0.4587200781631655
0.3434042553191489 0.4443715537102124 0.45805010769164856
0.34361702127659577 0.44486658310050586 0.457743038593063
0.34382978723404256 0.44784909749370333 0.46055061190503693
0.34404255319148935 0.44415782665192477 0.452951182782848
0.34425531914893615 0.4448123037456981 0.4540641007486839
0.344468085106383 0.44442913700543 0.45663518185177127
0.3446808510638298 0.4445433414124784 0.45820256942551535
0.3448936170212766 0.44288485004171896 0.4591252681627761
0.3451063829787234 0.4414154136908566 0.4606741573033708
0.3453191489361702 0.44196123724286157 0.4656413853526264
0.345531914893617 0.44019092821376204 0.4598182243221778
0.3457446808510638 0.4398773955811165 0.4609530880534708
0.34595744680851065 0.4372612463977863 0.4635872566252398
0.34617021276595744 0.43905521350877014 0.46262823644357587
0.34638297872340423 0.43842441613196215 0.461961729620723
0.3465957446808511 0.43984664039642696 0.4586960872802984
0.3468085106382979 0.44069086555317677 0.4576509997192449
0.34702127659574467 0.44126471499716013 0.45705749516425004
0.3472340425531915 0.4407729405519346 0.4577951568320883
0.3474468085106383 0.4432909380722278 0.4548018134869014
0.3476595744680851 0.44050750966267077 0.4520563928381747
0.3478723404255319 0.4401563263312165 0.45188080117244755
0.34808510638297874 0.4401563263312165 0.45188080117244755
0.34829787234042553 0.44486124605911226 0.4519408938799866
0.3485106382978723 0.43938426216007936 0.4537323926131698
0.34872340425531917 0.44071237508451355 0.45348932696775823
0.34893617021276596 0.43980867745282576 0.4557889594528579
0.34914893617021275 0.441133365901319 0.4545300059993385
0.34936170212765955 0.44008668177928306 0.45547455104763984
0.3495744680851064 0.4410724514652735 0.45711198369167644
0.3497872340425532 0.44078208402510505 0.45676599902296044
0.35 0.44236971401050135 0.4575037949160554
0.3502127659574468 0.44393959909323083 0.45944734669647624
0.3504255319148936 0.44406448461162684 0.45969711773326827
0.3506382978723404 0.443966025596602 0.4561752449328113
0.35085106382978726 0.443131514544837 0.4509919006089706
0.35106382978723405 0.44336388870267796 0.4514566489246525
0.35127659574468084 0.44359626286051895 0.45192139724033437
0.35148936170212763 0.4438286370183599 0.45238614555601625
0.3517021276595745 0.44406101117620095 0.4528508938716983
0.3519148936170213 0.44498063539733984 0.449193237599698
0.35212765957446807 0.4496214910224383 0.447117695725856
0.3523404255319149 0.44764601672003124 0.4361622530889322
0.3525531914893617 0.4465639880040151 0.42838639946897017
0.3527659574468085 0.4482124517677852 0.42824902748865595
0.3529787234042553 0.4498609155315553 0.42811165550834174
0.35319148936170214 0.45150937929532586 0.4279742835280275
0.35340425531914893 0.453157843059096 0.4278369115477133
0.3536170212765957 0.45480630682286616 0.4276995395673991
0.35382978723404257 0.4564547705866367 0.4275621675870849
0.35404255319148936 0.457743038593063 0.426720585140026
0.35425531914893615 0.4577991690682199 0.4234343926891585
0.354468085106383 0.45862794707630267 0.42223749210730727
0.3546808510638298 0.45782030540156043 0.42860183846867983
0.3548936170212766 0.4584031291527978 0.42988405072140196
0.3551063829787234 0.4589859529040351 0.43116626297412414
0.3553191489361702 0.4595687766552726 0.4324484752268466
0.355531914893617 0.46015160040650993 0.4337306874795687
0.3557446808510638 0.4607344241577473 0.43501289973229085
0.35595744680851066 0.46131724790898476 0.4362951119850133
0.35617021276595745 0.4619000716602221 0.43757732423773543
0.35638297872340424 0.4624828954114594 0.4388595364904576
0.35659574468085103 0.46262823644357587 0.44527248543240155
0.3568085106382979 0.46233006862493686 0.45062244694239995
0.3570212765957447 0.4616311954443248 0.45225315103049496
0.35723404255319147 0.46093232226371267 0.4538838551185899
0.3574468085106383 0.46023344908310043 0.4555145592066854
0.3576595744680851 0.45975193997625824 0.4562725988360505
0.3578723404255319 0.4599876565000778 0.45415115012167495
0.35808510638297875 0.4602233730238973 0.4520297014072988
0.35829787234042554 0.4604590895477168 0.4499082526929233
0.35851063829787233 0.4610115219853699 0.4479726428920372
0.3587234042553191 0.46486271685873715 0.4479726428920372
0.35893617021276597 0.4682224513112723 0.44793435395590586
0.35914893617021276 0.46360279085986306 0.44727440246284733
0.35936170212765955 0.46136593032359835 0.45141723484499696
0.3595744680851064 0.46087200162435277 0.45907312968330355
0.3597872340425532 0.46037807292510735 0.46672902452160814
0.36 0.45988414422586193 0.4743849193599127
0.3602127659574468 0.4590228353499847 0.4776209711867565
0.3604255319148936 0.4579376446498821 0.4781635665368077
0.3606382978723404 0.4569583128398192 0.4759066923054859
0.3608510638297872 0.45676599902296044 0.4704438919071611
0.36106382978723406 0.45589348696569076 0.46423244109067574
0.36127659574468085 0.45121998541915065 0.4617776864001957
0.36148936170212764 0.45318893839016305 0.45251048972220054
0.3617021276595745 0.4530360672486231 0.450326128564257
0.3619148936170213 0.45194914028589034 0.45086959204562344
0.3621276595744681 0.4510654282510247 0.4541652532880356
0.36234042553191487 0.4509037616023448 0.45645195630888724
0.3625531914893617 0.4474461382991023 0.46022362232620295
0.3627659574468085 0.44793057342566944 0.4709588284444543
0.3629787234042553 0.44784994180322296 0.47156883388107645
0.36319148936170215 0.4434838617928047 0.47723978368941694
0.36340425531914894 0.4514787016249987 0.4759046908775634
0.36361702127659573 0.44755254804863237 0.47197853730119704
0.3638297872340425 0.4453792070723206 0.46896098909840717
0.36404255319148937 0.44616790649126997 0.46543279894976686
0.36425531914893616 0.44406448461162684 0.46029867137111724
0.36446808510638296 0.44354852459362065 0.45521811896894204
0.3646808510638298 0.44564549111163393 0.4506373227250154
0.3648936170212766 0.44699560332193444 0.4443488416437427
0.3651063829787234 0.44519935881722056 0.4412912005368102
0.36531914893617023 0.45163076776098815 0.4360481413216386
0.365531914893617 0.446635621732252 0.4323400097703958
0.3657446808510638 0.4439922578612752 0.4336515926709634
0.3659574468085106 0.4414012858722156 0.4382968875044952
0.36617021276595746 0.44211040547142155 0.443491521359562
0.36638297872340425 0.44158729648044875 0.4506573662587444
0.36659574468085104 0.441133365901319 0.4551470313738997
0.3668085106382979 0.44181737559984924 0.4578409885484486
0.3670212765957447 0.44211040547142155 0.4579510332636871
0.3672340425531915 0.4403117664683909 0.4541457605870014
0.36744680851063827 0.43917928676111373 0.4500104747203288
0.3676595744680851 0.4391036218604229 0.45142681176830246
0.3678723404255319 0.4384100747621024 0.4460185637518319
0.3680851063829787 0.43883860632405475 0.4460185637518319
0.36829787234042555 0.43914755024142865 0.4431826546005798
0.36851063829787234 0.4411506198663986 0.44164776663398964
0.36872340425531913 0.44106326444072974 0.4436110155568701
0.368936170212766 0.44074146087352506 0.4446496191539354
0.36914893617021277 0.4416974780367612 0.4444774120462872
0.36936170212765956 0.44156406353766514 0.44187911687660103
0.36957446808510636 0.44160954981454686 0.4415848780709
0.3697872340425532 0.4424032537384161 0.442501748507535
0.37 0.4431702614007169 0.441133365901319
0.3702127659574468 0.44510408076009456 0.441133365901319
0.37042553191489364 0.4458466631053921 0.44182096848707825
0.3706382978723404 0.4450415241817294 0.44418318320052375
0.3708510638297872 0.44627575798924524 0.4441674618172813
0.371063829787234 0.4458001308051536 0.4475387313436554
0.37127659574468086 0.44811502051816626 0.4513480894808201
0.37148936170212765 0.44670391976118135 0.4536635413103153
0.37170212765957444 0.44696019534404696 0.45195161712822246
0.3719148936170213 0.4496256026245522 0.4536341340408592
0.3721276595744681 0.44652775460324967 0.45258257425047466
0.3723404255319149 0.4464950744296923 0.45444853232076443
0.3725531914893617 0.44934573520752696 0.4530427748218781
0.3727659574468085 0.44992672203224227 0.45148771005351346
0.3729787234042553 0.44992672203224227 0.449861520369939
0.3731914893617021 0.44926931620997834 0.4482922766398758
0.37340425531914895 0.452122915137502 0.4479726428920372
0.37361702127659574 0.4519299462970063 0.44704474844649317
0.37382978723404253 0.45432446839305196 0.4478101590621361
0.3740425531914894 0.4583502454014089 0.4488572242717006
0.37425531914893617 0.45583010475168906 0.4506568898093579
0.37446808510638296 0.45676599902296044 0.445751708450176
0.37468085106382976 0.45739625912468895 0.4486345524112755
0.3748936170212766 0.4578186380534732 0.4493248030565756
0.3751063829787234 0.4584988304973705 0.4491709301279349
0.3753191489361702 0.46040387627424734 0.44867940143301627
0.37553191489361704 0.4615143835356421 0.44726922999759694
0.37574468085106383 0.46165119687347334 0.4479670134926311
0.3759574468085106 0.462366698137382 0.45064222329615095
0.37617021276595747 0.4604086994063151 0.4492151403591954
0.37638297872340426 0.4625206485735644 0.4491199989350148
0.37659574468085105 0.46495680130140626 0.44955223631461716
0.37680851063829784 0.46238120887221623 0.4478435937486891
0.3770212765957447 0.4623750245815971 0.44891387458432724
0.3772340425531915 0.46091364029919213 0.4490694239600504
0.3774468085106383 0.4597253332079628 0.45375023388856894
0.3776595744680851 0.4613958275116065 0.4484833816157709
0.3778723404255319 0.45997112101588644 0.4514697962485203
0.3780851063829787 0.4611137603137311 0.449487119021882
0.37829787234042556 0.45848988612461816 0.45251340374721155
0.37851063829787235 0.45622708145062557 0.45265624959341555
0.37872340425531914 0.456459038045859 0.4515738401953461
0.37893617021276593 0.45516134398990166 0.4478691635898006
0.3791489361702128 0.45574665034476064 0.4479303337839399
0.3793617021276596 0.4529461342621454 0.45321101482093135
0.37957446808510636 0.4538348803126526 0.45811394876435535
0.3797872340425532 0.45527977532574443 0.46118334143048406
0.38 0.45575090895652665 0.4602141753905678
0.3802127659574468 0.4538348803126526 0.4629249462493601
0.3804255319148936 0.45229030822320176 0.4605161318347767
0.38063829787234044 0.4491534790208381 0.45969711773326827
0.38085106382978723 0.4539009252497115 0.4568320439600193
0.381063829787234 0.45498763913579526 0.457918757846103
0.38127659574468087 0.4546859520649302 0.45827887520799443
0.38148936170212766 0.4511176116680016 0.4569798490886172
0.38170212765957445 0.4531852710322701 0.4587200781631655
0.3819148936170213 0.4548712579915404 0.4586014019455951
0.3821276595744681 0.4561652862067137 0.45714232577681624
0.3823404255319149 0.45742271651903443 0.4587200781631655
0.3825531914893617 0.4572154246679726 0.4591695038081778
0.3827659574468085 0.4583270325160493 0.46203309342521354
0.3829787234042553 0.4580015769906168 0.45713876546073967
0.3831914893617021 0.457743038593063 0.45481191988275516
0.38340425531914896 0.45869824073165644 0.4557889594528579
0.38361702127659575 0.4535537583410491 0.4552267155096508
0.38382978723404254 0.45160004656040087 0.4527230650085874
0.38404255319148933 0.44927358144334456 0.4564421000417554
0.3842553191489362 0.445962087690509 0.45458601563746354
0.384468085106383 0.4431782302804076 0.4521459575365594
0.38468085106382977 0.4399621315431986 0.4507095668143271
0.3848936170212766 0.43756118102628305 0.449117669164827
0.3851063829787234 0.4354200835405288 0.4480471204219499
0.3853191489361702 0.43942356894685847 0.4479726428920372
0.38553191489361704 0.4385983416561779 0.4435363504630402
0.38574468085106384 0.4365741564881606 0.4443886215650595
0.38595744680851063 0.4355670841229794 0.44397531196835205
0.3861702127659574 0.4359754921847217 0.4423830813375059
0.38638297872340427 0.4351352452479963 0.43988455986580194
0.38659574468085106 0.4339285511577248 0.43966439820251557
0.38680851063829785 0.4334755223435287 0.44179345946536075
0.3870212765957447 0.43412551838602537 0.4404934673803674
0.3872340425531915 0.43477551442852186 0.4391934752953743
0.3874468085106383 0.4356453924800142 0.4387636431899774
0.3876595744680851 0.4372211599507187 0.4411272943960341
0.3878723404255319 0.43927445858175684 0.4382974190116543
0.3880851063829787 0.4416854725590711 0.44052439743638455
0.3882978723404255 0.44686000137850507 0.44433568849848554
0.38851063829787236 0.4449301901817193 0.4463813549418695
0.38872340425531915 0.4405634538408528 0.44842048315263716
0.38893617021276594 0.44299427325295443 0.4510943845059489
0.3891489361702128 0.44542509266505664 0.4537682858592613
0.3893617021276596 0.4478559120771582 0.45644218721257307
0.3895744680851064 0.44977272203460894 0.4587200781631655
0.38978723404255317 0.44873289883993 0.4587200781631655
0.39 0.44769307564525074 0.4587200781631655
0.3902127659574468 0.4466532524505718 0.4587200781631655
0.3904255319148936 0.4456134292558928 0.4587200781631655
0.39063829787234045 0.44457360606121354 0.4587200781631655
0.39085106382978724 0.44440694573737294 0.4587200781631655
0.39106382978723403 0.4450779422530614 0.4587200781631655
0.3912765957446808 0.4457489387687499 0.4587200781631655
0.39148936170212767 0.4455013135004822 0.4602718289172147
0.39170212765957446 0.4457476055625229 0.4614158364132088
0.39191489361702125 0.44725543015635427 0.4609132282152651
0.3921276595744681 0.447569207868275 0.45785011213703575
0.3923404255319149 0.4474357332922224 0.45361481532750864
0.3925531914893617 0.44894968246213973 0.45265264467380334
0.39276595744680853 0.44894968246213973 0.45100579697875876
0.3929787234042553 0.4523304860052186 0.44752295805926606
0.3931914893617021 0.4557981820939997 0.44411059781733564
0.3934042553191489 0.4560264223399202 0.4452517990469383
0.39361702127659576 0.4562546625858408 0.4463930002765413
0.39382978723404255 0.4564829028317613 0.4475342015061439
0.39404255319148934 0.4567111430776818 0.4486754027357466
0.3942553191489362 0.4573965897309225 0.4514720452939881
0.394468085106383 0.4582266889828593 0.4547924423017352
0.3946808510638298 0.45905678823479606 0.4581128393094823
0.39489361702127657 0.45988688748673284 0.46143323631722943
0.3951063829787234 0.46071698673866984 0.4647536333249774
0.3953191489361702 0.46154708599060656 0.4680740303327245
0.395531914893617 0.46272336367295075 0.4682224321643222
0.39574468085106385 0.46394928532144486 0.4679159517521987
0.39595744680851064 0.46517520696993864 0.46760947134007524
0.39617021276595743 0.4669607008192943 0.4633093972978573
0.3963829787234043 0.46831537913087234 0.45683952785277293
0.39659574468085107 0.4684904738641915 0.4502199200409485
0.39680851063829786 0.467513434294089 0.44673199645536377
0.39702127659574465 0.4677344250607306 0.44384349384498517
0.3972340425531915 0.4677749376399727 0.44272967692941473
0.3974468085106383 0.46604646736156274 0.44358018755869205
0.3976595744680851 0.46493618049220553 0.4450415241817294
0.39787234042553193 0.46401873027690005 0.4489866213298973
0.3980851063829787 0.46249931318893756 0.4540927268219296
0.3982978723404255 0.4602662511130773 0.45648143233305594
0.3985106382978723 0.45969711773326827 0.4595084083767681
0.39872340425531916 0.4611729936389787 0.4591982813976602
0.39893617021276595 0.45905167104803396 0.45785356955468576
0.39914893617021274 0.4586715791002063 0.4577672881245426
0.3993617021276596 0.4569018306986544 0.45912757319024744
0.3995744680851064 0.4574593613165898 0.4619348741499465
0.3997872340425532 0.4555163999482251 0.46224247849051503
0.4 0.45443607419996407 0.4590959238459567
0.4002127659574468 0.4538348803126526 0.46107616175969124
0.4004255319148936 0.4538348803126526 0.45976245516881437
0.4006382978723404 0.45449962154564766 0.457743038593063
0.40085106382978725 0.45481191988275516 0.4562030168020562
0.40106382978723404 0.45481191988275516 0.4539870622440942
0.40127659574468083 0.456510125678488 0.4537069436404164
0.4014893617021277 0.45306026793727205 0.4520832283671695
0.40170212765957447 0.45353679904335575 0.45405016581973767
0.40191489361702126 0.4531974753303128 0.45506782608414675
0.40212765957446805 0.4538348803126526 0.4509149533627239
0.4023404255319149 0.45446357014578326 0.4505554118653729
0.4025531914893617 0.4524888422836262 0.4509037616023448
0.4027659574468085 0.45280003121067974 0.45274222167880934
0.40297872340425533 0.45120886586809733 0.4508020601804273
0.4031914893617021 0.45584888878530044 0.44925538587469305
0.4034042553191489 0.4499425375367709 0.44894968246213973
0.40361702127659577 0.4491964625179715 0.4483377726491726
0.40382978723404256 0.44876795230518085 0.4462344883014449
0.40404255319148935 0.44936415266090707 0.44434576929729447
0.40425531914893614 0.4532600288742555 0.44239783119062015
0.404468085106383 0.4489843460773875 0.44211040547142155
0.4046808510638298 0.448678775223065 0.44656037822998135
0.4048936170212766 0.44699560332193444 0.4501964779043643
0.4051063829787234 0.44577211323140475 0.45335074178340434
0.4053191489361702 0.4435160394314703 0.4573144442031169
0.405531914893617 0.4437780193396985 0.4625770586802831
0.4057446808510638 0.44109598432054714 0.46235594036547134
0.40595744680851065 0.44099868350702254 0.4624935540492794
0.40617021276595744 0.4401563263312165 0.45867261631026246
0.40638297872340423 0.4400176220195456 0.4525804321192083
0.4065957446808511 0.438780294308662 0.4511032578285707
0.40680851063829787 0.43722520762090866 0.45188080117244755
0.40702127659574466 0.43770927414839766 0.45139673464495844
0.4072340425531915 0.437572953350492 0.4502744677618256
0.4074468085106383 0.43796279019997747 0.4484515568741047
0.4076595744680851 0.4382022471910112 0.4453941709086324
0.4078723404255319 0.4346923634915235 0.4424091114071136
0.40808510638297874 0.43730035516419413 0.4380519521044403
0.4082978723404255 0.43947747696239137 0.432509722112602
0.4085106382978723 0.43957606858025516 0.4311992944581216
0.40872340425531917 0.4430571128782217 0.42472733215257447
0.40893617021276596 0.4405319882624432 0.42256961406936977
0.40914893617021275 0.43991949987134654 0.42329991593606137
0.40936170212765954 0.4418137234397985 0.42793738143728033
0.4095744680851064 0.442278779954743 0.4315313446836145
0.4097872340425532 0.44585158518871365 0.43577206417005815
0.41 0.4430874450415241 0.44424687310462435
0.4102127659574468 0.4430874450415241 0.4450415241817294
0.4104255319148936 0.4444965275810522 0.4459809125414147
0.4106382978723404 0.44540304334898795 0.4463800829190905
0.41085106382978726 0.4458058202893743 0.44372567542889696
0.41106382978723405 0.4442191310595339 0.4421877286953751
0.41127659574468084 0.44510613523572473 0.43898545359912766
0.41148936170212763 0.44642091787707705 0.43624816805080613
0.4117021276595745 0.4483180960377367 0.43486635546800806
0.41191489361702127 0.44894968246213973 0.4323400097703958
0.41212765957446806 0.4520880069341091 0.43296767466478964
0.4123404255319149 0.4538348803126526 0.4333170493404983
0.4125531914893617 0.4520051599192615 0.4442953717008458
0.4127659574468085 0.45188080117244755 0.44238156828724456
0.4129787234042553 0.45386414442806045 0.4460185637518319
0.41319148936170214 0.45532643232378517 0.4465330761928619
0.41340425531914893 0.45742994110851787 0.44988897491577506
0.4136170212765957 0.45722499078835327 0.4527987847032332
0.41382978723404257 0.457743038593063 0.46007304355572215
0.41404255319148936 0.45891903837483433 0.46203135580856985
0.41425531914893615 0.4604272301142044 0.46115734249514057
0.414468085106383 0.4685333594755072 0.46165119687347334
0.4146808510638298 0.4615721619004691 0.4615721619004691
0.4148936170212766 0.46028901471543526 0.45984509197881
0.4151063829787234 0.46335730491400146 0.46017821510401646
0.4153191489361702 0.4612445059960377 0.4590660107750501
0.415531914893617 0.4601017922730369 0.458775974993354
0.4157446808510638 0.46115785965282013 0.4572497013724098
0.41595744680851066 0.46015080830364086 0.4572893480226904
0.41617021276595745 0.45969711773326827 0.45708603336623793
0.41638297872340424 0.4581085800921831 0.45676599902296044
0.4165957446808511 0.45868156905987534 0.45676599902296044
0.4168085106382979 0.458512740149283 0.45728434405766677
0.41702127659574467 0.45676599902296044 0.46117030308445023
0.41723404255319146 0.45643636871676047 0.4593674874270682
0.4174468085106383 0.45614782073732724 0.45800235559422686
0.4176595744680851 0.4559949450261789 0.45522389102939737
0.4178723404255319 0.4558530737764938 0.4521637381467243
0.41808510638297874 0.4585693549994952 0.44883797058626446
0.41829787234042554 0.4586706957071374 0.4444789307126357
0.41851063829787233 0.4594819810113123 0.4430874450415241
0.4187234042553191 0.4600233926166595 0.4430874450415241
0.41893617021276597 0.4618055565323183 0.4451958838405743
0.41914893617021276 0.4603677131385261 0.4475255792885319
0.41936170212765955 0.46053230523672983 0.45047820540242195
0.4195744680851064 0.4615633392680753 0.4482362157082313
0.4197872340425532 0.4578191113440624 0.45084670703909524
0.42 0.4587164120373062 0.44992305590638293
0.42021276595744683 0.45773412554017656 0.44894968246213973
0.4204255319148936 0.456097836077754 0.44894968246213973
0.4206382978723404 0.4544397166318747 0.45164816810410596
0.4208510638297872 0.4526647867321064 0.4540279343230963
0.42106382978723406 0.4514007040322954 0.4562522113032115
0.42127659574468085 0.4512757572121787 0.45885902542256457
0.42148936170212764 0.45154762541595506 0.4606741573033708
0.4217021276595745 0.4509037616023448 0.46121736519266937
0.4219148936170213 0.4511250051881765 0.46207512747899665
0.4221276595744681 0.4528578407425501 0.45792048114608835
0.42234042553191486 0.4530791823963715 0.4582773948555227
0.4225531914893617 0.45274127689283084 0.456492598168005
0.4227659574468085 0.4491317407600241 0.45539146881674875
0.4229787234042553 0.446928621044416 0.45585594173037636
0.42319148936170214 0.44667855490935926 0.4541260343928508
0.42340425531914894 0.445398685217735 0.4520593816904504
0.42361702127659573 0.4459767552695816 0.45188080117244755
0.4238297872340426 0.44940402338448077 0.45390955154804713
0.42404255319148937 0.44347118399993607 0.45475710003155345
0.42425531914893616 0.4440078252816757 0.45389153964260376
0.42446808510638295 0.44406448461162684 0.4538348803126526
0.4246808510638298 0.4429000933452162 0.4544170759458579
0.4248936170212766 0.4431366167995014 0.4537857085546754
0.4251063829787234 0.44488453141273726 0.45039770033921867
0.42531914893617023 0.4457993641339862 0.44699560332193444
0.425531914893617 0.44509256319364016 0.44699560332193444
0.4257446808510638 0.44438576225329407 0.44699560332193444
0.4259574468085106 0.44362945207277116 0.44699560332193444
0.42617021276595746 0.44341379394181507 0.4476483011225163
0.42638297872340425 0.4421472333817627 0.45125038393797656
0.42659574468085104 0.4401179178292875 0.4557505509509289
0.4268085106382979 0.44065801302490903 0.45660754806415715
0.4270212765957447 0.43974899432080494 0.4563045418294558
0.4272340425531915 0.4388399756167009 0.4560015355947545
0.4274468085106383 0.4385951464408925 0.45500316095309534
0.4276595744680851 0.4399116431803175 0.4523701674742455
0.4278723404255319 0.4377359474123696 0.44784683630770267
0.4280851063829787 0.43722520762090866 0.44510717598032046
0.42829787234042555 0.43722520762090866 0.44254983475535553
0.42851063829787234 0.43722520762090866 0.4378426920217703
0.42872340425531913 0.4379853928970981 0.4376053002590034
0.428936170212766 0.43886035611110613 0.43804278186600737
0.42914893617021277 0.4397951255834262 0.4406656024802606
0.42936170212765956 0.4427665006153743 0.4460256668976584
0.42957446808510635 0.44406448461162684 0.4464690902241511
0.4297872340425532 0.44406448461162684 0.4442839194417578
0.43 0.4432451336962884 0.4375096772889204
0.4302127659574468 0.44751558192796226 0.43093440378708037
0.43042553191489363 0.4479726428920372 0.42463170721653726
0.4306382978723404 0.448081726432803 0.42707301952720234
0.4308510638297872 0.4512363927537653 0.4206155349291647
0.43106382978723407 0.45447306149869765 0.42127065993609686
0.43127659574468086 0.45180590068958626 0.4239789980623778
0.43148936170212765 0.45200706689805387 0.42915635960887494
0.43170212765957444 0.4520588891086571 0.4319405339534492
0.4319148936170213 0.45226375920602796 0.43590449898952865
0.4321276595744681 0.45114979511871967 0.4425882835133779
0.4323404255319149 0.4549243072926811 0.44969324857809734
0.4325531914893617 0.4511485038826305 0.4555442171725722
0.4327659574468085 0.45452323914554993 0.46193987761067856
0.4329787234042553 0.45188080117244755 0.46627306689422776
0.4331914893617021 0.4514962636967328 0.47372881742878736
0.43340425531914895 0.4498447629275 0.47887232800738216
0.43361702127659574 0.44962330444947146 0.48358305864208134
0.43382978723404253 0.4507337058785714 0.48671411424859395
0.4340425531914894 0.4526652089704295 0.48881567306422524
0.43425531914893617 0.45199257420972844 0.49160410443481095
0.43446808510638296 0.4528578407425501 0.48996716636936977
0.4346808510638298 0.4529934708501755 0.48776000505099243
0.4348936170212766 0.45513902084073404 0.48495935138768254
0.4351063829787234 0.4597755452971941 0.47954098970079
0.4353191489361702 0.45676599902296044 0.47518383632780353
0.43553191489361703 0.4587413530078459 0.4694462385896139
0.4357446808510638 0.45812690839414105 0.4656029976121666
0.4359574468085106 0.45754319704726437 0.46380511755947723
0.43617021276595747 0.4568245872857332 0.46268682470634864
0.43638297872340426 0.4567077820733142 0.45854542731422676
0.43659574468085105 0.45593017378144596 0.4553653164670938
0.43680851063829784 0.45697274468248805 0.4526510950830225
0.4370212765957447 0.457743038593063 0.45016569006588286
0.4372340425531915 0.4587118706289696 0.4460267712860279
0.4374468085106383 0.4609516222815984 0.44441427190756433
0.4376595744680851 0.46242557821777297 0.44406448461162684
0.4378723404255319 0.45913217638044906 0.44319046959584496
0.4380851063829787 0.4577737313552103 0.44406448461162684
0.43829787234042555 0.45855409959696736 0.4435665489130323
