0.0 0.431362970200293 0.39716658524670256
0.0002127659574468085 0.43634389489687914 0.39716658524670256
0.000425531914893617 0.44088930386093517 0.39716658524670256
0.0006382978723404255 0.4472150264037535 0.4003769263062142
0.000851063829787234 0.4495488863757701 0.40447224519675606
0.0010638297872340426 0.4483973782763479 0.40731919339821226
0.001276595744680851 0.4488557237410848 0.40933260051245746
0.0014893617021276596 0.4464380219009964 0.4094026004182805
0.001702127659574468 0.44454440733132855 0.41135945020923875
0.0019148936170212765 0.4446583671920857 0.4163625138510973
0.002127659574468085 0.4436573625797473 0.4241981021968874
0.002340425531914894 0.44228638254119523 0.43368733485274025
0.002553191489361702 0.44211040547142155 0.4508719081142217
0.0027659574468085106 0.441133365901319 0.46643532615415
0.0029787234042553193 0.441133365901319 0.48195678637765216
0.0031914893617021275 0.44143531555787324 0.4963090999392925
0.003404255319148936 0.44252844470394165 0.5025458977127196
0.003617021276595745 0.4436219803466518 0.5068711102186503
0.003829787234042553 0.44406448461162684 0.5082164952372227
0.004042553191489362 0.4432872195666427 0.509126586758263
0.00425531914893617 0.44399369326351723 0.5040886464765423
0.004468085106382979 0.44900387895878313 0.4935683237069983
0.004680851063829788 0.4506597331018052 0.48674849589450825
0.004893617021276595 0.45445400686290266 0.4811919882755251
0.005106382978723404 0.456648431072463 0.48033251665592
0.005319148936170213 0.4582972927748677 0.477020892408101
0.005531914893617021 0.4627380486476612 0.46528482464367066
0.00574468085106383 0.465372002545943 0.443301044135809
0.005957446808510639 0.47103350502557273 0.4209321205221505
0.006170212765957446 0.4733223247610129 0.40443263786695277
0.006382978723404255 0.4783730859599352 0.3963578702686767
0.006595744680851064 0.4806981723227848 0.40008711162163196
0.006808510638297872 0.4828565499635296 0.4081675937817311
0.007021276595744681 0.48341631110250843 0.419472186849294
0.00723404255319149 0.48347013179708864 0.4288703992331665
0.007446808510638298 0.4828402201630634 0.4377095483098808
0.007659574468085106 0.48073819613861973 0.442564197608327
0.007872340425531916 0.47834818084121467 0.444954212905732
0.008085106382978723 0.47719485420114083 0.44610753954580584
0.008297872340425531 0.4736185519580687 0.4488028505967921
0.00851063829787234 0.46892848112969254 0.4477031267397364
0.008723404255319148 0.46672317627669757 0.4473907323306302
0.008936170212765958 0.4639900324960417 0.4469264277868092
0.009148936170212766 0.46133946620615196 0.44666294887054386
0.009361702127659575 0.45850133270400645 0.4498927027877535
0.009574468085106383 0.457743038593063 0.4509037616023448
0.00978723404255319 0.461495964060878 0.4574713811710211
0.01 0.45783462811594455 0.4638800445823234
0.010212765957446808 0.4585056849734551 0.466965181103407
0.010425531914893617 0.4587099627835507 0.46945739805467923
0.010638297872340425 0.46023106842845063 0.4718646814494195
0.010851063829787235 0.45912493706285556 0.47297081281501446
0.011063829787234043 0.45942188550882507 0.47127024967772607
0.01127659574468085 0.4588694071149794 0.4638228680580869
0.01148936170212766 0.4577615911661077 0.4645452104376917
0.011702127659574468 0.455451775868362 0.45391276365743277
0.011914893617021277 0.4531000704904766 0.44408884634681595
0.012127659574468085 0.45235280428844926 0.4330480144443984
0.012340425531914893 0.4494364489897757 0.4254867067203553
0.012553191489361702 0.4483490557793908 0.42159257449926724
0.01276595744680851 0.4436674178173078 0.4129821243498085
0.01297872340425532 0.44126610816702855 0.40395801852728475
0.013191489361702127 0.43723548479071983 0.3913351793355204
0.013404255319148937 0.4359143622777493 0.3801118381908827
0.013617021276595745 0.4333170493404983 0.3764134411568445
0.013829787234042552 0.43307525453117485 0.3756618543716369
0.014042553191489362 0.4327067679449704 0.3793363497639026
0.01425531914893617 0.4323281536921188 0.38401804732428646
0.01446808510638298 0.43260602070840753 0.3892607653078483
0.014680851063829787 0.4318186778697962 0.3918256797266863
0.014893617021276596 0.43310195908726923 0.39402037628316566
0.015106382978723404 0.43433023119407876 0.39922909123734146
0.015319148936170212 0.4368423516848035 0.4060227231670187
0.015531914893617021 0.4395988706586984 0.4140520014883135
0.01574468085106383 0.4382022471910112 0.4217033160819765
0.015957446808510637 0.4392973732002976 0.42780907123743406
0.016170212765957447 0.43947621257244696 0.43310638566526805
0.016382978723404256 0.43836978149916994 0.43834161522032
0.016595744680851062 0.4410124225093936 0.44198946207949613
0.01680851063829787 0.4371366721217445 0.4423760119689141
0.01702127659574468 0.4356054366954411 0.44675547446270275
0.01723404255319149 0.43365946949607004 0.4586789833872694
0.017446808510638297 0.4339138744143306 0.4717488004119155
0.017659574468085106 0.4344033521555978 0.4789507602385745
0.017872340425531916 0.43815292042322906 0.4889096513007814
0.018085106382978722 0.44250605715529406 0.4958536266468532
0.01829787234042553 0.4426571410938744 0.5048383785560311
0.01851063829787234 0.4396276587885524 0.5108823855787872
0.01872340425531915 0.43536816965871844 0.514338552775502
0.018936170212765956 0.4334497390795676 0.5175535398270792
0.019148936170212766 0.4257829348365691 0.5195281440139298
0.019361702127659575 0.4231904225878248 0.5206298021312762
0.01957446808510638 0.42064071130325864 0.5212506106497312
0.01978723404255319 0.41987811649030526 0.5218589410004042
0.02 0.4198803239853791 0.5163459626695502
0.02021276595744681 0.4230809553465545 0.5058051836902818
0.020425531914893616 0.4206426704321812 0.4938120961778093
0.020638297872340425 0.42439141602561437 0.48031714727017816
0.020851063829787235 0.42431484894940574 0.4661858879343913
0.02106382978723404 0.42685828190552 0.4574140603988288
0.02127659574468085 0.42745481191988266 0.4514165452519611
0.02148936170212766 0.42908978814479193 0.4456797300123212
0.02170212765957447 0.43287637500427956 0.4418422228544796
0.021914893617021276 0.435739226921975 0.4375205208728839
0.022127659574468085 0.4354225466835375 0.4337713039490006
0.022340425531914895 0.44085033044418587 0.43517678332832566
0.0225531914893617 0.44424056206182205 0.4375186700379007
0.02276595744680851 0.44748044608848636 0.44340331951555995
0.02297872340425532 0.45098630489001595 0.4515160963189028
0.023191489361702126 0.45605564893152495 0.4576395999685848
0.023404255319148935 0.4625557694170447 0.46305636703985115
0.023617021276595745 0.4690621060996227 0.4696458979239125
0.023829787234042554 0.47142159257449934 0.4744662044586997
0.02404255319148936 0.4777780489763521 0.47771342200560435
0.02425531914893617 0.4810385464807636 0.4809618255833828
0.02446808510638298 0.4891765540571884 0.4842913562066755
0.024680851063829785 0.4948703012912626 0.48925250448744684
0.024893617021276595 0.5028320279216352 0.4898401753025954
0.025106382978723404 0.504637998941587 0.4850986770477353
0.025319148936170214 0.4981446025204472 0.4805578902586006
0.02553191489361702 0.49279269630918043 0.4746865225603885
0.02574468085106383 0.48549270366582276 0.47361411665809694
0.02595744680851064 0.4764819407117191 0.46511119469220563
0.026170212765957445 0.4710946341614989 0.4575786004693383
0.026382978723404255 0.4686049340192105 0.4530867610525881
0.026595744680851064 0.4654605469079029 0.4445474829518254
0.026808510638297874 0.46344816614159684 0.4337000297598857
0.02702127659574468 0.46262823644357587 0.42286609990960256
0.02723404255319149 0.46299743440348967 0.41166915951960065
0.0274468085106383 0.4636052760136786 0.40308308404860016
0.027659574468085105 0.4647653035887846 0.3975946608017948
0.027872340425531914 0.46624452774576153 0.39384216092274155
0.028085106382978724 0.4689022609439834 0.39483567111295687
0.028297872340425533 0.4676819712827358 0.39699804825805574
0.02851063829787234 0.46553962021949374 0.4012326230022327
0.02872340425531915 0.46470345733697654 0.4098601941134966
0.02893617021276596 0.4651077070788527 0.41738484876130083
0.029148936170212764 0.4642634245569446 0.423258312347025
0.029361702127659574 0.4647301542454094 0.43162973199290194
0.029574468085106383 0.46115627518202557 0.4333170493404983
0.029787234042553193 0.4599052164340841 0.4345021876114168
0.03 0.4599772087070246 0.431786385498972
0.03021276595744681 0.4572891087213038 0.4263725822769165
0.030425531914893618 0.45676599902296044 0.42278106588553305
0.030638297872340424 0.45665878378065755 0.41660016140645145
0.030851063829787233 0.4535459566651233 0.4137762579384465
0.031063829787234043 0.45188080117244755 0.4150270023880654
0.03127659574468085 0.4522382428028193 0.4200912223104465
0.03148936170212766 0.45332383425453127 0.4258315686532381
0.03170212765957447 0.4549833400999546 0.4357254198902485
0.031914893617021274 0.4516949579697862 0.4476619957168477
0.03212765957446809 0.45151391550846465 0.46122051919778995
0.03234042553191489 0.4491720725284312 0.46721691420570033
0.0325531914893617 0.44992672203224227 0.46946751343429405
0.03276595744680851 0.4495102955407209 0.46918989577327985
0.03297872340425532 0.44675087033030386 0.4670239683108277
0.033191489361702124 0.4453237615161503 0.4655593551538837
0.03340425531914894 0.4418355693033468 0.4660051382155397
0.03361702127659574 0.44074855947240943 0.4665363947239862
0.033829787234042556 0.44150392782596426 0.4665363947239862
0.03404255319148936 0.441133365901319 0.4679593883501102
0.03425531914893617 0.4403177057041026 0.4725687748502737
0.03446808510638298 0.4383107765738855 0.4742984465933698
0.03468085106382979 0.4457154892777905 0.4826741519690301
0.03489361702127659 0.4401563263312165 0.4930496154959318
0.035106382978723406 0.44122135194497286 0.4995774697476891
0.03531914893617021 0.4429513954024175 0.5054201166117105
0.03553191489361702 0.4425574998444916 0.5148031941494414
0.03574468085106383 0.44290137943118923 0.5212272548905175
0.03595744680851064 0.4407344141002718 0.5259566725322362
0.036170212765957444 0.4401563263312165 0.5271128480703469
0.036382978723404256 0.4374739124177888 0.5351600898106296
0.03659574468085106 0.43716316889483264 0.5269680910428362
0.03680851063829787 0.43390900963520207 0.5198884918042299
0.03702127659574468 0.431362970200293 0.5140799485235192
0.03723404255319149 0.4300053004273908 0.4989120541827271
0.0374468085106383 0.42618324189849194 0.486170634342276
0.03765957446808511 0.42552064498151876 0.47620722941580645
0.03787234042553191 0.4270820775658312 0.4684000664942435
0.038085106382978726 0.4267457803920855 0.46724542625178356
0.03829787234042553 0.42811143898279036 0.46669660097758375
0.03851063829787234 0.42935740204543305 0.46283419250219543
0.03872340425531915 0.4315247796272741 0.453133706129068
0.03893617021276596 0.4344564482742766 0.43886033480985837
0.03914893617021276 0.43446612755424907 0.4250398091405197
0.039361702127659576 0.43309227773171544 0.41640465190500026
0.03957446808510638 0.435266099378626 0.413771228836369
0.03978723404255319 0.43624816805080613 0.4159465760114663
0.04 0.4369541077871396 0.4223548945394226
0.04021276595744681 0.43722520762090866 0.4326766836828206
0.04042553191489362 0.43722520762090866 0.4398421462026655
0.040638297872340426 0.4391227127212883 0.44417763269127775
0.04085106382978723 0.4388511574179639 0.4450451984114029
0.041063829787234045 0.4423817841991578 0.4377139177815902
0.04127659574468085 0.4442235398429163 0.42719728926185513
0.04148936170212766 0.4474704994128459 0.4123878995167521
0.04170212765957447 0.45186648959053494 0.3923386337238395
0.041914893617021276 0.45319313317360876 0.37419711661066646
0.04212765957446808 0.45358330475574316 0.3623032615949896
0.042340425531914895 0.45549516573683785 0.35505822531024883
0.0425531914893617 0.45672516126704815 0.3551130459763789
0.04276595744680851 0.45858475976449875 0.36371445148577924
0.04297872340425532 0.45676599902296044 0.3767267039484844
0.043191489361702126 0.4570513193787267 0.39574839501554276
0.04340425531914894 0.4573527501689153 0.41591625172259195
0.043617021276595745 0.45676599902296044 0.43538379337791777
0.04382978723404255 0.4561638072076094 0.45129078639583975
0.044042553191489364 0.4557889594528579 0.4593284570427722
0.04425531914893617 0.4566027627692239 0.4655569772015669
0.044468085106382976 0.4576870668903906 0.46561532685655604
0.04468085106382979 0.45989847735532147 0.4674630943885757
0.044893617021276595 0.4640610757055358 0.4666883279546053
0.0451063829787234 0.46575975068319175 0.468031196987952
0.045319148936170214 0.4639728181988856 0.468364886878673
0.04553191489361702 0.46503143740635877 0.4660872729014086
0.045744680851063826 0.4666099081753668 0.4650340786431422
0.04595744680851064 0.467513434294089 0.4651971398813746
0.046170212765957445 0.47035444288979517 0.46769011160066337
0.04638297872340425 0.4673369915673513 0.4684904738641915
0.046595744680851064 0.465611781391546 0.4675658605317513
0.04680851063829787 0.46453060047961886 0.470341122796072
0.047021276595744683 0.46376397576323564 0.4684904738641915
0.04723404255319149 0.463509366979853 0.4663445766563353
0.047446808510638296 0.45991573960272686 0.45764048650079514
0.04765957446808511 0.4587200781631655 0.4494268732559988
0.047872340425531915 0.4581195360566896 0.4400131426870723
0.04808510638297872 0.4591681690278919 0.4355356028333916
0.048297872340425534 0.4588725938206837 0.43774470021845674
0.04851063829787234 0.4587200781631655 0.4475279283786781
0.048723404255319146 0.4587847017677027 0.4582600274293605
0.04893617021276596 0.459187890828203 0.4655593551538837
0.049148936170212765 0.4562498552044842 0.4650432113354075
0.04936170212765957 0.4540850215422514 0.4610611318219152
0.049574468085106384 0.4528578407425501 0.45113945554900714
0.04978723404255319 0.45228241860881346 0.43813645857688965
0.05 0.4532480256411799 0.4278481514655687
0.05021276595744681 0.4523100573648351 0.42473832130576883
0.050425531914893615 0.45273909234108606 0.4270985667154906
0.05063829787234043 0.4528578407425501 0.43325496336335356
0.050851063829787234 0.44875487675417475 0.43947149532306123
0.05106382978723404 0.44658167350658035 0.4425243352867757
0.05127659574468085 0.4450415241817294 0.443430649871359
0.05148936170212766 0.4446157325799711 0.4429619886749382
0.051702127659574465 0.44619412880840853 0.44406448461162684
0.05191489361702128 0.44733532457208913 0.4459764395714706
0.052127659574468084 0.4477387307137139 0.4492249854972724
0.05234042553191489 0.4479726428920372 0.45332720443062513
0.0525531914893617 0.4479726428920372 0.45575019157353014
0.05276595744680851 0.4470855812014114 0.4546319641238013
0.05297872340425532 0.4485649864295672 0.45325273643423675
0.05319148936170213 0.45029226740098954 0.4538946785807223
0.053404255319148934 0.4477120046190525 0.4522933604534766
0.05361702127659575 0.44704966939073965 0.45388894638145766
0.05382978723404255 0.4479726428920372 0.4616636743320247
0.05404255319148936 0.4479726428920372 0.47579896641240466
0.05425531914893617 0.4529982685509532 0.4892891604531523
0.05446808510638298 0.449107519301958 0.4994716337958014
0.054680851063829784 0.4519580891535257 0.5038680581472057
0.0548936170212766 0.45304190379621856 0.4937661639349505
0.0551063829787234 0.4541265947920656 0.4834657297274993
0.05531914893617021 0.45521409840159754 0.4636075181840776
0.05553191489361702 0.4588719133754436 0.44612749550618824
0.05574468085106383 0.46102611531838456 0.4304281449898705
0.055957446808510634 0.4606741573033708 0.4114967580560658
0.05617021276595745 0.4623658254236319 0.39932447440655294
0.05638297872340425 0.454053130132673 0.39242688727620306
0.056595744680851066 0.4494068691909856 0.39219474525598
0.05680851063829787 0.4434791424307396 0.3922799181275656
0.05702127659574468 0.4402295318985482 0.3976959356812179
0.05723404255319149 0.437794734235014 0.40555738604308184
0.0574468085106383 0.4367380513730381 0.4142579600375941
0.057659574468085104 0.43624816805080613 0.419553036441244
0.05787234042553192 0.4348946746347471 0.4290367882875913
0.05808510638297872 0.43429408891060084 0.4401477594562501
0.05829787234042553 0.4334531842315334 0.45136035694116394
0.05851063829787234 0.4333170493404983 0.4631239198324164
0.05872340425531915 0.4332565373785858 0.474836806980107
0.058936170212765954 0.4320071039218681 0.48283483954268297
0.05914893617021277 0.43093503904219826 0.4849789693020225
0.05936170212765957 0.4319588635071058 0.47187807873679966
0.059574468085106386 0.43293332740577645 0.4538260129460036
0.05978723404255319 0.4364378192224539 0.4494453981751567
0.06 0.43941170977364147 0.4455537177267765
0.06021276595744681 0.4408078442461481 0.44471600252655846
0.06042553191489362 0.44253018229541846 0.4518954392877893
0.06063829787234042 0.44566048029094213 0.4674162234815221
0.060851063829787236 0.446734582472373 0.4780668925437993
0.06106382978723404 0.44674197082072087 0.48455539111875634
0.06127659574468085 0.44616316723062593 0.4894069304912723
0.06148936170212766 0.4478766966556897 0.48998534440644836
0.06170212765957447 0.45436952122209157 0.4910887835938836
0.06191489361702127 0.44850123243720247 0.49326885614686644
0.062127659574468086 0.4497482786522205 0.4957371544695547
0.06234042553191489 0.44819767441346736 0.499003732058802
0.0625531914893617 0.44992672203224227 0.5002212636576556
0.0627659574468085 0.4480625178738907 0.49975574010747437
0.06297872340425532 0.4484654101122097 0.4938765129463737
0.06319148936170213 0.45064761116539437 0.48854356614014416
0.06340425531914894 0.46053993554939615 0.48514041308212785
0.06361702127659574 0.4551135293384234 0.4847985371002672
0.06382978723404255 0.4583830870148887 0.4823823773195696
0.06404255319148935 0.4632951229395845 0.4811803431885701
0.06425531914893617 0.46625059615733294 0.4761638911416855
0.06446808510638298 0.4632871052063143 0.47336440814069947
0.06468085106382979 0.465543320803571 0.46917924706165626
0.06489361702127659 0.46612213478419323 0.46353884095135933
0.0651063829787234 0.46436904576100424 0.4608874271261477
0.06531914893617022 0.4655593551538837 0.4580578904538049
0.06553191489361702 0.4647827905903954 0.4534592657623928
0.06574468085106383 0.4659467318023514 0.4465817851912811
0.06595744680851064 0.4704445530043966 0.4376520567857108
0.06617021276595744 0.46935735398309936 0.43016561172780127
0.06638297872340425 0.4655593551538837 0.42175989687726806
0.06659574468085107 0.4655593551538837 0.41506543026833614
0.06680851063829787 0.4664249608613379 0.41042526897127796
0.06702127659574468 0.4657347675669092 0.4106697268151132
0.06723404255319149 0.4655593551538837 0.4116729210297838
0.06744680851063829 0.46384299082912933 0.41611308961012755
0.06765957446808511 0.4626855158399802 0.41762713682245256
0.06787234042553192 0.4617097437684963 0.41877854957900534
0.06808510638297872 0.4631732134274922 0.4231096923021028
0.06829787234042553 0.4600187662319529 0.428580581665279
0.06851063829787234 0.46103650023688325 0.43552348218378095
0.06872340425531914 0.45922814167164233 0.44117245334817
0.06893617021276596 0.4609971919889664 0.44503358866841364
0.06914893617021277 0.46165119687347334 0.44858357295548046
0.06936170212765957 0.46206952417645075 0.4500671069963899
0.06957446808510638 0.4634356873008893 0.44894968246213973
0.06978723404255319 0.46642455364501295 0.4498708014927556
0.06999999999999999 0.4659030678536732 0.45038628040024115
0.07021276595744681 0.4636052760136786 0.4484735275030912
0.07042553191489362 0.4644169667572503 0.44456053109121924
0.07063829787234042 0.46420467197224424 0.43876267033344996
0.07085106382978723 0.4609225634741201 0.4333225777114632
0.07106382978723404 0.4583909647113822 0.4303859306301905
0.07127659574468086 0.45712572731113227 0.43056579477427637
0.07148936170212766 0.4577384453007464 0.4322043697966523
0.07170212765957447 0.45170725575802123 0.4386135709363189
0.07191489361702127 0.44996065700160587 0.4466919572330226
0.07212765957446808 0.44763792505616823 0.4547712489764994
0.07234042553191489 0.4476997996522575 0.46609031614619373
0.0725531914893617 0.44502036159151337 0.4773684803559787
0.07276595744680851 0.44291260288422385 0.4783122839570178
0.07297872340425532 0.44080671074455446 0.48217341669591435
0.07319148936170213 0.4395262048014395 0.48068929584749714
0.07340425531914893 0.43736731431616505 0.4788648603802003
0.07361702127659574 0.43497365450521813 0.4766888820441442
0.07382978723404256 0.43498588997560356 0.4718707455298957
0.07404255319148936 0.4352711284807034 0.4660978440722921
0.07425531914893617 0.4372680760191779 0.46125406968632376
0.07446808510638298 0.4382022471910112 0.4570274719798977
0.07468085106382978 0.4389110783517225 0.45224480364930114
0.0748936170212766 0.43689600418265895 0.45318704418079975
0.07510638297872341 0.435499554629516 0.4493431997849128
0.07531914893617021 0.43458923535239224 0.4486545360203483
0.07553191489361702 0.4355504418605381 0.4502060354120768
0.07574468085106383 0.43389214700077877 0.4537309868623776
0.07595744680851063 0.431362970200293 0.45727980288606734
0.07617021276595745 0.43113706845226035 0.4587200781631655
0.07638297872340426 0.4284331512530885 0.4587200781631655
0.07659574468085106 0.4253532499282621 0.4574972338407039
0.07680851063829787 0.42256961406936977 0.4523898562335026
0.07702127659574468 0.4227243761086109 0.4476631188135549
0.0772340425531915 0.4227683996945 0.4450457463206165
0.0774468085106383 0.4205489011565606 0.4402229601038204
0.07765957446808511 0.4227498771728841 0.43536606253220267
0.07787234042553191 0.421587748416082 0.4294137171432732
0.07808510638297872 0.42472579475879263 0.4270840769974328
0.07829787234042553 0.42618042545919926 0.4300885837396096
0.07851063829787235 0.4298252131008453 0.4345693883477716
0.07872340425531915 0.43428931575966695 0.44274903678233285
0.07893617021276596 0.4373626236936099 0.4502015541776448
0.07914893617021276 0.44005101840152244 0.45121968539142676
0.07936170212765957 0.441133365901319 0.44557894736539333
0.07957446808510638 0.44293308275478727 0.4435373742548912
0.0797872340425532 0.4442876348163899 0.4418028165156085
0.08 0.44336843374649026 0.4390452133059097
0.08021276595744681 0.44406448461162684 0.4422785254502566
0.08042553191489361 0.4441554560125092 0.4484274998964492
0.08063829787234042 0.4456143471925568 0.4535738695060844
0.08085106382978724 0.44960100544002995 0.45882857688954665
0.08106382978723405 0.45161651838652345 0.46553534708874084
0.08127659574468085 0.45263881953995716 0.4736235371343633
0.08148936170212766 0.4579171903811286 0.4752234702251352
0.08170212765957446 0.45906231588371105 0.4791010140471018
0.08191489361702127 0.4643633990457349 0.477175526704821
0.08212765957446809 0.4713963097807617 0.47472052913107043
0.0823404255319149 0.4773195795717853 0.4650172110038266
0.0825531914893617 0.48216902784562765 0.4564444809595638
0.08276595744680851 0.48116717670565207 0.44519227126997835
0.08297872340425531 0.4761081831844129 0.435557041866932
0.08319148936170212 0.4714625646580776 0.42634791976948505
0.08340425531914894 0.4656653633534031 0.4220634262510653
0.08361702127659575 0.46051610564337014 0.4178173197689069
0.08382978723404255 0.455816688692568 0.41029219057372934
0.08404255319148936 0.45512913910151653 0.40467837354567127
0.08425531914893616 0.4564860534083244 0.39675497706811946
0.08446808510638298 0.4582276734333625 0.39204295492079144
0.08468085106382979 0.45795825778265215 0.3928279885871138
0.0848936170212766 0.457743038593063 0.3979231876587955
0.0851063829787234 0.4598595044593481 0.40856356742215066
0.08531914893617021 0.460296166897062 0.4208116994901942
0.08553191489361701 0.4578475931480605 0.4314314761801659
0.08574468085106383 0.45867722462839644 0.4397277909835256
0.08595744680851064 0.4570383943721838 0.4477239033906345
0.08617021276595745 0.45750500304410985 0.45633972267363393
0.08638297872340425 0.4584063480101161 0.4686697194189631
0.08659574468085106 0.46003927256989013 0.4826100325617765
0.08680851063829788 0.4626634131783128 0.4936850786126138
0.08702127659574468 0.46293407564206807 0.5001806232552187
0.08723404255319149 0.46262823644357587 0.505201346345827
0.0874468085106383 0.46188689144701955 0.5073363620947489
0.0876595744680851 0.46244452891294413 0.5067787246288242
0.08787234042553191 0.4617927625655604 0.5032531215861306
0.08808510638297873 0.46251648912117527 0.49749510533157026
0.08829787234042553 0.4663426610759806 0.48475274134185115
0.08851063829787234 0.4606917057328724 0.47714344255910207
0.08872340425531915 0.46158642033118263 0.46862541838451466
0.08893617021276595 0.4607913050002606 0.45500878356961283
0.08914893617021276 0.4613081646586815 0.43885159943089924
0.08936170212765958 0.45989674510573103 0.42055224305253075
0.08957446808510638 0.4606741573033708 0.4070466597271991
0.08978723404255319 0.460432362426745 0.4008230885868876
0.09 0.4590619228276067 0.4074751870069485
0.0902127659574468 0.45970582074012234 0.4222031666605206
0.09042553191489362 0.4598566117304314 0.4363911175086702
0.09063829787234043 0.45468575718280785 0.4482880496419056
0.09085106382978723 0.45336815475994197 0.458981608951253
0.09106382978723404 0.45157944167080466 0.46954428059584674
0.09127659574468085 0.44894968246213973 0.48039111064442086
0.09148936170212765 0.44894968246213973 0.49358695504602007
0.09170212765957447 0.4495099942902869 0.5040946506464601
0.09191489361702128 0.44662639069777976 0.50857521589887
0.09212765957446808 0.4465326423221388 0.5110172539489097
0.09234042553191489 0.44613471808497707 0.5114802149487054
0.0925531914893617 0.44504302887209163 0.5065874936463813
0.0927659574468085 0.44578814857531707 0.50078815854162
0.09297872340425532 0.44440485626122916 0.49372331686205756
0.09319148936170213 0.4460185637518319 0.493143949520251
0.09340425531914893 0.44580240996598236 0.4960550405453544
0.09361702127659574 0.44540510399079725 0.5030821706933761
0.09382978723404255 0.44921246023957745 0.49482720783754286
0.09404255319148937 0.44323201707471827 0.4855711840098583
0.09425531914893617 0.4451785536861217 0.47704543706504265
0.09446808510638298 0.4460185637518319 0.461939076010273
0.09468085106382979 0.4468024729982469 0.45402801063634024
0.09489361702127659 0.44790430604248066 0.44874467191347034
0.0951063829787234 0.4448332886960563 0.44071689492997296
0.09531914893617022 0.4414124622778966 0.4349918972694053
0.09553191489361702 0.43742156036139906 0.42967069471407515
0.09574468085106383 0.435244114444691 0.4254467047076526
0.09595744680851064 0.43388551613964926 0.4174180620751986
0.09617021276595744 0.4336435010758031 0.4072588014114096
0.09638297872340426 0.4349866994023584 0.4005428097786325
0.09659574468085107 0.4319855773382597 0.390578231416554
0.09680851063829787 0.43093476980339523 0.3787354015507068
0.09702127659574468 0.431362970200293 0.36750874184389837
0.09723404255319149 0.431362970200293 0.3607482785630203
0.09744680851063829 0.4313990334294205 0.36029152418669647
0.09765957446808511 0.4320176009829094 0.3646214970611182
0.09787234042553192 0.4334075446916468 0.3697251183635251
0.09808510638297872 0.4356668977385178 0.37443082896246666
0.09829787234042553 0.43807723986307007 0.3728239342127651
0.09851063829787234 0.4413259113779275 0.3839857870670365
0.09872340425531914 0.4439363828783315 0.39478423189922324
0.09893617021276596 0.4457608185279969 0.4043625190599669
0.09914893617021277 0.4476280480780473 0.4146398077648157
0.09936170212765957 0.44958489211259356 0.42638087197209334
0.09957446808510638 0.44930254906392064 0.43717027304648776
0.09978723404255319 0.4485462651786479 0.4477582474403068
0.1 0.447789981293375 0.45834622183412654
0.10021276595744681 0.44703369740810217 0.46893419622794563
0.10042553191489362 0.4488169452501749 0.4755386531950955
0.10063829787234042 0.4488260701102034 0.4814392129793976
0.10085106382978723 0.4464639009789118 0.4851001465559355
0.10106382978723404 0.44424084409459696 0.4857006566212848
0.10127659574468086 0.4409108982492148 0.4895885388309729
0.10148936170212766 0.44051602843148263 0.4959496485577599
0.10170212765957447 0.4420480329661073 0.5005456621616341
0.10191489361702127 0.4430699313865571 0.5141661424894753
0.10212765957446808 0.44494813033887737 0.5181327042537196
0.10234042553191489 0.4460185637518319 0.5241770926665361
0.1025531914893617 0.44617418587120516 0.5221757761800428
0.10276595744680851 0.4493593760584986 0.5205336468561031
0.10297872340425532 0.4532611157893582 0.5133359335341917
0.10319148936170212 0.4558865873493282 0.506009249719371
0.10340425531914893 0.4568757969393038 0.5005790625946962
0.10361702127659575 0.46121374953762395 0.49450592895704787
0.10382978723404256 0.46561324768789275 0.4835921705693681
0.10404255319148936 0.46402803641904294 0.4768023612418743
0.10425531914893617 0.46468011831198847 0.46973597708087855
0.10446808510638297 0.46461590550374227 0.4621984990184568
0.10468085106382978 0.46214837901164013 0.4572805058673583
0.1048936170212766 0.4612783013954568 0.45317869110674197
0.1051063829787234 0.46084921696430164 0.4478993244965546
0.10531914893617021 0.4614230215260425 0.4423268605500879
0.10553191489361702 0.45876939396316635 0.43348143534050115
0.10574468085106382 0.4605168921072485 0.4279266075082496
0.10595744680851064 0.46154127773710235 0.41965072801629855
0.10617021276595745 0.460774896368478 0.41252735225399195
0.10638297872340426 0.4615959845057952 0.4053693883812703
0.10659574468085106 0.4606733951400046 0.40107245703701433
0.10680851063829787 0.4597652832320903 0.3984844523109153
0.10702127659574467 0.4606741573033708 0.40326337825472136
0.1072340425531915 0.4607142573300406 0.40620054153764484
0.1074468085106383 0.46165119687347334 0.41194683774699836
0.1076595744680851 0.46165119687347334 0.41826713079017086
0.10787234042553191 0.46334433798436536 0.42543402023252713
0.10808510638297872 0.46295378488257005 0.4310382102675394
0.10829787234042552 0.46262823644357587 0.4374650724593782
0.10851063829787234 0.46262823644357587 0.4438973285265089
0.10872340425531915 0.4606470416394629 0.44937303708687004
0.10893617021276596 0.4571110127619662 0.4557019569824858
0.10914893617021276 0.4557889594528579 0.46165119687347334
0.10936170212765957 0.45538496447178667 0.46232452184192535
0.10957446808510639 0.4533656983030756 0.4656899654564437
0.1097872340425532 0.45224697891703747 0.4702015656770622
0.11 0.45143245418869177 0.4755370610308918
0.1102127659574468 0.451369404907875 0.48110048235744074
0.11042553191489361 0.4527002633853688 0.48642391626741555
0.11063829787234042 0.4528578407425501 0.4898852614294369
0.11085106382978724 0.45407865850152807 0.4927936106150181
0.11106382978723404 0.45428914843269713 0.4933707312368007
0.11127659574468085 0.4538348803126526 0.49010515203195415
0.11148936170212766 0.45412883795228126 0.48578322848640937
0.11170212765957446 0.45550048574993185 0.4846411026444844
0.11191489361702127 0.4573145337401036 0.4826104363495312
0.11212765957446809 0.4539982048647794 0.47846502525537576
0.1123404255319149 0.4523382940461548 0.4752676970322214
0.1125531914893617 0.4529301030016768 0.4722541076263484
0.1127659574468085 0.4530206461363414 0.46990173022018916
0.11297872340425531 0.450923939662123 0.46850392590404366
0.11319148936170213 0.44735154331851096 0.46920091752095827
0.11340425531914894 0.44416254717033016 0.4676114968527923
0.11361702127659574 0.4426463535233008 0.4644874590501253
0.11382978723404255 0.44339055186508264 0.46097726412692913
0.11404255319148936 0.44030025227857106 0.4570234088562901
0.11425531914893616 0.4421379880676752 0.44769681692950103
0.11446808510638298 0.443028639687265 0.43879030073360176
0.11468085106382979 0.44460299953359966 0.42001559328610544
0.1148936170212766 0.44609529951706234 0.4005273304815535
0.1151063829787234 0.4476983894724698 0.38673339476453
0.11531914893617021 0.4495648889675476 0.3823782292760153
0.11553191489361703 0.4473738284226265 0.3887671506856393
0.11574468085106383 0.44420703042865417 0.39773974500189424
0.11595744680851064 0.4426122384166099 0.41774894844953253
0.11617021276595745 0.4409122799612633 0.4275190069849708
0.11638297872340425 0.4386163433373645 0.43659547836473034
0.11659574468085106 0.43682194603107516 0.4491363688890273
0.11680851063829788 0.43919839769965824 0.457743038593063
0.11702127659574468 0.4428157698875449 0.45911566453490027
0.11723404255319149 0.4323400097703958 0.46319156236896675
0.1174468085106383 0.4323400097703958 0.46028220638429646
0.1176595744680851 0.430806724634564 0.45663054746160464
0.11787234042553191 0.42994245250357294 0.4538348803126526
0.11808510638297873 0.4319117042174761 0.4549323483470188
0.11829787234042553 0.43419104784624657 0.45861703709881124
0.11851063829787234 0.43475920362762216 0.46275870749582826
0.11872340425531915 0.43187514287098544 0.46776952062943516
0.11893617021276595 0.43315537636596124 0.4684904738641915
0.11914893617021277 0.43235690063598564 0.4684904738641915
0.11936170212765958 0.4338931215714436 0.4669373620631435
0.11957446808510638 0.4349798526082076 0.464479103631166
0.11978723404255319 0.43714355473313105 0.45611557100396816
0.12 0.4396071170563307 0.44907106144180853
0.1202127659574468 0.4414211344561347 0.44716963797109455
0.12042553191489362 0.4429171064342213 0.45033007251364215
0.12063829787234043 0.44643788464910583 0.4520904616210845
0.12085106382978723 0.44816407377304374 0.45324070250456316
0.12106382978723404 0.4504494467061523 0.45331215563874266
0.12127659574468085 0.45602675334934256 0.44607029172015983
0.12148936170212765 0.45699039170534334 0.4399319336488336
0.12170212765957447 0.4572324539847647 0.4375198867841443
0.12191489361702128 0.45399166320240575 0.42710490390879263
0.12212765957446808 0.45436256660419155 0.42813916423737225
0.12234042553191489 0.45255363494746803 0.42152815231441093
0.1225531914893617 0.45188080117244755 0.42627441357352996
0.12276595744680852 0.45038391456640753 0.43337970384227054
0.12297872340425532 0.44956454075095464 0.4405521760725105
0.12319148936170213 0.44992672203224227 0.4467634605329671
0.12340425531914893 0.4490704334762454 0.4479726428920372
0.12361702127659574 0.45276781052788534 0.4441545148262916
0.12382978723404255 0.4569539429926122 0.4370372636512569
0.12404255319148937 0.45894138315516453 0.4352711284807034
0.12425531914893617 0.45934812406864545 0.4359691158099489
0.12446808510638298 0.46015017265073804 0.4386553021084812
0.12468085106382978 0.46105264433460164 0.4425505364867035
0.12489361702127659 0.4606741573033708 0.4447877792060251
0.1251063829787234 0.4606741573033708 0.44568545503576124
0.12531914893617022 0.4613356746937864 0.4440340115805849
0.125531914893617 0.46349919232467846 0.440007452622849
0.12574468085106383 0.46334257798704725 0.4382022471910112
0.12595744680851065 0.4667118939892611 0.4375216376000637
0.12617021276595744 0.46570204316060115 0.4379223152968062
0.12638297872340426 0.46458231558378116 0.4411222755157365
0.12659574468085105 0.46301796532816847 0.4452391059826467
0.12680851063829787 0.4651591745885428 0.45445502423505485
0.1270212765957447 0.4646892516951011 0.461879683664336
0.12723404255319148 0.46458231558378116 0.46625977313544514
0.1274468085106383 0.46458231558378116 0.4722013819411946
0.1276595744680851 0.4655904829410319 0.47438383907195514
0.12787234042553192 0.4684807398022477 0.47727409593317094
0.1280851063829787 0.46764090631736427 0.4738855598078056
0.12829787234042553 0.4660049666800492 0.4688502688725854
0.12851063829787235 0.46495298574860777 0.4602370014307772
0.12872340425531914 0.46497384693617283 0.45343977133850755
0.12893617021276596 0.4653733870103855 0.44825300874075835
0.12914893617021275 0.46458231558378116 0.441133365901319
0.12936170212765957 0.4647446768849902 0.4416204498049463
0.1295744680851064 0.4654404165786926 0.4437076688860537
0.12978723404255318 0.46634872799183785 0.4480113488013979
0.13 0.46495513337131694 0.4513215744911438
0.1302127659574468 0.4653980078088552 0.45595926229781786
0.13042553191489362 0.4646865336197752 0.45851164209117745
0.13063829787234044 0.45800353443928227 0.4615395557965222
0.13085106382978723 0.4558482555510493 0.4663881544785078
0.13106382978723405 0.44976120003593983 0.46395306925959295
0.13127659574468084 0.4497324894600728 0.4596912410240129
0.13148936170212766 0.44832801472425987 0.4571213708551831
0.13170212765957448 0.44544641833506265 0.45171354990901136
0.13191489361702127 0.4450415241817294 0.45010636239628427
0.1321276595744681 0.444283216449601 0.452959952960756
0.13234042553191488 0.44406448461162684 0.4576382180576217
0.1325531914893617 0.4424597969915943 0.46433648483327905
0.1327659574468085 0.4429048348242357 0.46873707256514047
0.13297872340425532 0.44473916861202095 0.4686416516490457
0.13319148936170214 0.4450415241817294 0.4622958143955492
0.13340425531914893 0.4469048635739544 0.45140283021623484
0.13361702127659575 0.44699560332193444 0.45183047053821196
0.13382978723404254 0.4488603674646117 0.4360303059596916
0.13404255319148936 0.44987259868409335 0.43065654737093506
0.13425531914893618 0.4491671660977419 0.43114548656469087
0.13446808510638297 0.4511397145559756 0.43793306648180075
0.1346808510638298 0.44903367152344964 0.4337502846209711
0.13489361702127659 0.4459455429839263 0.43271437013903363
0.1351063829787234 0.44643935790056877 0.42982246504339966
0.13531914893617022 0.44396723878272204 0.42918894262478846
0.13553191489361702 0.44223285070404184 0.4345364570849815
0.13574468085106384 0.43922671299477856 0.44007728260844176
0.13595744680851063 0.43890790374698196 0.4414952099201614
0.13617021276595745 0.43644450541582974 0.4450415241817294
0.13638297872340424 0.43637280034540865 0.4450415241817294
0.13659574468085106 0.43429408891060084 0.44465058934271456
0.13680851063829788 0.4312914450141142 0.44506536591045565
0.13702127659574467 0.4272179682780141 0.44541162214584634
0.1372340425531915 0.4264777723497801 0.44646657301965664
0.13744680851063829 0.4272042918512807 0.44844864232493586
0.1376595744680851 0.4258727243318742 0.4521138576381569
0.13787234042553193 0.427291271776613 0.4510673017456145
0.13808510638297872 0.43054275595575914 0.4517239758468789
0.13829787234042554 0.4366826878100943 0.44417349248442634
0.13851063829787233 0.43190861078187326 0.4361467101496025
0.13872340425531915 0.43168084561178444 0.4323400097703958
0.13893617021276597 0.43472532435775607 0.432771245217551
0.13914893617021276 0.4341965964491467 0.4333170493404983
0.13936170212765958 0.43267405345478394 0.4378180205404992
0.13957446808510637 0.42933000059104903 0.44090882862605313
0.1397872340425532 0.42670569514205325 0.44285952224925096
0.13999999999999999 0.4264777723497801 0.4440593564865005
0.1402127659574468 0.42346301145400084 0.44406448461162684
0.14042553191489363 0.4227387028886106 0.44524810634631284
0.14063829787234042 0.4235466536394723 0.4519990936736134
0.14085106382978724 0.4235466536394723 0.4555515894898655
0.14106382978723403 0.4235466536394723 0.4591558571250993
0.14127659574468085 0.42529967595874474 0.462819878419655
0.14148936170212767 0.42770243991773804 0.4666669449335732
0.14170212765957446 0.4338173088982815 0.46916365604022847
0.14191489361702128 0.433125234611191 0.4679060467144866
0.14212765957446807 0.43412100752135874 0.467513434294089
0.1423404255319149 0.4382743453056024 0.4655593551538837
0.1425531914893617 0.44209166552743884 0.4655593551538837
0.1427659574468085 0.44611949237261034 0.4668391805863215
0.14297872340425533 0.44894979488450404 0.47044460921557885
0.14319148936170212 0.4558605843923119 0.47405090640792413
0.14340425531914894 0.4566831047604251 0.47215500409423045
0.14361702127659573 0.46015932421999217 0.46787038758750316
0.14382978723404255 0.4609414314674958 0.4655593551538837
0.14404255319148937 0.4623821648755856 0.46117354714121
0.14425531914893616 0.4668217555043018 0.4563423024846876
0.14446808510638298 0.46940499613177517 0.4576805212905441
0.14468085106382977 0.47174056812042114 0.45188080117244755
0.1448936170212766 0.4753297508549097 0.45188080117244755
0.1451063829787234 0.4753297508549097 0.45188080117244755
0.1453191489361702 0.4772773922801714 0.4511017446023428
0.14553191489361703 0.4834265423826468 0.4490091238387497
0.14574468085106382 0.4875715385677061 0.44538607853421025
0.14595744680851064 0.4880312652662433 0.44184809245499257
0.14617021276595746 0.4880312652662433 0.44258726280106914
0.14638297872340425 0.4855219274258516 0.44643322882871295
0.14659574468085107 0.4803998773615774 0.4488757109996778
0.14680851063829786 0.47879316138273575 0.4541313788143755
0.14702127659574468 0.47264635078857103 0.45792536882459633
0.14723404255319147 0.4688845897605358 0.4595944636738029
0.1474468085106383 0.46552506405266836 0.4632418930666098
0.14765957446808511 0.46313301161866616 0.4675784558542444
0.1478723404255319 0.46483243835097565 0.4706946757715912
0.14808510638297873 0.4648367308919549 0.47214421683642815
0.14829787234042552 0.46458231558378116 0.47156388207176936
0.14851063829787234 0.46458231558378116 0.4648058247044496
0.14872340425531916 0.46458231558378116 0.4582555144939862
0.14893617021276595 0.4649534951924607 0.4517443019165114
0.14914893617021277 0.46594412478084907 0.4466994683503659
0.14936170212765956 0.465791344736469 0.4464215734693945
0.14957446808510638 0.46599502855936115 0.44699560332193444
0.1497872340425532 0.46396690765525245 0.44945723503604945
0.15 0.4628780858655339 0.4479950010097664
0.15021276595744681 0.46262823644357587 0.4486685234661498
0.1504255319148936 0.460733512476981 0.44610759651224724
0.15063829787234043 0.45661940480627583 0.4478260486753526
0.15085106382978725 0.4546030922252188 0.4459141499230637
0.15106382978723404 0.45306741918319576 0.4437840535378553
0.15127659574468086 0.4544454808186627 0.43826338600209874
0.15148936170212765 0.4557889594528579 0.4345988212246557
0.15170212765957447 0.4537152288941284 0.42922941393230146
0.15191489361702126 0.45188080117244755 0.42333499140068037
0.15212765957446808 0.45114870481242464 0.41646789997910766
0.1523404255319149 0.44927454771307435 0.4090510488961021
0.1525531914893617 0.447117499856802 0.40058529009648025
0.15276595744680851 0.4459790654497178 0.3972455818509307
0.1529787234042553 0.44483623932971667 0.39932594923892034
0.15319148936170213 0.44294192441073454 0.40194786731185017
0.15340425531914895 0.44211040547142155 0.4075717767159176
0.15361702127659574 0.44211040547142155 0.4126031178181988
0.15382978723404256 0.43768935471893616 0.42606237062580016
0.15404255319148935 0.4344068751007855 0.43802355887034444
0.15425531914893617 0.4333170493404983 0.4491930744003577
0.154468085106383 0.43398908131747777 0.4609222244663041
0.15468085106382978 0.4335702009845608 0.4732689706962621
0.1548936170212766 0.43406586355186877 0.4837949325387172
0.1551063829787234 0.43496602507551574 0.49078073928044263
0.15531914893617021 0.4352711284807034 0.49673624573935604
0.155531914893617 0.4372900530146556 0.5034895244499269
0.15574468085106383 0.43747975057782496 0.5056179775280898
0.15595744680851065 0.4411132227354381 0.511838801711337
0.15617021276595744 0.438096370411527 0.5174483291488052
0.15638297872340426 0.4364911815920585 0.524191700170225
0.15659574468085105 0.4375737714053085 0.5274614118547467
0.15680851063829787 0.4371126635472468 0.5237315530653915
0.1570212765957447 0.43518145447451145 0.5188512863112359
0.15723404255319148 0.4333170493404983 0.5148631068683163
0.1574468085106383 0.43328016546409204 0.5055758245264826
0.1576595744680851 0.42926091579894643 0.5009823963377449
0.15787234042553192 0.4260283817557846 0.49825105156126465
0.15808510638297874 0.42456716995125976 0.49971226336578967
0.15829787234042553 0.4258259921262412 0.48347700364914625
0.15851063829787235 0.4261367459108426 0.4708964071487215
0.15872340425531914 0.4255007327796776 0.46235128855652874
0.15893617021276596 0.4255007327796776 0.4555354017898554
0.15914893617021275 0.4248235338482613 0.4524804824498201
0.15936170212765957 0.42452369320957506 0.4458438723946472
0.1595744680851064 0.4259884151385942 0.43820448032737025
0.15978723404255318 0.43072544287742043 0.43138686139278953
0.16 0.4353453572717098 0.424973087717953
0.1602127659574468 0.43363017877106214 0.42315822165208644
0.16042553191489362 0.4345517793715542 0.4280239151155005
0.16063829787234044 0.4356994709711314 0.43293968925699494
0.16085106382978723 0.4406495123397831 0.44046157038338707
0.16106382978723405 0.4451552988446269 0.4525634491498326
0.16127659574468084 0.44658644127717956 0.45795599266506837
0.16148936170212766 0.45247151765609445 0.46016289630716145
0.16170212765957448 0.4556296662589059 0.46246894324962406
0.16191489361702127 0.45773318758982473 0.46650684171427165
0.1621276595744681 0.4609533852758645 0.4690208520117543
0.16234042553191488 0.4631749801994671 0.4702116571210373
0.1625531914893617 0.46494048612751043 0.471936182207815
0.1627659574468085 0.47108975869827246 0.4647798472524441
0.16297872340425532 0.47832009284108795 0.4507853150506036
0.16319148936170214 0.4818375973179138 0.4321293433339547
0.16340425531914893 0.4858956846048392 0.41506609385388565
0.16361702127659575 0.48196605679528626 0.40418992544695964
0.16382978723404254 0.4793342257931601 0.4020999414261355
0.16404255319148936 0.4750588802639412 0.4041683845920016
0.16425531914893618 0.46967657792848355 0.40816574106918924
0.16446808510638297 0.4648054044540182 0.41701514960814556
0.1646808510638298 0.4612284279755236 0.4238966057564854
0.16489361702127658 0.4582675010941595 0.4254288473475871
0.1651063829787234 0.45608088882971626 0.4259237224286646
0.16531914893617022 0.4535052284238235 0.42288734986181414
0.16553191489361702 0.45355707788011085 0.418795625949024
0.16574468085106384 0.4538348803126526 0.4153458122298303
0.16595744680851063 0.45559917635382546 0.4103425574056173
0.16617021276595745 0.45579875982388757 0.4098975007711252
0.16638297872340424 0.45676599902296044 0.413149591738563
0.16659574468085106 0.45741671273386053 0.418333191922252
0.16680851063829788 0.4599966453373168 0.4304500879603683
0.16702127659574467 0.4603426021615402 0.43987764875555346
0.1672340425531915 0.461412242102611 0.4495008475420205
0.16744680851063828 0.46428784658971906 0.45921538356337355
0.1676595744680851 0.46315594967356966 0.4662228471644474
0.16787234042553192 0.46180361002561465 0.4773463906523694
0.16808510638297872 0.46256408286875006 0.4723024017823631
0.16829787234042554 0.46080041606994354 0.46965690158415313
0.16851063829787233 0.4597651190251292 0.46310424548660234
0.16872340425531915 0.46257987135750017 0.4568627291951119
0.16893617021276597 0.46066322838260076 0.4469081719557742
0.16914893617021276 0.4597949883126794 0.439375027919936
0.16936170212765958 0.4614347433137939 0.4426545379221652
0.16957446808510637 0.4632501383893611 0.44468638655741183
0.1697872340425532 0.46044078139155536 0.4474148951483219
0.17 0.45969711773326827 0.45828051621944377
0.1702127659574468 0.45803695195229027 0.4615042401938597
0.17042553191489362 0.4569161721400953 0.4732273272150216
0.17063829787234042 0.45893914332420094 0.47750289515615
0.17085106382978724 0.45903789708460485 0.48155697280853377
0.17106382978723403 0.4547639783071148 0.4851241173437557
0.17127659574468085 0.45554387120477824 0.4867486937415952
0.17148936170212767 0.4560597974070196 0.4856418224642589
0.17170212765957446 0.45381920098440626 0.48641331886823663
0.17191489361702128 0.4553792440319797 0.49083633063028514
0.17212765957446807 0.4520778620044995 0.4962651324156568
0.1723404255319149 0.45132630926403106 0.49850145458316353
0.1725531914893617 0.44985995225213465 0.5014731657644557
0.1727659574468085 0.4476972881436416 0.5031043235906149
0.17297872340425532 0.44584653415314224 0.5036638983878847
0.17319148936170212 0.44406448461162684 0.5035695280989022
0.17340425531914894 0.4441628981021219 0.49670160453404777
0.17361702127659576 0.4479422906342614 0.49197736386887336
0.17382978723404255 0.44406951045371057 0.47730267690292877
0.17404255319148937 0.44310877616382627 0.46581532862150954
0.17425531914893616 0.44051103663198937 0.4543949187125661
0.17446808510638298 0.4383932206053159 0.4449238649759978
0.17468085106382977 0.4382022471910112 0.43388358414807005
0.1748936170212766 0.43631441700238266 0.4229339833030407
0.1751063829787234 0.43624816805080613 0.4150402315673524
0.1753191489361702 0.43810148135337246 0.40734004429828335
0.17553191489361702 0.4363282238365254 0.38913375908011216
0.17574468085106382 0.4353134023109105 0.37460167270788725
0.17595744680851064 0.4399353569853839 0.3634316447229383
0.17617021276595746 0.4380818518941328 0.35710796287249624
0.17638297872340425 0.44211040547142155 0.3587522011204798
0.17659574468085107 0.44211040547142155 0.3659907465170048
0.17680851063829786 0.44258973290008935 0.37653844599794667
0.17702127659574468 0.4419166155193734 0.3936338721555959
0.1772340425531915 0.44044972498359614 0.40859479362206463
0.1774468085106383 0.4401563263312165 0.4173294003107359
0.1776595744680851 0.44089710281135286 0.4255647072001531
0.1778723404255319 0.4428168661274056 0.42998006225901275
0.17808510638297873 0.4440299521191962 0.4341559589408784
0.17829787234042552 0.44406448461162684 0.4376274511879548
0.17851063829787234 0.44406448461162684 0.4471081139703302
0.17872340425531916 0.44121310587163465 0.4500064620025579
0.17893617021276595 0.4447998393209366 0.45455993489503105
0.17914893617021277 0.4430874450415241 0.4601351062204976
0.17936170212765956 0.4418375486020857 0.46290109331291174
0.17957446808510638 0.43917928676111373 0.4655593551538837
0.1797872340425532 0.4401831348556092 0.46254781087039737
0.18 0.4399411279875764 0.45969711773326827
0.1802127659574468 0.4425090056009593 0.4590311739652991
0.1804255319148936 0.4425624912935261 0.4617240647993669
0.18063829787234043 0.44466696209563467 0.4660369786091933
0.18085106382978725 0.4450415241817294 0.47226673150712284
0.18106382978723404 0.4448752287612629 0.4751634554344432
0.18127659574468086 0.44326444469844295 0.47231367377319144
0.18148936170212765 0.4432927356857586 0.463911939306704
0.18170212765957447 0.44201962789192506 0.4499944116866932
0.18191489361702126 0.44563934097342534 0.441133365901319
0.18212765957446808 0.44600821313453193 0.43966004358319005
0.1823404255319149 0.44406448461162684 0.43930991979618433
0.1825531914893617 0.4428124092282112 0.4420344394063397
0.1827659574468085 0.4450368878128306 0.44455068621222865
0.1829787234042553 0.4468566779377205 0.4509083234829498
0.18319148936170213 0.44417748675255514 0.4565776621214133
0.18340425531914895 0.44986121458499934 0.4599591475222401
0.18361702127659574 0.44962387288968186 0.46444801404810626
0.18382978723404256 0.4539358790905098 0.46795145469021165
0.18404255319148935 0.4571264200134484 0.46905934165740193
0.18425531914893617 0.45733818559063594 0.4753999367268398
0.184468085106383 0.4583222969497235 0.4782608695652173
0.18468085106382978 0.4617999936391841 0.4775103120080085
0.1848936170212766 0.46397951281661975 0.4740613696073653
0.1851063829787234 0.46618314092059004 0.46564207699396987
0.1853191489361702 0.46763690291945115 0.454452223439464
0.185531914893617 0.46509117200845485 0.44497531999442846
0.18574468085106383 0.46287270565961175 0.43869118562308285
0.18595744680851065 0.46435408920024 0.44040593072673695
0.18617021276595744 0.46627716017590004 0.44061489680514665
0.18638297872340426 0.4652776025744007 0.43805227644318184
0.18659574468085105 0.4648691067855324 0.43498433727895214
0.18680851063829787 0.4655593551538837 0.4327934765125311
0.1870212765957447 0.4656818953944756 0.42714846131840295
0.18723404255319148 0.4675111964764226 0.4225629006163706
0.1874468085106383 0.4666868027973235 0.42008971957907376
0.1876595744680851 0.4665363947239862 0.4203562834620162
0.18787234042553191 0.46300313141377225 0.41943778049242664
0.18808510638297873 0.4593831825912731 0.41607950636476404
0.18829787234042553 0.45800269558372314 0.412799218368344
0.18851063829787235 0.4585286069120868 0.41318216087050147
0.18872340425531914 0.45688885191097245 0.4164616708727303
0.18893617021276596 0.4561176854159466 0.42189388550486523
0.18914893617021278 0.45298395745652714 0.42692798063500137
0.18936170212765957 0.4490940525415337 0.43067467078897836
0.1895744680851064 0.44970481266721235 0.43189619104033594
0.18978723404255318 0.45126220485781904 0.42877872223552443
0.19 0.4528578407425501 0.4241003318437223
0.1902127659574468 0.45261316193868883 0.42195791705971664
0.19042553191489361 0.4510474934032577 0.41806770102129137
0.19063829787234043 0.4534987151123754 0.4246042922456049
0.19085106382978723 0.45589958936227803 0.42687720547942776
0.19106382978723405 0.4553887665424466 0.4315865093614243
0.19127659574468084 0.45524694433206864 0.4374248880669861
0.19148936170212766 0.45990184669454426 0.4423617396689749
0.19170212765957448 0.4616586291046455 0.4528745632626875
0.19191489361702127 0.46492811984950505 0.46023091743862143
0.1921276595744681 0.467767821803903 0.4675404412735247
0.19234042553191488 0.46636846419196953 0.47654087900836717
0.1925531914893617 0.4655593551538837 0.481806702457184
0.19276595744680852 0.4655593551538837 0.48549915725161696
0.19297872340425531 0.4632809493406806 0.48819342860274223
0.19319148936170213 0.45912163224814995 0.4885023919112812
0.19340425531914893 0.45470932580916956 0.489676603837276
0.19361702127659575 0.4510449202142725 0.492218050532712
0.19382978723404254 0.4491874699849713 0.49315425063958773
0.19404255319148936 0.45222022218810515 0.4961870028427216
0.19425531914893618 0.4474409528918358 0.49501899211359507
0.19446808510638297 0.4420869610819892 0.4946845120987138
0.1946808510638298 0.43917928676111373 0.49441717933192547
0.19489361702127658 0.43917928676111373 0.48877361312633366
0.1951063829787234 0.4385326618710494 0.4860913905960501
0.19531914893617022 0.4395603483864251 0.48193124376663643
0.19553191489361701 0.441133365901319 0.47763374354953414
0.19574468085106383 0.441133365901319 0.4758709018273437
0.19595744680851063 0.4401237986701972 0.4712914819304227
0.19617021276595745 0.43941416456653565 0.4661041674615577
0.19638297872340427 0.4400821253737545 0.46209640261824514
0.19659574468085106 0.4395720233367455 0.45522386393429326
0.19680851063829788 0.4394598234728113 0.44922054133215955
0.19702127659574467 0.44015460239223836 0.4450402312274958
0.1972340425531915 0.4374693335218226 0.44302627957468393
0.19744680851063828 0.4369069796813616 0.4411221880255883
0.1976595744680851 0.43811528666550265 0.4393097275493765
0.19787234042553192 0.4382022471910112 0.4407234729256687
0.19808510638297872 0.43684172509618346 0.4445346711383885
0.19829787234042554 0.4355724677944106 0.45007276529020435
0.19851063829787233 0.4352711284807034 0.4586536507362105
0.19872340425531915 0.4344162010413995 0.4666586493784985
0.19893617021276597 0.43429408891060084 0.4751657082369868
0.19914893617021276 0.4324254606278113 0.47949426170756665
0.19936170212765958 0.4338871502494804 0.48254909511828237
0.19957446808510637 0.43595296313034887 0.48412310698583294
0.1997872340425532 0.4364656343126001 0.4797432522688784
0.2 0.4376966371104646 0.4662971305870515
0.2002127659574468 0.43722520762090866 0.4529647687142421
0.20042553191489362 0.4400908281978904 0.43892001044270357
0.20063829787234042 0.4419581332773406 0.43444636110468177
0.20085106382978724 0.44211040547142155 0.4324320581896741
0.20106382978723403 0.4440024946047153 0.44162928595661116
0.20127659574468085 0.44292255214633236 0.45076350430924894
0.20148936170212767 0.4440014470427688 0.4603274649237173
0.20170212765957446 0.4500988572553969 0.46359412165991337
0.20191489361702128 0.4468147607813014 0.4682250748543684
0.20212765957446807 0.4493199696266667 0.4682540086231429
0.2023404255319149 0.4489718383368903 0.46803518789126597
0.2025531914893617 0.44855359452977045 0.464212588173053
0.2027659574468085 0.45100020744039054 0.4633117447696596
0.20297872340425532 0.453461389518374 0.4604440993218255
0.20319148936170212 0.45294196332452313 0.45969711773326827
0.20340425531914894 0.45395751104238163 0.4586710258712739
0.20361702127659576 0.4584611892618872 0.45611877676976476
0.20382978723404255 0.45723317073754915 0.4497785284567983
0.20404255319148937 0.45805028696057465 0.4390686978259786
0.20425531914893616 0.45720467226893974 0.4274149109864792
0.20446808510638298 0.457743038593063 0.4188112950711709
0.20468085106382977 0.4627917578027453 0.41320597747381044
0.2048936170212766 0.4640984027940838 0.4147440835178411
0.2051063829787234 0.4636052760136786 0.41739918498493606
0.2053191489361702 0.46454551230211916 0.4261465428148222
0.20553191489361702 0.46276005695395495 0.4331309328326701
0.20574468085106382 0.4644102100667808 0.44544132874762976
0.20595744680851064 0.4644393977074589 0.4552172879475688
0.20617021276595746 0.46501411800960213 0.46817210615683086
0.20638297872340425 0.465679423263866 0.4762015185178497
0.20659574468085107 0.4680169527704736 0.48018495132275557
0.20680851063829786 0.46948106167886156 0.4802014004608551
0.20702127659574468 0.4672584282397451 0.469934540895709
0.2072340425531915 0.46636083499176667 0.46092603585880537
0.2074468085106383 0.4665363947239862 0.45061046159297125
0.2076595744680851 0.467513434294089 0.437950901678167
0.2078723404255319 0.4680928089931902 0.43118126037219323
0.20808510638297872 0.47163838983345435 0.4234397069147999
0.20829787234042554 0.4706872462347312 0.41942457212032813
0.20851063829787234 0.46476277407940036 0.4184809972933402
0.20872340425531916 0.4652541032431974 0.41783704217420004
0.20893617021276595 0.4634534305355744 0.41871207094832746
0.20914893617021277 0.46110297271450434 0.4194955568886841
0.20936170212765956 0.45797422751011135 0.4236883900489512
0.20957446808510638 0.45676599902296044 0.42706279071337705
0.2097872340425532 0.456691662450191 0.4295947324920116
0.21 0.45512894883773203 0.4335015165231587
0.2102127659574468 0.45345651425620265 0.43429408891060084
0.2104255319148936 0.4495510269271859 0.43319181763881287
0.21063829787234042 0.447412837718157 0.4306710721855059
0.21085106382978724 0.4491169734243074 0.4287179341230529
0.21106382978723404 0.45188080117244755 0.4307080250492132
0.21127659574468086 0.45188080117244755 0.43711433027659
0.21148936170212765 0.45188080117244755 0.44413023075509916
0.21170212765957447 0.45274643176618684 0.45044610038848587
0.2119148936170213 0.4567831383048505 0.4528921193063303
0.21212765957446808 0.45720458941277387 0.4537350215221769
0.2123404255319149 0.4576260405206972 0.45457792373802364
0.2125531914893617 0.45701859801794875 0.45408747930764093
0.2127659574468085 0.4527299683206428 0.45302767417218914
0.2129787234042553 0.44668697249838085 0.4528578407425501
0.21319148936170212 0.44409792354782746 0.45093720053854547
0.21340425531914894 0.44295780133089846 0.450838939747032
0.21361702127659574 0.44106984961769724 0.4498843778431611
0.21382978723404256 0.4380891812230391 0.4477465109560929
0.21404255319148935 0.43722520762090866 0.4468752910053457
0.21425531914893617 0.43690882794170083 0.4502431017114501
0.214468085106383 0.43666756699701637 0.4513231605485551
0.21468085106382978 0.43670340976946814 0.4513590033210069
0.2148936170212766 0.43624816805080613 0.44841207765448277
0.2151063829787234 0.4369730228344609 0.4426464746200058
0.2153191489361702 0.4380084034097587 0.4387837785347686
0.21553191489361703 0.4382022471910112 0.4347117262304565
0.21574468085106382 0.4362570685235541 0.43429408891060084
0.21595744680851064 0.4371359116052695 0.4413960373463083
0.21617021276595744 0.43722520762090866 0.43628946385112527
0.21638297872340426 0.4354590206386318 0.4414152041382116
0.21659574468085105 0.4368327424036716 0.44426071722024535
0.21680851063829787 0.4355723865136643 0.4450415241817294
0.2170212765957447 0.4370709690277444 0.44298452173938363
0.21723404255319148 0.4366426820990348 0.4401563263312165
0.2174468085106383 0.4377746254430049 0.439530452090641
0.2176595744680851 0.4384473221562153 0.4435710743905047
0.2178723404255319 0.4382022471910112 0.4525940137682629
0.21808510638297873 0.4391476849256094 0.4651801331278319
0.21829787234042553 0.43722520762090866 0.478865622084949
0.21851063829787234 0.4381263390828701 0.48787944904996083
0.21872340425531914 0.44096376207270777 0.49785420777481315
0.21893617021276596 0.438593878476304 0.5054282778148318
0.21914893617021278 0.4401467229569625 0.5114610082001976
0.21936170212765957 0.4405566635166954 0.5174712107812758
0.2195744680851064 0.4442599746000648 0.5182217469452045
0.21978723404255318 0.4412666834989463 0.5213023525800591
0.22 0.4428536499885907 0.5123374634761279
0.2202127659574468 0.441133365901319 0.5073640300253771
0.2204255319148936 0.441133365901319 0.49990530846500036
0.22063829787234043 0.4418612828628993 0.4924441523850273
0.22085106382978723 0.44301865121782535 0.481614035243264
0.22106382978723405 0.44158331665962886 0.4717301447884306
0.22127659574468084 0.4426563971955585 0.46205351705271897
0.22148936170212766 0.4425047164968348 0.4571603100483737
0.22170212765957448 0.4446792660685097 0.45740821417223243
0.22191489361702127 0.44826073024955615 0.45325870559761466
0.2221276595744681 0.44894968246213973 0.44505116728156763
0.22234042553191488 0.45183465868131506 0.4411795083924515
0.2225531914893617 0.4510913986052355 0.4333170493404983
0.22276595744680852 0.4528578407425501 0.43207434690688246
0.2229787234042553 0.4541188669629898 0.4255770393351803
0.22319148936170213 0.4585009055769351 0.42087484720546736
0.22340425531914893 0.45451065640833666 0.41685387494244835
0.22361702127659575 0.45487225317632723 0.4072665630954129
0.22382978723404254 0.4571329725145355 0.39349685033095183
0.22404255319148936 0.45947557876717426 0.38739618954567656
0.22425531914893618 0.46210293142002895 0.38818414708099697
0.22446808510638297 0.46082125897400783 0.39084216410321404
0.2246808510638298 0.4624161080865345 0.39801509867486806
0.22489361702127658 0.4606294793606 0.4052062915213773
0.2251063829787234 0.4596925375346863 0.40990016104810983
0.22531914893617022 0.4587057256153925 0.4167360817443003
0.225531914893617 0.4572860029570245 0.4195755270610365
0.22574468085106383 0.4583868886335625 0.42223642453976656
0.22595744680851063 0.4593046893881 0.4274709370911544
0.22617021276595745 0.45913894658798193 0.4328981809156819
0.22638297872340427 0.46067095112260686 0.43136617638105695
0.22659574468085106 0.46542054701721347 0.43452723000952154
0.22680851063829788 0.46447311076381 0.43802217376093855
0.22702127659574467 0.46224771972944784 0.44325195561380587
0.2272340425531915 0.46165119687347334 0.4491412548525737
0.22744680851063828 0.4580821526618646 0.45375899697163186
0.2276595744680851 0.4575445824378454 0.4563690867125252
0.22787234042553192 0.4534029780695507 0.4637100958605801
0.22808510638297871 0.4528578407425501 0.471336847322232
0.22829787234042553 0.4519678029426527 0.4723116303743967
0.22851063829787233 0.45342955797836665 0.47161216498643815
0.22872340425531915 0.45518965404972944 0.4709003686367808
0.22893617021276597 0.45505523107317386 0.4666998671204081
0.22914893617021276 0.45676599902296044 0.4640268236962599
0.22936170212765958 0.45676599902296044 0.46262823644357587
0.22957446808510637 0.4602688397575788 0.4605265320028049
0.2297872340425532 0.463241834689789 0.4676503068148462
0.23 0.4609237286580754 0.4748306081455005
0.2302127659574468 0.4606257821088842 0.48218515291045655
0.23042553191489362 0.4576230462703077 0.48331405666758775
0.23063829787234041 0.45264026934317164 0.4892238445086238
0.23085106382978723 0.4490506099959545 0.4766600367933637
0.23106382978723405 0.4450126646395032 0.47040126369105756
0.23127659574468085 0.4427197394859872 0.4653072009608673
0.23148936170212767 0.4422006497104614 0.4602975332878757
0.23170212765957446 0.44289253160304765 0.4499193048990813
0.23191489361702128 0.443547600400339 0.44101358365734145
0.23212765957446807 0.443160983721861 0.4322289440197076
0.2323404255319149 0.4384835897816049 0.42153775787055087
0.2325531914893617 0.43839649598675373 0.4131954434150159
0.2327659574468085 0.4399988821316183 0.40571764140564803
0.23297872340425532 0.44579385652058773 0.4010366306749633
0.23319148936170211 0.4487567418947601 0.39907960892679084
0.23340425531914893 0.4453047887666663 0.40184117142926595
0.23361702127659575 0.44847814436034833 0.40823769941872956
0.23382978723404255 0.4511497074925061 0.4157370810691939
0.23404255319148937 0.4512539442788113 0.4243031678316844
0.23425531914893616 0.4502431288823053 0.4340611391202781
0.23446808510638298 0.4493691528796162 0.43722520762090866
0.2346808510638298 0.4499152027165819 0.4396390082570142
0.2348936170212766 0.45142062131908284 0.4446947040551114
0.2351063829787234 0.45246530743580055 0.4505026409020526
0.2353191489361702 0.45482815878511595 0.4574552495085371
0.23553191489361702 0.4571642128316484 0.4631352511802445
0.23574468085106381 0.4569917145151336 0.46758761189549886
0.23595744680851063 0.460166688504819 0.4769921975688378
0.23617021276595745 0.46545155255931336 0.4868601810259142
0.23638297872340425 0.46857404721687707 0.49676688870660507
0.23659574468085107 0.4681687023139449 0.5080793726643058
0.23680851063829786 0.46065037416302157 0.515258988922108
0.23702127659574468 0.45231031120736837 0.518502001784484
0.2372340425531915 0.44404587750790975 0.5187987081726163
0.2374468085106383 0.43761737102812326 0.5191004498059187
0.2376595744680851 0.4325326393580524 0.516850459676315
0.2378723404255319 0.42899641972664126 0.5138106729133478
0.23808510638297872 0.4257979278944351 0.5099223959615101
0.23829787234042554 0.42939613794835174 0.49783992030247776
0.23851063829787233 0.42845512616060105 0.48826401197239977
0.23872340425531915 0.429557410494594 0.47023343709845083
0.23893617021276595 0.4317170159940037 0.452602547309462
0.23914893617021277 0.43443126299033535 0.43541671306641866
0.23936170212765956 0.437561558435577 0.42708644823131203
0.23957446808510638 0.43997399706149 0.42629544308005385
0.2397872340425532 0.4435391697326042 0.4321192392065683
0.24 0.4446130506008718 0.43965965639466353
0.2402127659574468 0.4469743634627485 0.4437317248018639
0.2404255319148936 0.4464898437556095 0.44258168547519916
0.24063829787234042 0.44433630449769107 0.43538136845485775
0.24085106382978724 0.4506383836653189 0.4267810614206669
0.24106382978723404 0.44406448461162684 0.4188516811985428
0.24127659574468086 0.44375466759118787 0.4071394779667335
0.24148936170212765 0.44306045143238 0.40160375372588036
0.24170212765957447 0.4460185637518319 0.39852193343080067
0.2419148936170213 0.44489596401521037 0.4072905818681158
0.24212765957446808 0.44166282767956283 0.41905444425656135
0.2423404255319149 0.4413131487980459 0.4266184927032729
0.2425531914893617 0.43947583634923726 0.4340193870239105
0.2427659574468085 0.43757081250366253 0.43751103742550346
0.2429787234042553 0.43781606142614315 0.44233822382765275
0.24319148936170212 0.4430576715087645 0.4492900204597635
0.24340425531914894 0.4508421835748863 0.4567044209955018
0.24361702127659574 0.4473081282688521 0.461098526366179
0.24382978723404256 0.45229461244194713 0.465237510410682
0.24404255319148935 0.44908564711306304 0.4655140336035759
0.24425531914893617 0.45493702113084433 0.4632299722694111
0.244468085106383 0.45647756279948704 0.4597560195078652
0.24468085106382978 0.4590569330883011 0.45676599902296044
0.2448936170212766 0.46058056042355516 0.45764944171324734
0.2451063829787234 0.46110834533677725 0.4592629296998617
0.2453191489361702 0.46455463676165637 0.4648710903443158
0.24553191489361703 0.46792864014416863 0.47238629326472703
0.24574468085106382 0.47071016354593476 0.4765724009665502
0.24595744680851064 0.47218975032433413 0.47728382999511476
0.24617021276595744 0.4715617825839787 0.4730995821919985
0.24638297872340426 0.4686056016147071 0.4733372957978659
0.24659574468085105 0.4674475292420646 0.4661409644118401
0.24680851063829787 0.4661854319359742 0.45962126893933475
0.2470212765957447 0.4654179488710531 0.45258356445003
0.24723404255319148 0.467513434294089 0.4439463074415856
0.2474468085106383 0.46654414268089867 0.4304556622424012
0.2476595744680851 0.4679002591224335 0.4093028286643807
0.2478723404255319 0.47015305672496394 0.38667833442304417
0.24808510638297873 0.47122841634860335 0.3672312357034454
0.24829787234042552 0.47408057134189296 0.35242499853784154
0.24851063829787234 0.47728382999511476 0.348327594244976
0.24872340425531914 0.4777481133575685 0.3501041421959696
0.24893617021276596 0.4807496468686652 0.3592273131504131
0.24914893617021278 0.47732795815717866 0.3733110540770892
0.24936170212765957 0.4702416892201377 0.3852578862968084
0.2495744680851064 0.4628651764145857 0.39542459592537055
0.24978723404255318 0.45650416580137015 0.4049744095953874
0.25 0.4519350358027157 0.4149343516845345
0.2502127659574468 0.4472105667032236 0.42137761111797806
0.25042553191489364 0.44433314809230107 0.42931127670749347
0.25063829787234043 0.44311848191997166 0.43984595754674094
0.2508510638297872 0.4431467220559587 0.44948317559205087
0.251063829787234 0.44399199384500454 0.4582021467816709
0.25127659574468086 0.44100578098022225 0.478603319004754
0.25148936170212766 0.4406243338845243 0.4962335404533982
0.25170212765957445 0.44211040547142155 0.5087981081116564
0.2519148936170213 0.4416599231766483 0.5147156335812375
0.2521276595744681 0.4444975198166277 0.511624560017039
0.2523404255319149 0.4449941204381863 0.5071199668288126
0.2525531914893617 0.44329158508530864 0.5046409379579873
0.2527659574468085 0.4465999659166896 0.5028846775204046
0.2529787234042553 0.4470033477500093 0.5007250352495021
0.2531914893617021 0.448086667907298 0.5008959902600825
0.25340425531914895 0.4485880717385285 0.509164525084889
0.25361702127659574 0.44717356013540904 0.5077500134817696
0.25382978723404254 0.44885504347943905 0.5096523211187677
0.2540425531914894 0.4460209514101233 0.5134438447220762
0.2542553191489362 0.44690946444947327 0.5173424523693209
0.25446808510638297 0.4450415241817294 0.5173424523693209
0.25468085106382976 0.44480447410227336 0.5161572019720408
0.2548936170212766 0.44338699072279386 0.5094085320190597
0.2551063829787234 0.44166841100052157 0.5023379149751845
0.2553191489361702 0.43948844924316127 0.49250819638678833
0.25553191489361704 0.4382022471910112 0.48542122644255736
0.25574468085106383 0.4404576694253084 0.4828447243216383
0.2559574468085106 0.43698294641208396 0.4780186083563926
0.2561702127659574 0.43531747934863824 0.47821451869728243
0.25638297872340426 0.4370099709856464 0.480161139546607
0.25659574468085106 0.43300494978202203 0.4786137100183675
0.25680851063829785 0.431362970200293 0.4755918641396251
0.2570212765957447 0.43026440252188625 0.4752082227466054
0.2572340425531915 0.42796017545266 0.4733756717147044
0.2574468085106383 0.4285828007161178 0.4711196941222342
0.25765957446808513 0.4313751358062623 0.4629133642803798
0.2578723404255319 0.4315922534615695 0.45371506726265903
0.2580851063829787 0.431362970200293 0.44679646850239607
0.2582978723404255 0.4323087983667396 0.44128942291960005
0.25851063829787235 0.4324123296760419 0.4418934457544833
0.25872340425531914 0.4334935669431029 0.4393558043637184
0.25893617021276594 0.43316310757720167 0.43789436366441814
0.2591489361702128 0.4326992320890168 0.4277134068527432
0.2593617021276596 0.43712488359999063 0.4149168838594652
0.25957446808510637 0.43915474560009304 0.40219903006334
0.2597872340425532 0.44188884036490456 0.38983699421974316
0.26 0.4444498938442452 0.386123334806832
0.2602127659574468 0.4466190711515496 0.38878547043030454
0.2604255319148936 0.44966201669653816 0.3973495088096927
0.26063829787234044 0.451827857033551 0.41304629101652807
0.26085106382978723 0.44937138280850825 0.42805914864866207
0.261063829787234 0.4524442619982391 0.44382162773934025
0.2612765957446809 0.45059070544609997 0.45665238571885614
0.26148936170212767 0.44992672203224227 0.4659300151617639
0.26170212765957446 0.4509445409752714 0.4740069193049984
0.26191489361702125 0.4500400135350061 0.4797382135117033
0.2621276595744681 0.44894968246213973 0.4826315096510676
0.2623404255319149 0.4505989765659245 0.4839707144676228
0.2625531914893617 0.45183673061960555 0.48412310698583294
0.26276595744680853 0.4517536337749639 0.47800653477025007
0.2629787234042553 0.44992672203224227 0.4731518280851446
0.2631914893617021 0.45020655696053596 0.46499491993944553
0.26340425531914896 0.45054578907355486 0.4587200781631655
0.26361702127659575 0.44992672203224227 0.4545675767840646
0.26382978723404255 0.4504495381761526 0.4505181308938707
0.26404255319148934 0.4509037616023448 0.45188080117244755
0.2642553191489362 0.4509037616023448 0.44821284278759155
0.264468085106383 0.4533222844852838 0.4502203004991864
0.26468085106382977 0.4538348803126526 0.4509037616023448
0.2648936170212766 0.4548695806659096 0.4538637107042298
0.2651063829787234 0.45717811660252766 0.45426242977666553
0.2653191489361702 0.4610710186769075 0.44884291018688593
0.265531914893617 0.4655593551538837 0.4399928299369955
0.26574468085106384 0.46614489178053364 0.4301953325240515
0.26595744680851063 0.46785082554098995 0.41690423121325393
0.2661702127659574 0.4684904738641915 0.406320564557101
0.2663829787234043 0.4689292978862059 0.3966865033069689
0.26659574468085107 0.4690034943012704 0.3871281756288741
0.26680851063829786 0.4684904738641915 0.3774521737315265
0.2670212765957447 0.4696243961007291 0.36933882928452477
0.2672340425531915 0.46914095958006097 0.3610121881640118
0.2674468085106383 0.4692459711026433 0.358085002442599
0.2676595744680851 0.46946751343429405 0.3468862447664528
0.26787234042553193 0.46515318396638133 0.34106915856335246
0.2680851063829787 0.4636307646090213 0.34335294310503206
0.2682978723404255 0.46149302638724 0.35789881530366296
0.26851063829787236 0.4593379544951351 0.3702904093357874
0.26872340425531915 0.4568875497549458 0.39285634700248684
0.26893617021276595 0.45559055187250574 0.4190207751205193
0.26914893617021274 0.45824549983629004 0.44122630895582343
0.2693617021276596 0.4579034180598404 0.4616659596429117
0.2695744680851064 0.458042835703779 0.47806674897033125
0.26978723404255317 0.45729917387429536 0.4909610410045165
0.27 0.4575814268119462 0.506124919521646
0.2702127659574468 0.4604985752305336 0.5168157061508093
0.2704255319148936 0.4606299479948383 0.5252029782386741
0.27063829787234045 0.45954862754520004 0.5264327888763808
0.27085106382978724 0.4589750860729297 0.5280898876404494
0.27106382978723403 0.45969711773326827 0.5270020463680264
0.2712765957446808 0.4606356596867341 0.5228124140464769
0.2714893617021277 0.45818382556479353 0.5144946188984957
0.27170212765957447 0.4585353185498901 0.5056970469587965
0.27191489361702126 0.46208458759911825 0.4996847819448012
0.2721276595744681 0.4617226706843986 0.49425087174148513
0.2723404255319149 0.4588632049607626 0.4868395354997451
0.2725531914893617 0.46219901650971146 0.48061969503037255
0.2727659574468085 0.4584265136089328 0.4764367605788911
0.27297872340425533 0.4532936230901415 0.4726539954180229
0.2731914893617021 0.45039880416810707 0.46997247086853183
0.2734042553191489 0.4484117046292655 0.4719595704073735
0.27361702127659576 0.4468071712814806 0.4731872396742506
0.27382978723404255 0.44555023257086396 0.4731011289160539
0.27404255319148935 0.443835167378718 0.47624701978654504
0.2742553191489362 0.4436253635562163 0.47950686839266615
0.274468085106383 0.444750083382523 0.48108927110304184
0.2746808510638298 0.4432846860123128 0.48158647021710227
0.27489361702127657 0.4412701586474425 0.475779109787756
0.2751063829787234 0.4421118116095337 0.4665265517572012
0.2753191489361702 0.44366211352868196 0.45567443832316396
0.275531914893617 0.4458872015185302 0.4473896900218398
0.27574468085106385 0.44793352900780387 0.44265759608282274
0.27595744680851064 0.44967445456534794 0.4396838216949025
0.27617021276595743 0.4509037616023448 0.4362838480033392
0.2763829787234042 0.4511718877651032 0.43375783658508416
0.2765957446808511 0.4515590535361266 0.4320182621340748
0.27680851063829787 0.44884786758372075 0.42869618691115496
0.27702127659574466 0.4478184960395469 0.42179887980691827
0.2772340425531915 0.4459502820754296 0.416639094972352
0.2774468085106383 0.4403630758939193 0.412799218368344
0.2776595744680851 0.43402801256267426 0.4125331420204174
0.27787234042553194 0.43239600081405744 0.41090113027180036
0.27808510638297873 0.4299102841967581 0.4108451392281387
0.2782978723404255 0.42592841097063694 0.4129334272818094
0.2785106382978723 0.42452369320957506 0.4137762579384465
0.27872340425531916 0.42609873875565973 0.4145637807114888
0.27893617021276595 0.428720793512194 0.4160192791008602
0.27914893617021275 0.43012296312459863 0.41742144871326503
0.2793617021276596 0.4270828563331751 0.4176844162188569
0.2795744680851064 0.4278779901442364 0.4170901018777172
0.2797872340425532 0.4288235469276066 0.4172927207812357
0.27999999999999997 0.42964105850839895 0.42070743376489095
0.2802127659574468 0.431015601913646 0.4257179704866475
0.2804255319148936 0.4333632736142611 0.4321221865524747
0.2806382978723404 0.4336203176359066 0.43429408891060084
0.28085106382978725 0.4360222808250306 0.4376756282662661
0.28106382978723404 0.4379546168482987 0.4428263328980641
0.28127659574468084 0.4382022471910112 0.4448539332935958
0.2814893617021277 0.4390299573149661 0.44835236467754913
0.2817021276595745 0.442587066315671 0.44894968246213973
0.28191489361702127 0.44398424039113926 0.4534336592102147
0.28212765957446806 0.44868534787853465 0.4566073982727974
0.2823404255319149 0.44894968246213973 0.45676599902296044
0.2825531914893617 0.4497663792232557 0.45676599902296044
0.2827659574468085 0.4528569633814452 0.4582311196975618
0.28297872340425534 0.45586161314278084 0.46074681099329373
0.28319148936170213 0.45466255426810476 0.4581454556153806
0.2834042553191489 0.45538275719645915 0.45986175279057334
0.2836170212765957 0.4557889594528579 0.4606741573033708
0.28382978723404256 0.456725635693563 0.4634841860254863
0.28404255319148936 0.4575719390879529 0.46257120327520584
0.28425531914893615 0.4552955076743423 0.461288506029783
0.284468085106383 0.459026881297227 0.45841327502910406
0.2846808510638298 0.46101444659009455 0.45727643295304604
0.2848936170212766 0.4624023098271997 0.460600824198773
0.2851063829787234 0.46327225550310597 0.464685981766767
0.2853191489361702 0.46555004757881957 0.4684951276517237
0.285531914893617 0.45987602659721205 0.4716005014384431
0.2857446808510638 0.46198798489915105 0.4737124597403821
0.28595744680851065 0.4632942743811889 0.47501874922242
0.28617021276595744 0.46015546030219306 0.4725698982857213
0.28638297872340424 0.46016665765917547 0.462018825850435
0.2865957446808511 0.4653067435157867 0.4534256939204045
0.2868085106382979 0.46454998327117913 0.44497685955652544
0.28702127659574467 0.46426017270815334 0.43841347212702336
0.28723404255319146 0.4646481408077689 0.43260331066634666
0.2874468085106383 0.46292449596625695 0.4263895113477205
0.2876595744680851 0.4604245249286106 0.4206069389575893
0.2878723404255319 0.4573795363375923 0.4139863758652592
0.28808510638297874 0.46103257553351046 0.40943799778186857
0.28829787234042553 0.4655045223523648 0.4040058622374205
0.2885106382978723 0.46375786005970054 0.4040058622374205
0.28872340425531917 0.4644362513770753 0.405667812964214
0.28893617021276596 0.46458231558378116 0.4091859944281124
0.28914893617021276 0.46540339053221547 0.41561562429707677
0.28936170212765955 0.4630299032881455 0.4251388828678815
0.2895744680851064 0.4665291278845101 0.4342795552316485
0.2897872340425532 0.4679323763979562 0.4387603446572465
0.29 0.46636576839790755 0.4437699503458392
0.2902127659574468 0.4655593551538837 0.45089958491228693
0.2904255319148936 0.4646658620319152 0.4551751199956055
0.2906382978723404 0.4636052760136786 0.460721455456273
0.2908510638297872 0.4630003994011981 0.4709099803141136
0.29106382978723405 0.46304751751709305 0.47937869584097564
0.29127659574468084 0.46437294245417476 0.4916901948457368
0.29148936170212764 0.45935130730551266 0.5034388713864574
0.2917021276595745 0.45911112260630477 0.5105054615295842
0.2919148936170213 0.45887034907607516 0.5151252598134287
0.29212765957446807 0.45733673882692816 0.5134342940889105
0.2923404255319149 0.45550297275912793 0.5104872328066348
0.2925531914893617 0.45538214189994203 0.5060792632357627
0.2927659574468085 0.45433016563227563 0.5050090191804186
0.2929787234042553 0.45145593823832064 0.5053418892101019
0.29319148936170214 0.4525051102541614 0.5064186518539981
0.29340425531914893 0.44562671185741715 0.510210581540759
0.2936170212765957 0.44406448461162684 0.5125600172646494
0.29382978723404257 0.4438315415064298 0.5167148274570139
0.29404255319148936 0.44188705380504517 0.5190731798431498
0.29425531914893616 0.44177979823413377 0.5163801949409793
0.29446808510638295 0.44142972282693316 0.512457254518808
0.2946808510638298 0.4402135514058256 0.5057345343281814
0.2948936170212766 0.44058757580793184 0.4964809995471511
0.2951063829787234 0.44134019269359354 0.48915803723735024
0.29531914893617023 0.4407237130056681 0.47706368509864
0.295531914893617 0.4393577923677938 0.46698740000732397
0.2957446808510638 0.4400848717908464 0.451975579707896
0.29595744680851066 0.4382387699715844 0.4368234570346036
0.29617021276595745 0.4394653209109285 0.4249045845257989
0.29638297872340424 0.4403884154050839 0.4129988519257895
0.29659574468085104 0.43855674217455387 0.3993109820708403
0.2968085106382979 0.4387161892367759 0.3851823909668412
0.2970212765957447 0.4382022471910112 0.3754303832553421
0.29723404255319147 0.4354940660316407 0.37040946584434997
0.2974468085106383 0.43505396613198755 0.37284898616937706
0.2976595744680851 0.4352711284807034 0.3737176355642404
0.2978723404255319 0.4333414964306049 0.3814361637646348
0.29808510638297875 0.4355487085495602 0.3875294702510013
0.29829787234042554 0.4378126206483159 0.40009175753028164
0.29851063829787233 0.4365461313877832 0.41029772721364743
0.2987234042553191 0.43681943606793483 0.417759194843521
0.298936170212766 0.4372805214648185 0.41906700480814607
0.29914893617021276 0.43695981472335943 0.4145783350497273
0.29936170212765956 0.43624816805080613 0.4120737126834579
0.2995744680851064 0.43624816805080613 0.41182217879824123
0.2997872340425532 0.43345046714662905 0.4155524466704773
0.3 0.43624816805080613 0.41957631325424494
0.3002127659574468 0.4364167009721425 0.4181558570249502
0.30042553191489363 0.4377695568619617 0.4146416385965455
0.3006382978723404 0.44031611515935776 0.41030640760058257
0.3008510638297872 0.44308024607973134 0.4069441799095212
0.30106382978723406 0.44406448461162684 0.4077295338001371
0.30127659574468085 0.4461570078747721 0.41516862987736963
0.30148936170212765 0.4461969545423682 0.428066850353219
0.3017021276595745 0.4487146603564203 0.44117031704854387
0.3019148936170213 0.4508793985798018 0.45808412090866485
0.3021276595744681 0.4495317016111485 0.4727383273114784
0.30234042553191487 0.44651795897189 0.4819084548005918
0.3025531914893617 0.44469602620750764 0.48412310698583294
0.3027659574468085 0.44316026606483416 0.4863836533528145
0.3029787234042553 0.44211040547142155 0.48900830483634583
0.30319148936170215 0.4403810907178099 0.4855496753291226
0.30340425531914894 0.43917928676111373 0.47919612255172234
0.30361702127659573 0.4413637255926815 0.47582753744073636
0.3038297872340425 0.4413441052273425 0.47149824963451425
0.3040425531914894 0.44434163801830423 0.4704445530043966
0.30425531914893617 0.4435107240723401 0.4689137528950075
0.30446808510638296 0.44798562616091153 0.4660413833044978
0.3046808510638298 0.45166760907581 0.4664653306917737
0.3048936170212766 0.46543316307825294 0.46155655281675023
0.3051063829787234 0.46165119687347334 0.4587200781631655
0.30531914893617024 0.4614387507067481 0.4589325243298908
0.30553191489361703 0.46089638262043553 0.4601415683673978
0.3057446808510638 0.4622876420591142 0.46292408724475503
0.3059574468085106 0.4644504569346814 0.46767230745639077
0.30617021276595746 0.4660450602341866 0.4723873733256085
0.30638297872340425 0.4681198880097797 0.47435271128480694
0.30659574468085105 0.4688723737985837 0.472567292377676
0.3068085106382979 0.4704131749197552 0.47334429363006286
0.3070212765957447 0.4740259473209295 0.4730505339115919
0.3072340425531915 0.4753297508549097 0.47376341715614556
0.30744680851063827 0.476049880731731 0.47363258140798564
0.3076595744680851 0.47985397418787845 0.4705379247044114
0.3078723404255319 0.4848746617438066 0.4670123977887731
0.3080851063829787 0.49169727819899467 0.4623092184018859
0.30829787234042555 0.4970920153117932 0.4579178964192856
0.30851063829787234 0.49792227627468744 0.4557407133298906
0.30872340425531913 0.5019070021453191 0.45414682298163783
0.308936170212766 0.4923665666496088 0.4501490616811622
0.3091489361702128 0.484655487955923 0.44822421298206927
0.30936170212765957 0.4780463974481364 0.4457870700487826
0.30957446808510636 0.47417565228261555 0.4429103860393327
0.3097872340425532 0.4691808618538126 0.440712135517791
0.31 0.4668551894123203 0.4401563263312165
0.3102127659574468 0.4647981299784567 0.43957690474937317
0.31042553191489364 0.4601729337893903 0.4381986175541743
0.31063829787234043 0.45605759362805537 0.4365168022260036
0.3108510638297872 0.4544994718295171 0.43511490445408435
0.311063829787234 0.4529627504092847 0.43434654374396814
0.31127659574468086 0.45132622373816816 0.43352828040840996
0.31148936170212765 0.44958963399655366 0.4339741131433939
0.31170212765957445 0.45000772344298573 0.4369391913627159
0.3119148936170213 0.44966933143072263 0.44041371693273595
0.3121276595744681 0.44861288161993224 0.4443512410190542
0.3123404255319149 0.44975061515196235 0.44912578934241965
0.3125531914893617 0.44902902744901246 0.44984737704536953
0.3127659574468085 0.44894968246213973 0.45464483626228896
0.3129787234042553 0.4482726398290995 0.4524037462876563
0.3131914893617021 0.447418711059625 0.4503498297699327
0.31340425531914895 0.44824259478023193 0.4453544200184849
0.31361702127659574 0.4506483030730078 0.4377361246795827
0.31382978723404253 0.45282114703018106 0.43324366191576025
0.3140425531914894 0.44981055307942575 0.4272224740142496
0.3142553191489362 0.4484450989937397 0.4255007327796776
0.31446808510638297 0.4464319443336977 0.4255007327796776
0.31468085106382976 0.4417830469872526 0.4255007327796776
0.3148936170212766 0.43991888329510104 0.4267152153858954
0.3151063829787234 0.4395704786274734 0.42589004445444417
0.3153191489361702 0.4404586274945381 0.4226397501495074
0.31553191489361704 0.4392044116677952 0.42100132577586946
0.31574468085106383 0.43721828605015445 0.42013739750024465
0.3159574468085106 0.4387905527803444 0.4168965390209597
0.31617021276595747 0.43917928676111373 0.4136760931426747
0.31638297872340426 0.4368214375276473 0.4104413691348774
0.31659574468085105 0.4318013592725283 0.40897873790238065
0.31680851063829785 0.4274409139553512 0.4079974083050195
0.3170212765957447 0.4264777723497801 0.4142669341272842
0.3172340425531915 0.42568367817222047 0.4186770339408064
0.3174468085106383 0.4227521359191618 0.42439483256728994
0.3176595744680851 0.4229881306497114 0.43429484023455905
0.3178723404255319 0.4200664930221434 0.44337601082320444
0.3180851063829787 0.42107316403822453 0.451379042526257
0.3182978723404255 0.4233508296465259 0.4563764314316974
0.31851063829787235 0.4253172984214622 0.4621546836032812
0.31872340425531914 0.4256831342835792 0.4651945521460805
0.31893617021276593 0.4272995827021427 0.4682576300375816
0.3191489361702128 0.426582903965879 0.4694149476262446
0.3193617021276596 0.43209723251119403 0.4666577833535871
0.31957446808510637 0.4301600713179097 0.46683585635724656
0.3197872340425532 0.4310740767819329 0.46558142701688815
0.32 0.4338539777531019 0.4705942123965814
0.3202127659574468 0.4338615728131607 0.47380818781214457
0.3204255319148936 0.4356027504992103 0.47075834853748555
0.32063829787234044 0.43624816805080613 0.46640619252662013
0.32085106382978723 0.4371211410768822 0.4673053012060361
0.321063829787234 0.43918055133836775 0.46849173844144554
0.32127659574468087 0.44033729347974976 0.46910557913722745
0.32148936170212766 0.44224526042323925 0.4656043068044896
0.32170212765957445 0.44543630598299533 0.46640480079023094
0.32191489361702125 0.4482063742724946 0.4653256237734263
0.3221276595744681 0.4482785844898876 0.46391121761152904
0.3223404255319149 0.449984938590397 0.46220118854808123
0.3225531914893617 0.45228944394377596 0.4637117786986422
0.3227659574468085 0.4503193236093466 0.4719881730768639
0.3229787234042553 0.4505915497861201 0.48428472347154655
0.3231914893617021 0.4532088129141707 0.492641367889895
0.32340425531914896 0.4538348803126526 0.5034870286029424
0.32361702127659575 0.45285913447800236 0.5114711588005396
0.32382978723404254 0.4512045403640922 0.5092253570467528
0.32404255319148934 0.45403391530147436 0.5057988771429056
0.3242553191489362 0.4554172346985065 0.5014762291862797
0.324468085106383 0.45758056789779716 0.4955204250380247
0.32468085106382977 0.4582093619241156 0.4924945326937009
0.3248936170212766 0.457743038593063 0.49029791774223536
0.3251063829787234 0.4590783655422041 0.4886989287408138
0.3253191489361702 0.46109236244020896 0.4834273260085827
0.325531914893617 0.4633309352616149 0.4828717266636667
0.32574468085106384 0.46377297652108784 0.4865511241739127
0.32595744680851063 0.4629413719464235 0.49280356393207675
0.3261702127659574 0.4636052760136786 0.49963445744412155
0.32638297872340427 0.4622109667755594 0.5017098192476794
0.32659574468085106 0.46180577526698496 0.5012880877409361
0.32680851063829786 0.4640644176539943 0.49710749416906874
0.3270212765957447 0.4672949415294913 0.4914337256763169
0.3272340425531915 0.46803682158144394 0.48354723106862246
0.3274468085106383 0.46832902332943716 0.4738516869573914
0.3276595744680851 0.4684904738641915 0.46965353150550876
0.3278723404255319 0.4705340432375828 0.4593839019171166
0.3280851063829787 0.4722477350980694 0.4518015614168227
0.3282978723404255 0.4716786184310396 0.44499046032567097
0.32851063829787236 0.47239863214460187 0.43956696299279835
0.32872340425531915 0.47098353259414477 0.4329126292299416
0.32893617021276594 0.46946751343429405 0.426989813183317
0.32914893617021274 0.4681468790419897 0.42452369320957506
0.3293617021276596 0.4652183614815539 0.42146359612619494
0.3295744680851064 0.46286006508129945 0.4163099086729606
0.32978723404255317 0.46358700370540074 0.4157303370786516
0.33 0.46180496565714974 0.4157303370786516
0.3302127659574468 0.45969711773326827 0.4196652412602167
0.3304255319148936 0.45930898587579305 0.42813404267046434
0.33063829787234045 0.4557889594528579 0.4348975646989449
0.33085106382978724 0.4554827590656885 0.437531408008078
0.33106382978723403 0.4544039227442118 0.43861024432955453
0.3312765957446808 0.4578333932756217 0.4351807737981446
0.33148936170212767 0.45690806438758214 0.4272127292751383
0.33170212765957446 0.45313836321509954 0.41964807352670297
0.33191489361702126 0.45205682014159465 0.4152813544159903
0.3321276595744681 0.45188080117244755 0.41293862876995063
0.3323404255319149 0.4536709569998254 0.4118549634608067
0.3325531914893617 0.44840406581375764 0.413072026692535
0.3327659574468085 0.4457646240331101 0.4140301976571683
0.33297872340425533 0.4458909933329744 0.41425076995048116
0.3331914893617021 0.44437289129948443 0.419113952954572
0.3334042553191489 0.4447719933696511 0.42186210531134527
0.33361702127659576 0.44044786986268425 0.4248664412288923
0.33382978723404255 0.4384165567692547 0.42397527279595937
0.33404255319148934 0.4373378411831025 0.4244110596473812
0.3342553191489362 0.43722520762090866 0.42163337554039393
0.334468085106383 0.43368903579215884 0.42256961406936977
0.3346808510638298 0.4374167104105043 0.4221866084901785
0.33489361702127657 0.4373154521700371 0.4206155349291647
0.3351063829787234 0.4352711284807034 0.4186025692259241
0.3353191489361702 0.4352711284807034 0.41216278042996346
0.335531914893617 0.4365007253339372 0.4027430758217648
0.33574468085106385 0.435787992421832 0.39193458839152484
0.33595744680851064 0.4360969878425106 0.3876985499622676
0.33617021276595743 0.4381140959986403 0.38739618954567656
0.3363829787234042 0.437288578982267 0.3931052150938475
0.33659574468085107 0.4382022471910112 0.4075517614023925
0.33680851063829786 0.4385270565870299 0.4248432798415007
0.33702127659574466 0.44099801451679466 0.4394044987467242
0.3372340425531915 0.44316295033022546 0.4554114330093517
0.3374468085106383 0.4417972345882517 0.4685467642450809
0.3376595744680851 0.4448550518313707 0.4787717282594233
0.33787234042553194 0.44705375913327333 0.48976667416789244
0.33808510638297873 0.44406448461162684 0.4904833904986488
0.3382978723404255 0.4425101521319662 0.4936121201923231
0.3385106382978723 0.442260987093754 0.4979522425896017
0.33872340425531916 0.4457488887674956 0.49811333960587884
0.33893617021276595 0.4446821141283329 0.5008863132254047
0.33914893617021274 0.4405697738748795 0.5078255630369873
0.3393617021276596 0.4401563263312165 0.5085490962383976
0.3395744680851064 0.4399069606287451 0.5044746941563397
0.3397872340425532 0.4375192877636935 0.5006282978182883
0.34 0.439382340836033 0.48555638556271835
0.3402127659574468 0.44040127432496157 0.46847946424468
0.3404255319148936 0.44056356598522495 0.4533471995263962
0.3406382978723404 0.4404051246763826 0.4422833888723745
0.34085106382978725 0.44414826233610455 0.4355409565210858
0.34106382978723404 0.44522447926229136 0.4354852156449117
0.34127659574468083 0.4436164918248896 0.4421531282750174
0.3414893617021277 0.4421475880660245 0.453141856257285
0.3417021276595745 0.44016359302822766 0.4625991696555308
0.34191489361702126 0.4402053682299099 0.4691015983959767
0.34212765957446806 0.4429688641378472 0.4705038434562352
0.3423404255319149 0.44565664237900765 0.46946751343429405
0.3425531914893617 0.4472314919465618 0.468759847560412
0.3427659574468085 0.4490699248008986 0.46336479133616093
0.34297872340425534 0.450938976311325 0.4594858294793871
0.34319148936170213 0.451858367392892 0.4539694829899862
0.3434042553191489 0.4490252843415157 0.45193120242536483
0.34361702127659577 0.44693448102584815 0.44011048460915175
0.34382978723404256 0.44321488542215015 0.4373207879063782
0.34404255319148935 0.4439410785054916 0.43381067376503935
0.34425531914893615 0.441849735276401 0.4259345515564121
0.344468085106383 0.44291813683173753 0.4223568063525267
0.3446808510638298 0.44495152233206814 0.4229231310799293
0.3448936170212766 0.4460185637518319 0.42573437459823577
0.3451063829787234 0.44692509931546376 0.4295196941663436
0.3453191489361702 0.4512254210439993 0.4346800802405863
0.345531914893617 0.4552719193665023 0.43953587822758977
0.3457446808510638 0.4584103011349423 0.4414669971722586
0.34595744680851065 0.4645421467613574 0.4435639141798483
0.34617021276595744 0.4703196861524358 0.4454676105408002
0.34638297872340423 0.47489006208460716 0.4445320768189285
0.3465957446808511 0.4782608695652173 0.4430874450415241
0.3468085106382979 0.4768539236874656 0.44590133679702765
0.34702127659574467 0.47550796196453243 0.4453979464009749
0.3472340425531915 0.4735441231237389 0.44682715191289996
0.3474468085106383 0.4709570143721304 0.44457694597936065
0.3476595744680851 0.4687075191403831 0.44232745074761315
0.3478723404255319 0.4684904738641915 0.4411437340870377
0.34808510638297874 0.4704445530043966 0.43741555020458955
0.34829787234042553 0.4710478131412798 0.4393803734734082
0.3485106382978723 0.47398427036836865 0.43985202700438436
0.34872340425531917 0.47656683517234855 0.4404163710785527
0.34893617021276596 0.4787792951446554 0.44418410778917355
0.34914893617021275 0.48048143609539345 0.4453968002717952
0.34936170212765955 0.4833743128964783 0.44722384880268257
0.3495744680851064 0.4857788809373433 0.4512841907950581
0.3497872340425532 0.48514603303375436 0.45374310735701484
0.35 0.48693952760092696 0.4590068234012
0.3502127659574468 0.48412370926307613 0.4642562342089182
0.3504255319148936 0.4797733451002599 0.46885202420643857
0.3506382978723404 0.4767643225807559 0.47461246499198645
0.35085106382978726 0.4675794981879778 0.4810928924346917
0.35106382978723405 0.4632554275406055 0.48988292601902833
0.35127659574468084 0.4575774887152916 0.49593035676594965
0.35148936170212763 0.45190646038798243 0.4991541208360918
0.3517021276595745 0.450025908358886 0.49975574010747437
0.3519148936170213 0.44991957600616667 0.5055751013716361
0.35212765957446807 0.44818718629569315 0.4933571441777188
0.3523404255319149 0.4495032147667976 0.4868907685091224
0.3525531914893617 0.4479726428920372 0.47612599218117624
0.3527659574468085 0.44839040433727145 0.46445437609148293
0.3529787234042553 0.44842665206450305 0.4498975826285123
0.35319148936170214 0.44922911670042703 0.43554860219118474
0.35340425531914893 0.44992672203224227 0.4204773095595354
0.3536170212765957 0.45066809625481946 0.4075752206303018
0.35382978723404257 0.44922927316815187 0.39828494807075115
0.35404255319148936 0.4498886656194858 0.39716658524670256
0.35425531914893615 0.44699560332193444 0.40963433841885916
0.354468085106383 0.4466474182615835 0.4215535131909923
0.3546808510638298 0.4447621980174882 0.43206188761563785
0.3548936170212766 0.44482716700032526 0.4400615799942985
0.3551063829787234 0.4445792378570018 0.4508163167345989
0.3553191489361702 0.4420749704281113 0.4581514002174878
0.355531914893617 0.44019963091631154 0.4625271924116874
0.3557446808510638 0.4382930147847984 0.47101313840245707
0.35595744680851066 0.43731908288504306 0.47640066568914663
0.35617021276595745 0.43874851507372736 0.4781172790027552
0.35638297872340424 0.4357520180732988 0.4780280549613758
0.35659574468085103 0.4346464200248162 0.4802149487054226
0.3568085106382979 0.4316415102036781 0.4784001395669099
0.3570212765957447 0.42745481191988266 0.47574945503959815
0.35723404255319147 0.4261313269957064 0.47202103854446875
0.3574468085106383 0.4240128260102202 0.46374897254183883
0.3576595744680851 0.4235466536394723 0.4498848902093414
0.3578723404255319 0.42544547810389943 0.4441749939631832
0.35808510638297875 0.42933263264724586 0.4300046385659799
0.35829787234042554 0.4284318514899854 0.42579462126904455
0.35851063829787233 0.4285891494007074 0.4287131952056585
0.3587234042553191 0.4289556853605283 0.4354221970472233
0.35893617021276597 0.4268073440068623 0.43591859639372393
0.35914893617021276 0.4293925678454163 0.4337176590973423
0.35936170212765955 0.43360421656580506 0.4299271340737591
0.3595744680851064 0.43656205582314744 0.4226978274955359
0.3597872340425532 0.4382507825435693 0.41527821880801896
0.36 0.43739420152271474 0.4177873750901269
0.3602127659574468 0.44362228631784895 0.4206155349291647
0.3604255319148936 0.4444531619794949 0.4213982358153332
0.3606382978723404 0.4476063766882995 0.4224780475184353
0.3608510638297872 0.44896816497698117 0.42063401744400614
0.36106382978723406 0.4512540447623203 0.4223360919627195
0.36127659574468085 0.45428095396097395 0.421061608577486
0.36148936170212764 0.4557889594528579 0.42289228345082164
0.3617021276595745 0.4541077038354229 0.42102477021331985
0.3619148936170213 0.45399036063568293 0.4129379074265774
0.3621276595744681 0.4538999980870937 0.40763175251075745
0.36234042553191487 0.4528578407425501 0.41133274493233235
0.3625531914893617 0.45369746590854354 0.42119547002827884
0.3627659574468085 0.44816038208199604 0.43864735905623026
0.3629787234042553 0.45114231457994786 0.4490063724616504
0.36319148936170215 0.4538348803126526 0.46239158232413546
0.36340425531914894 0.4532420447222168 0.47094960241038364
0.36361702127659573 0.4542888775878383 0.4755567494925024
0.3638297872340425 0.4562231567063689 0.48032359376850287
0.36404255319148937 0.45533302871390796 0.4852305027403413
0.36425531914893616 0.4563351039973794 0.48978494841874853
0.36446808510638296 0.4561166850238088 0.493238051544957
0.3646808510638298 0.4557889594528579 0.49759948887386796
0.3648936170212766 0.45242939743022986 0.49457924800908665
0.3651063829787234 0.4490341813893931 0.5024333620360222
0.36531914893617023 0.44569347043778834 0.496499528083123
0.365531914893617 0.44211040547142155 0.49130621587575124
0.3657446808510638 0.44069641081487476 0.4821435144666674
0.3659574468085106 0.4383902873556449 0.4730118709677487
0.36617021276595746 0.4411449757691772 0.4625817969721431
0.36638297872340425 0.44211040547142155 0.45271470952480497
0.36659574468085104 0.4449107440818647 0.4433490052412535
0.3668085106382979 0.44521841509908733 0.44033321724857444
0.3670212765957447 0.4468552049695306 0.4347152839678125
0.3672340425531915 0.45281886096674184 0.427337872592458
0.36744680851063827 0.45217622776025185 0.4243759799156729
0.3676595744680851 0.45433344839611317 0.4242945057646631
0.3678723404255319 0.45718445504826255 0.42752439404633363
0.3680851063829787 0.45969711773326827 0.43067568309180904
0.36829787234042555 0.46118504200876487 0.43283598452889466
0.36851063829787234 0.46503542003844284 0.4333170493404983
0.36872340425531913 0.4714789525371983 0.43261096965289664
0.368936170212766 0.47742488422335105 0.4315301672686663
0.36914893617021277 0.48099472159687406 0.431362970200293
0.36936170212765956 0.4861466327722324 0.4353405751268978
0.36957446808510636 0.48799937769484375 0.4371933200495091
0.3697872340425532 0.4880312652662433 0.4440161082793885
0.37 0.48861848405456554 0.4551561225863777
0.3702127659574468 0.4930621331676209 0.4637509460645431
0.37042553191489364 0.4981424029745228 0.47095220774760854
0.3706382978723404 0.496158424196827 0.47692847516453823
0.3708510638297872 0.49351636948853084 0.47908793254237625
0.371063829787234 0.48226183292434865 0.48280974559465223
0.37127659574468086 0.47253689642148944 0.489498356226712
0.37148936170212765 0.4638120208300876 0.488991631469183
0.37170212765957444 0.45575100954778314 0.4939314525919335
0.3719148936170213 0.45006603096596326 0.4958197200403198
0.3721276595744681 0.45417279452671294 0.48797800481990644
0.3723404255319149 0.44295554902008766 0.48639474558895857
0.3725531914893617 0.44258109365783305 0.48151006438465155
0.3727659574468085 0.44614292353477913 0.4732833193657369
0.3729787234042553 0.44239715110022615 0.46188480224085104
0.3731914893617021 0.44465031032963614 0.45090442497576533
0.37340425531914895 0.44699560332193444 0.44654385639836636
0.37361702127659574 0.44716084121248656 0.44537199996283355
0.37382978723404253 0.44738341527220904 0.44601355728888753
0.3740425531914894 0.44407519934121853 0.4411440806309107
0.37425531914893617 0.4416979104591739 0.43537952440173666
0.37446808510638296 0.4427729440962247 0.4256013429822907
0.37468085106382976 0.44122484846143684 0.41668663865911304
0.3748936170212766 0.4393828165639091 0.4084433910384688
0.3751063829787234 0.4400106286188423 0.40317452037969215
0.3753191489361702 0.4376761488058597 0.4055090001926748
0.37553191489361704 0.4379201080975316 0.4101293442373636
0.37574468085106383 0.4376038808144569 0.41900257531689333
0.3759574468085106 0.4366569312903216 0.4280928642841689
0.37617021276595747 0.43624816805080613 0.4343922296393384
0.37638297872340426 0.43624816805080613 0.43986094752750066
0.37659574468085105 0.43716329583592006 0.44491770061175206
0.37680851063829784 0.4382022471910112 0.4495147132504154
0.3770212765957447 0.43874828145820216 0.4567951095771666
0.3772340425531915 0.43863632435267413 0.4606741573033708
0.3774468085106383 0.4393998864871592 0.45987573110593877
0.3776595744680851 0.44054439689805064 0.458916401164255
0.3778723404255319 0.43797609166454315 0.45969711773326827
0.3780851063829787 0.43626262863019344 0.45969711773326827
0.37829787234042556 0.4353816685247551 0.45969711773326827
0.37851063829787235 0.4306580973326776 0.46277247183195214
0.37872340425531914 0.4320991016350812 0.4676405918761684
0.37893617021276593 0.43098619700105456 0.46946751343429405
0.3791489361702128 0.42940889106008795 0.46586814785101044
0.3793617021276596 0.4297152446397355 0.4600614501440757
0.37957446808510636 0.4312786105209481 0.45693471838165023
0.3797872340425532 0.4330868633388066 0.4610757318692441
0.38 0.43424668899558005 0.4542140796328191
0.3802127659574468 0.43371500831873083 0.44992672203224227
0.3804255319148936 0.43985792145831026 0.44962831715933604
0.38063829787234044 0.43870685965897127 0.4474680304240771
0.38085106382978723 0.4394390129034801 0.4427906533270183
0.381063829787234 0.43959986739757756 0.4334982204033984
0.38127659574468087 0.4422766622863892 0.4219774645571316
0.38148936170212766 0.4448183438592912 0.41555344410357625
0.38170212765957445 0.44549564080252735 0.4142303745592445
0.3819148936170213 0.44613201150382337 0.41323101427739956
0.3821276595744681 0.4482864549959209 0.4121537925313507
0.3823404255319149 0.4504331679476473 0.41182217879824123
0.3825531914893617 0.45260010053129146 0.41012583986929474
0.3827659574468085 0.4538022952821188 0.41459037235587975
0.3829787234042553 0.46053395121134233 0.4223637080054238
0.3831914893617021 0.45959212954473444 0.43478175363878874
0.38340425531914896 0.4627651987307592 0.44881882136156326
0.38361702127659575 0.461059387853079 0.46041172604935654
0.38382978723404254 0.46115877123246324 0.4694831368581296
0.38404255319148933 0.46127286726853295 0.47381643243514804
0.3842553191489362 0.46165119687347334 0.4774441256068976
0.384468085106383 0.4648827447502324 0.4766450956268378
0.38468085106382977 0.46281578658135514 0.4763067904250122
0.3848936170212766 0.4636052760136786 0.47425994026385304
0.3851063829787234 0.4634531557963098 0.47285499279670823
0.3853191489361702 0.46165689577401076 0.47557258602230096
0.38553191489361704 0.4593150088763802 0.4780915825646562
0.38574468085106384 0.4606741573033708 0.4833522408263789
0.38595744680851063 0.461172803548776 0.49058525525539315
0.3861702127659574 0.46285860772814624 0.49705499268173675
0.38638297872340427 0.46076507756704604 0.5006418594139017
0.38659574468085106 0.4629581841497681 0.5049708856641792
0.38680851063829785 0.4636052760136786 0.5065387938929038
0.3870212765957447 0.4636052760136786 0.5025887012473449
0.3872340425531915 0.46344825727348626 0.49963364849623043
0.3874468085106383 0.4616067301286769 0.48980747742726294
0.3876595744680851 0.45966046467300226 0.47543971003570706
0.3878723404255319 0.4609417329320449 0.46379180190286623
0.3880851063829787 0.46121460421854665 0.44966179247813703
0.3882978723404255 0.4628852880711083 0.4398474992999577
0.38851063829787236 0.46252427639891747 0.4331299828766753
0.38872340425531915 0.4654488410445637 0.42865287970862553
0.38893617021276594 0.4681501738995309 0.42133999518236515
0.3891489361702128 0.47017554487052643 0.4101510931730388
0.3893617021276596 0.47095923386594746 0.3948852231146613
0.3895744680851064 0.46974254656267384 0.3760265699139218
0.38978723404255317 0.46752109321828045 0.3633290688213098
0.39 0.4701278755449433 0.35128050023396135
0.3902127659574468 0.4700207865516128 0.3496895114315526
0.3904255319148936 0.467845371503774 0.3568511138986208
0.39063829787234045 0.4663258487552454 0.3692041865563693
0.39085106382978724 0.4613388983296732 0.38586598779956155
0.39106382978723403 0.45970431802901274 0.4036321804090896
0.3912765957446808 0.4574094355866072 0.4223786277585032
0.39148936170212767 0.45565132500550043 0.43666107139287824
0.39170212765957446 0.4521303252747439 0.4467979318256705
0.39191489361702125 0.45040068732103833 0.4590193894968994
0.3921276595744681 0.45002099400956214 0.4682076579322319
0.3923404255319149 0.44894968246213973 0.47287880783267966
0.3925531914893617 0.44824752845774424 0.47673405886370057
0.39276595744680853 0.44699560332193444 0.4809056885764874
0.3929787234042553 0.4438884682932906 0.482628211577623
0.3931914893617021 0.4417550680002985 0.4809256236476687
0.3934042553191489 0.439086110655029 0.4820295255952582
0.39361702127659576 0.4359883404970522 0.4831460674157304
0.39382978723404255 0.43597941876382434 0.48243777713260944
0.39404255319148934 0.43384107648023595 0.4773548447044875
0.3942553191489362 0.4333170493404983 0.4771873295780428
0.394468085106383 0.43136697819103575 0.4704445530043966
0.3946808510638298 0.4322542503054073 0.4704445530043966
0.39489361702127657 0.43428995999143355 0.464594702341283
0.3951063829787234 0.4320509851582752 0.4594080931211477
0.3953191489361702 0.4298067451367441 0.45577136383132005
0.395531914893617 0.431362970200293 0.45098192149412075
0.39574468085106385 0.4309582552835653 0.448544967545412
0.39595744680851064 0.4303859306301905 0.44694969838906634
0.39617021276595743 0.4297660611597529 0.4447788248109567
0.3963829787234043 0.43086389537766934 0.44406448461162684
0.39659574468085107 0.4321981260362569 0.44072386126777185
0.39680851063829786 0.4304645841975964 0.43828090075841714
0.39702127659574465 0.42940889106008795 0.441326459761946
0.3972340425531915 0.4297477880390652 0.4445728300800927
0.3974468085106383 0.431362970200293 0.4475371881261446
0.3976595744680851 0.431362970200293 0.4514572900341664
0.39787234042553193 0.43182403203221426 0.4553278976209367
0.3980851063829787 0.431778373785739 0.45818173579069515
0.3982978723404255 0.4326864931364788 0.46199768023955645
0.3985106382978723 0.4371683921637151 0.46262823644357587
0.39872340425531916 0.43993925605580947 0.4652337497407732
0.39893617021276595 0.4392581012428777 0.4709487056839159
0.39914893617021274 0.4431791519946334 0.4715132995276087
0.3993617021276596 0.4493085379756579 0.47788192251764505
0.3995744680851064 0.4523345085001687 0.4835301498287912
0.3997872340425532 0.45417016970924656 0.48836655466283724
0.4 0.45569824154920613 0.4903377873360222
0.4002127659574468 0.45456222541115837 0.4946941405614062
0.4004255319148936 0.4502308748751191 0.49091394819544687
0.4006382978723404 0.4481959881403007 0.48124801636969183
0.40085106382978725 0.4513654995530538 0.4690593391522704
0.40106382978723404 0.4499719392926978 0.45033367737634217
0.40127659574468083 0.44902449223229 0.43354599120909815
0.4014893617021277 0.44967011201547397 0.4232406431257335
0.40170212765957447 0.44843075624871637 0.41269178740349277
0.40191489361702126 0.44992672203224227 0.4046216729193429
0.40212765957446805 0.4494864496823537 0.40073096604754965
0.4023404255319149 0.45112653373772243 0.40075330284359467
0.4025531914893617 0.45480724331595584 0.4033513848128192
0.4027659574468085 0.45876929085275114 0.4129468564371002
0.40297872340425533 0.45969711773326827 0.4259167673279695
0.4031914893617021 0.4606523989593291 0.4370076241804914
0.4034042553191489 0.46262823644357587 0.44757717528678864
0.40361702127659577 0.46315373143666366 0.45453554030343635
0.40382978723404256 0.4653465748967429 0.4566791373073591
0.40404255319148935 0.4651269448450708 0.4504070090667466
0.40425531914893614 0.4665363947239862 0.4400822296636556
0.404468085106383 0.4656068961605444 0.4309933029318937
0.4046808510638298 0.46345616250687294 0.4273056984130772
0.4048936170212766 0.46262823644357587 0.42780939179012184
0.4051063829787234 0.46262823644357587 0.4330691221983487
0.4053191489361702 0.46610461894385014 0.4369013757858066
0.405531914893617 0.46081631602831014 0.4396766699190557
0.4057446808510638 0.4588124775060072 0.4436948872402603
0.40595744680851065 0.45770615102332174 0.4471062660311581
0.40617021276595744 0.4549472944544853 0.4553828357376676
0.40638297872340423 0.4567606083654298 0.46264171308740243
0.4065957446808511 0.4547462547287149 0.4677104297562098
0.40680851063829787 0.4542430918406927 0.47071669402308997
0.40702127659574466 0.45676599902296044 0.4734401218609729
0.4072340425531915 0.45676599902296044 0.47892299434247476
0.4074468085106383 0.45504537781405535 0.484399772762035
0.4076595744680851 0.45909682127079593 0.4893850479439761
0.4078723404255319 0.45878138313714606 0.49364828279093664
0.40808510638297874 0.45969711773326827 0.4909256857067225
0.4082978723404255 0.459993740412367 0.48900830483634583
0.4085106382978723 0.4636052760136786 0.48853701067453
0.40872340425531917 0.4637170164670499 0.4829784567356735
0.40893617021276596 0.4656564714304674 0.4801178324288389
0.40914893617021275 0.4676578076071876 0.47833305622176664
0.40936170212765954 0.469381965463928 0.47881016928348985
0.4095744680851064 0.46850494987227814 0.47442509132523997
0.4097872340425532 0.4693746176286306 0.47114290515750895
0.41 0.4657958636259579 0.4589875923170457
0.4102127659574468 0.46665035157553564 0.4529717975940993
0.4104255319148936 0.462964827914428 0.4486458258337411
0.4106382978723404 0.45955456958449603 0.4468572146674229
0.41085106382978726 0.4557237563428655 0.44901488557213204
0.41106382978723405 0.4560574370015057 0.4468129292353662
0.41127659574468084 0.45458709677095477 0.44722042643373505
0.41148936170212763 0.44808699415332137 0.4446881365152765
0.4117021276595745 0.445209335092136 0.43781254580733187
0.41191489361702127 0.4450415241817294 0.4334338061044377
0.41212765957446806 0.4498218154988428 0.43435703283064053
0.4123404255319149 0.44480172859351025 0.4377847306600866
0.4125531914893617 0.44211040547142155 0.44506755143967125
0.4127659574468085 0.44143052412705386 0.4542176034312855
0.4129787234042553 0.4368845466979925 0.4643315410581567
0.41319148936170214 0.43436906269852416 0.4735262143723259
0.41340425531914893 0.431150320113448 0.4774964800819598
0.4136170212765957 0.43060612862090747 0.4780406715745003
0.41382978723404257 0.432041881166928 0.47585959751981055
0.41404255319148936 0.4316868409837883 0.47229157975337294
0.41425531914893615 0.43566399981716236 0.46878255798101337
0.414468085106383 0.43358306533309976 0.4698230252230446
0.4146808510638298 0.43277225848268136 0.4708768017166823
0.4148936170212766 0.43231523436419866 0.46991887011004996
0.4151063829787234 0.4323653266037117 0.46748811746077285
0.4153191489361702 0.4341704703997598 0.46354942101657093
0.415531914893617 0.4352711284807034 0.4549784702117003
0.4157446808510638 0.43455569062895055 0.44449157084079943
0.41595744680851066 0.43431388862268 0.4391594870490348
0.41617021276595745 0.4360116218927114 0.43722520762090866
0.41638297872340424 0.43453798061041166 0.4373473989326239
0.4165957446808511 0.4294345876108805 0.4381979644325458
0.4168085106382979 0.4303176961449546 0.4400198573607446
0.41702127659574467 0.4333066266125904 0.44212082819932946
0.41723404255319146 0.4323400097703958 0.4427567187677449
0.4174468085106383 0.43255087837106515 0.43994545773054705
0.4176595744680851 0.4348069973271761 0.4382853179691071
0.4178723404255319 0.439414449506945 0.43544003317351687
0.41808510638297874 0.4436698258896295 0.4312503369246283
0.41829787234042554 0.448456331993385 0.4296507356107619
0.41851063829787233 0.45136238133770706 0.4311037602829228
0.4187234042553191 0.45767779013372756 0.4305348289201102
0.41893617021276597 0.4577940792730053 0.4294599317400303
0.41914893617021276 0.45685106696115696 0.4295364929673827
0.41936170212765955 0.4587200781631655 0.4329286302289199
0.4195744680851064 0.4578327070569601 0.43877810705676806
0.4197872340425532 0.4554666709592643 0.44504661122639044
0.42 0.4546026465440925 0.4482936148092553
0.42021276595744683 0.4514100592353595 0.44898523815806635
0.4204255319148936 0.4504034630654268 0.44497085167052897
0.4206382978723404 0.4493240288427176 0.44030232590284746
0.4208510638297872 0.4496602266046999 0.4349160219057526
0.42106382978723406 0.4441781063273118 0.42921089526554806
0.42127659574468085 0.4430874450415241 0.42101436227286365
0.42148936170212764 0.4421829274830129 0.41370373592685517
0.4217021276595745 0.4437884030072935 0.41265042361124116
0.4219148936170213 0.4418701505320179 0.4200869656128937
0.4221276595744681 0.441133365901319 0.4326062215565888
0.42234042553191486 0.44023622121730244 0.4465961288915043
0.4225531914893617 0.43862542139657423 0.45797332018238246
0.4227659574468085 0.43756703312357625 0.4696155911853604
0.4229787234042553 0.4394248172091559 0.4755752813029516
0.42319148936170214 0.4409996577128651 0.47715012180666083
0.42340425531914894 0.44396861715996144 0.47728382999511476
0.42361702127659573 0.4500763371264544 0.4720994019561776
0.4238297872340426 0.45260684172756244 0.46794594344785534
0.42404255319148937 0.4560746296215058 0.46470234464793997
0.42425531914893616 0.45676599902296044 0.46410717439925053
0.42446808510638295 0.45890717938883563 0.46696463079716133
0.4246808510638298 0.4611398263537394 0.46853617533355685
0.4248936170212766 0.46007118385505696 0.4706734603309219
0.4251063829787234 0.46171348693236247 0.4673888541763106
0.42531914893617023 0.4632310232564322 0.4607370606510341
0.425531914893617 0.4641440053435126 0.45343320395439113
0.4257446808510638 0.46458231558378116 0.4470731267648294
0.4259574468085106 0.46788847470353084 0.4437190605338294
0.42617021276595746 0.4717558384725842 0.4392735699777073
0.42638297872340425 0.48023253335974964 0.4373318137226615
0.42659574468085104 0.48802790516074546 0.43624864806587726
0.4268085106382979 0.4935214298658544 0.43409243332756814
0.4270212765957447 0.4983634854860046 0.43192479471902856
0.4272340425531915 0.4949819294584891 0.42885035401462596
0.4274468085106383 0.48892774544352896 0.42631458819288637
0.4276595744680851 0.48353078231084345 0.42898265420899945
0.4278723404255319 0.4781386589474222 0.42733260130208756
0.4280851063829787 0.4720027095046631 0.42478338595961945
0.42829787234042555 0.4654781241407742 0.4261791694974491
0.42851063829787234 0.4617814469586545 0.4180751664744003
0.42872340425531913 0.4595750336083412 0.4134710476261288
0.428936170212766 0.45757416628169606 0.4085533154651998
0.42914893617021277 0.45621207889473736 0.4063830608195053
0.42936170212765956 0.45481191988275516 0.4053542728648043
0.42957446808510635 0.45481191988275516 0.4073311861071012
0.4297872340425532 0.4536852637697005 0.4111443723140431
0.43 0.45419542613708663 0.4181495599464904
0.4302127659574468 0.45481191988275516 0.427624097407304
0.43042553191489363 0.4521923856501935 0.4363943156802529
0.4306382978723404 0.45090350716684724 0.4430894805255047
0.4308510638297872 0.44992672203224227 0.45155609275538633
0.43106382978723407 0.44992672203224227 0.4587274326915859
0.43127659574468086 0.4482904231376457 0.46719565404848024
0.43148936170212765 0.44678601564108256 0.47175292159891147
0.43170212765957444 0.448405206477251 0.4728311957298157
0.4319148936170213 0.4479726428920372 0.471092668463417
0.4321276595744681 0.4479726428920372 0.46891875748813433
0.4323404255319149 0.44884578362706606 0.4658710516591047
0.4325531914893617 0.44992305232726576 0.46166587569337925
0.4327659574468085 0.44739408907703454 0.4608069858884042
0.4329787234042553 0.44520323027282865 0.4579855977297119
0.4331914893617021 0.4430874450415241 0.4576970656616075
0.43340425531914895 0.442841398577819 0.45529686652544776
0.43361702127659574 0.44175060421241635 0.45064632455025283
0.43382978723404253 0.44499675891148116 0.44570780565188045
0.4340425531914894 0.4461576034137727 0.4450415241817294
0.43425531914893617 0.44556886378037663 0.44715088257631863
0.43446808510638296 0.4472868197248568 0.4546568343407513
0.4346808510638298 0.4487161693683313 0.4614606709745336
0.4348936170212766 0.4455432235856215 0.46944115419661236
0.4351063829787234 0.4460015276013991 0.4762045735224153
0.4353191489361702 0.4451325650031791 0.4803059895268723
0.43553191489361703 0.44641086473052893 0.48021123582878267
0.4357446808510638 0.44736032496926903 0.47538831354086003
0.4359574468085106 0.4451975020819282 0.47173354837489695
0.43617021276595747 0.44666035208180715 0.46842916644622196
0.43638297872340426 0.4414276988683256 0.46814026626024013
0.43659574468085105 0.43578675842828946 0.4713673722494298
0.43680851063829784 0.43362754116118546 0.478151187762915
0.4370212765957447 0.430533824615037 0.48758758331170376
0.4372340425531915 0.43033804162977146 0.49794532796852614
0.4374468085106383 0.42749044305314343 0.5068444350310178
0.4376595744680851 0.42840037292711675 0.5132139441488298
0.4378723404255319 0.42940889106008795 0.5155613100870471
0.4380851063829787 0.4297283684355267 0.5180000145639848
0.43829787234042555 0.4316126929044507 0.5156162446867454
0.43851063829787235 0.4369880102790743 0.5121062939435738
0.43872340425531914 0.4440890793931984 0.5048953733477798
0.43893617021276593 0.441133365901319 0.4958816023047411
0.4391489361702128 0.441133365901319 0.4892157234583346
