0.0 0.45676599902296044 0.4479726428920372
0.0002127659574468085 0.4550251193757894 0.44971352253920815
0.000425531914893617 0.4547677239364727 0.4499709179785248
0.0006382978723404255 0.45710152487140737 0.44965027213427183
0.000851063829787234 0.4581051759007089 0.453582115357842
0.0010638297872340426 0.45907791612806015 0.45481191988275516
0.001276595744680851 0.45927396614548216 0.45819713258504347
0.0014893617021276596 0.45968550552143034 0.4587665270105168
0.001702127659574468 0.46122952438805853 0.452590451544004
0.0019148936170212765 0.4603146525734346 0.4569182109525194
0.002127659574468085 0.4581335364474187 0.4550063738757198
0.002340425531914894 0.45412327211151676 0.45473982193303913
0.002553191489361702 0.4574060485062858 0.45659750397957183
0.0027659574468085106 0.452785531866917 0.4538348803126526
0.0029787234042553193 0.45676599902296044 0.45324213768350896
0.0031914893617021275 0.45828630357699357 0.4522608773109558
0.003404255319148936 0.4597861131467898 0.4533018628208405
0.003617021276595745 0.460412178412503 0.45586540061185754
0.003829787234042553 0.46368263705159785 0.45946503461951055
0.004042553191489362 0.46449345504516726 0.45703258063880214
0.00425531914893617 0.46612542540719126 0.45367977937614
0.004468085106382979 0.464193591136662 0.44973410262611757
0.004680851063829788 0.46278820058509984 0.44976675789071835
0.004893617021276595 0.4643307644313829 0.4516292500200493
0.005106382978723404 0.4597586360306405 0.45381027299370374
0.005319148936170213 0.45645203970820947 0.4498220689273253
0.005531914893617021 0.454061541951908 0.4484963591836289
0.00574468085106383 0.45481191988275516 0.44699560332193444
0.005957446808510639 0.4538504666546065 0.44939923639230633
0.006170212765957446 0.45589237308881986 0.4530946141109554
0.006382978723404255 0.45533275043306964 0.4532323082726543
0.006595744680851064 0.45497318752416294 0.4528578407425501
0.006808510638297872 0.4519649369679924 0.45340412966895943
0.007021276595744681 0.44949411108927306 0.45546816619405267
0.00723404255319149 0.44992672203224227 0.4551056297979166
0.007446808510638298 0.4493362870614045 0.45737749013767964
0.007659574468085106 0.44648218139775797 0.4572296166688865
0.007872340425531916 0.4457092817579947 0.4557889594528579
0.008085106382978723 0.443774465491312 0.45504092669935114
0.008297872340425531 0.44391362736386214 0.4556381022050932
0.00851063829787234 0.4416133876285812 0.45252083014213046
0.008723404255319148 0.441133365901319 0.4501682785171651
0.008936170212765958 0.4402121132249878 0.44900546935591107
0.009148936170212766 0.44303906646706503 0.44510602894767476
0.009361702127659575 0.440081654801429 0.44849534360054943
0.009574468085106383 0.4392084829440362 0.4547145992730136
0.00978723404255319 0.43941011681739434 0.45404248636181976
0.01 0.43961175069075253 0.45337037345062586
0.010212765957446808 0.4398133845641107 0.452698260539432
0.010425531914893617 0.4400150184374689 0.4520261476282381
0.010638297872340425 0.440216652310827 0.4513540347170443
0.010851063829787235 0.4404182861841852 0.45068192180585037
0.011063829787234043 0.44061992005754336 0.4500098088946565
0.01127659574468085 0.44082155393090156 0.4493376959834627
0.01148936170212766 0.4410231878042597 0.4486655830722688
0.011702127659574468 0.44122482167761784 0.44799347016107494
0.011914893617021277 0.44142645555097604 0.44732135724988104
0.012127659574468085 0.4416280894243342 0.4466492443386872
0.012340425531914893 0.4418297232976924 0.4459771314274933
0.012553191489361702 0.4420313571710505 0.44530501851629944
0.01276595744680851 0.44211040547142155 0.44586607768389186
0.01297872340425532 0.44193068133187885 0.4462767067637636
0.013191489361702127 0.44084886708321847 0.44280294622342353
0.013404255319148937 0.4397472939017149 0.4412923406124185
0.013617021276595745 0.43917928676111373 0.4396210422356065
0.013829787234042552 0.439837395523038 0.439837395523038
0.014042553191489362 0.43858507864733415 0.44251319785703974
0.01425531914893617 0.44095174529021247 0.4440039444079247
0.01446808510638298 0.44323124620887705 0.44442398753000917
0.014680851063829787 0.4450415241817294 0.4493491717359406
0.014893617021276596 0.44566950284612933 0.4509037616023448
0.015106382978723404 0.4474124239385884 0.4550719677688837
0.015319148936170212 0.44899026124456376 0.45609487471700094
0.015531914893617021 0.44992672203224227 0.45241816413191743
0.01574468085106383 0.4510330045389569 0.4539641232492646
0.015957446808510637 0.45188080117244755 0.45481191988275516
0.016170212765957447 0.45188080117244755 0.45481191988275516
0.016382978723404256 0.45021295365156944 0.45481191988275516
0.016595744680851062 0.4518556353327004 0.45481191988275516
0.01680851063829787 0.4510254577026988 0.45664430292260644
0.01702127659574468 0.4516235454843292 0.4563034708290945
0.01723404255319149 0.4501169887090588 0.4561694928064909
0.017446808510638297 0.4494712076522805 0.4543564055027934
0.017659574468085106 0.45122319378594233 0.45351544812905525
0.017872340425531916 0.45265907051948545 0.44896649400736044
0.018085106382978722 0.4554832439702659 0.4453472396643214
0.01829787234042553 0.4538348803126526 0.4430874450415241
0.01851063829787234 0.45357872812443784 0.4430874450415241
0.01872340425531915 0.45213317368636724 0.4438445625832832
0.018936170212765956 0.4528578407425501 0.4467920482364757
0.019148936170212766 0.45335304392003806 0.4474774397145491
0.019361702127659575 0.4538348803126526 0.4481175589611831
0.01957446808510638 0.45769067477927333 0.4495005102430855
0.01978723404255319 0.45895285872434055 0.4539430853833128
0.02 0.4603336872412662 0.45547067469885877
0.02021276595744681 0.46165119687347334 0.45481191988275516
0.020425531914893616 0.46165119687347334 0.4496505962087042
0.020638297872340425 0.46459373170711227 0.44723700918362735
0.020851063829787235 0.46483769798744523 0.44266566032330346
0.02106382978723404 0.46458231558378116 0.4397467174315573
0.02127659574468085 0.462594580298895 0.4411670220459999
0.02148936170212766 0.4599687882443732 0.44435361697688835
0.02170212765957447 0.45976653216755237 0.4465417907540253
0.021914893617021276 0.46129105184271324 0.44699560332193444
0.022127659574468085 0.4630119375444185 0.4463152329864619
0.022340425531914895 0.465076459864679 0.4482253395283326
0.0225531914893617 0.4655593551538837 0.44574765758464324
0.02276595744680851 0.4655593551538837 0.4477306074278123
0.02297872340425532 0.4665451190432747 0.4499528949901078
0.023191489361702126 0.4676309639112468 0.4532104295940237
0.023404255319148935 0.46775064979701975 0.4552957434080767
0.023617021276595745 0.4672279308059355 0.45316745005183195
0.023829787234042554 0.4696776953406429 0.4522642300043244
0.02404255319148936 0.4664496644397954 0.44979662660595593
0.02425531914893617 0.465226329648668 0.4476396173868214
0.02446808510638298 0.4640039816584283 0.4503057031352203
0.024680851063829785 0.460871662129552 0.45545978474255594
0.024893617021276595 0.45667204002387807 0.4606741573033708
0.025106382978723404 0.4540479008048805 0.460215745856646
0.025319148936170214 0.44975256998905405 0.45809134267943946
0.02553191489361702 0.4492527341749331 0.4593940660204748
0.02574468085106383 0.45035295657926244 0.4578676090691251
0.02595744680851064 0.44759351018418636 0.4556625818835742
0.026170212765957445 0.44572341598659426 0.4486748936389708
0.026382978723404255 0.44764307719501323 0.4484553339166038
0.026595744680851064 0.44610338339740685 0.4582959799352907
0.026808510638297874 0.4490405247597605 0.4563340132385824
0.02702127659574468 0.44902927367534495 0.46209992105192205
0.02723404255319149 0.44708624461893026 0.4636052760136786
0.0274468085106383 0.4465155526398485 0.46117114619138727
0.027659574468085105 0.4446283902411798 0.4570283612745067
0.027872340425531914 0.4450415241817294 0.45774793813150644
0.028085106382978724 0.44739319355062845 0.46028785774243164
0.028297872340425533 0.443394884455794 0.4625052606778679
0.02851063829787234 0.446965549609129 0.4635451685880677
0.02872340425531915 0.44570994028785654 0.46087963821353484
0.02893617021276596 0.4446202149816587 0.4570438642079764
0.029148936170212764 0.4456289902685773 0.45462645072702557
0.029361702127659574 0.44404481365206816 0.4509234325619035
0.029574468085106383 0.44179480273345556 0.4531734434805161
0.029787234042553193 0.4407375392204145 0.45423070699355717
0.03 0.4413263032785611 0.45442604512827106
0.03021276595744681 0.4406646915897924 0.4552409032472327
0.030425531914893618 0.43924473379541085 0.4538348803126526
0.030638297872340424 0.4382022471910112 0.451560074099019
0.030851063829787233 0.43997231183703917 0.44913369695631705
0.031063829787234043 0.4382022471910112 0.44894968246213973
0.03127659574468085 0.4378596143113924 0.4486070495825209
0.03148936170212766 0.43654174040860255 0.4490506098265096
0.03170212765957447 0.43722520762090866 0.4534180752099683
0.031914893617021274 0.4361272446247775 0.45615172973094337
0.03212765957446809 0.4333371365168834 0.4593647421511057
0.03234042553191489 0.43448611224242406 0.45325881031718296
0.0325531914893617 0.43445954643644663 0.4525269256908584
0.03276595744680851 0.43522019903406517 0.4528578407425501
0.03297872340425532 0.4352711284807034 0.4499981141040408
0.033191489361702124 0.43506339677103134 0.45069602989267277
0.03340425531914894 0.43360982930227704 0.44924246242391846
0.03361702127659574 0.432817740977533 0.44988356772058624
0.033829787234042556 0.4339285433582105 0.44821183706617385
0.03404255319148936 0.43577152421617316 0.4482347167101903
0.03425531914893617 0.4379901495820518 0.4515626547590084
0.03446808510638298 0.4382551603547959 0.4549177462103246
0.03468085106382979 0.44062381844298454 0.4584084167553201
0.03489361702127659 0.44282192451400787 0.45729704007799293
0.035106382978723406 0.44211040547142155 0.4566226226838011
0.03531914893617021 0.44336290710569776 0.4503528374739977
0.03553191489361702 0.4464189346437638 0.4456181928599
0.03574468085106383 0.44894968246213973 0.4426165367960969
0.03595744680851064 0.44922369807977625 0.4404988458532621
0.036170212765957444 0.4529810270461719 0.4444255926636203
0.036382978723404256 0.45363192909880956 0.44096813118658873
0.03659574468085106 0.4528578407425501 0.44377597613691844
0.03680851063829787 0.4513034847961259 0.4415330890950999
0.03702127659574468 0.4504445969074469 0.4386809819460114
0.03723404255319149 0.45127317174716136 0.4382022471910112
0.0374468085106383 0.4516103521885288 0.44173520012193057
0.03765957446808511 0.4485843396854713 0.44226332966978005
0.03787234042553191 0.45202505579187935 0.4461628183712637
0.038085106382978726 0.4565038057829151 0.4515530596223909
0.03829787234042553 0.45306058839909175 0.456833581575141
0.03851063829787234 0.4557889594528579 0.4581384023943844
0.03872340425531915 0.4574414158931275 0.4583751525810526
0.03893617021276596 0.4606741573033708 0.4571861822057699
0.03914893617021276 0.4606741573033708 0.45751601408069476
0.039361702127659576 0.4614124499284921 0.4545511211475964
0.03957446808510638 0.46250077438713494 0.452985302798991
0.03978723404255319 0.46262823644357587 0.45090673419927646
0.04 0.464184967493605 0.45219559392558983
0.04021276595744681 0.46165119687347334 0.449047487111614
0.04042553191489362 0.4624578368853896 0.45228412117840566
0.040638297872340426 0.4636052760136786 0.45232192399397736
0.04085106382978723 0.4649475884490197 0.4525519573901181
0.041063829787234045 0.46401085480610155 0.4567290916120057
0.04127659574468085 0.46870224528080084 0.4517965744480869
0.04148936170212766 0.4676328503327723 0.44906909850082305
0.04170212765957447 0.4675018947449374 0.44800726153949183
0.041914893617021276 0.4663935677973565 0.4514750693088636
0.04212765957446808 0.4655593551538837 0.45508643956909767
0.042340425531914895 0.46476766045304146 0.4557889594528579
0.0425531914893617 0.4651789314788139 0.4536907521660108
0.04276595744680851 0.46783609442233676 0.450581101474097
0.04297872340425532 0.4653956763338409 0.45070042141482985
0.043191489361702126 0.46277150348649276 0.4481875434564125
0.04340425531914894 0.4615514517821143 0.44411435715730635
0.043617021276595745 0.45972151553395335 0.44502932528138683
0.04382978723404255 0.4589074124072556 0.4503417588700747
0.044042553191489364 0.460451820197201 0.4463755468187484
0.04425531914893617 0.4589880826379703 0.45019472650704695
0.044468085106382976 0.457743038593063 0.4518686603325252
0.04468085106382979 0.45650298491048835 0.4504717319937439
0.044893617021276595 0.4580278163190846 0.4464800716478859
0.0451063829787234 0.4587200781631655 0.44514141849392513
0.045319148936170214 0.4557333944554954 0.4471067333166595
0.04553191489361702 0.45367688460704547 0.4509037616023448
0.045744680851063826 0.4519900545556296 0.4517715477892653
0.04595744680851064 0.44955070245308787 0.4534588607334982
0.046170212765957445 0.4502636291283439 0.4532958229646181
0.04638297872340425 0.45130989480291617 0.45155125483452746
0.046595744680851064 0.4509037616023448 0.4506313125501569
0.04680851063829787 0.45174134293119156 0.448391017615805
0.047021276595744683 0.4528514574309293 0.4547672367014096
0.04723404255319149 0.4533139306520432 0.45155494867810664
0.047446808510638296 0.45017215130010674 0.4557889594528579
0.04765957446808511 0.4499066354459356 0.4547918332964486
0.047872340425531915 0.44935452123045394 0.45470034519377256
0.04808510638297872 0.44971608442345756 0.4549844832546295
0.048297872340425534 0.4453274234744305 0.4502126213249434
0.04851063829787234 0.44406448461162684 0.44724052475991405
0.048723404255319146 0.44209779020146955 0.45096683795210474
0.04893617021276596 0.44071861943293933 0.4573096965035834
0.049148936170212765 0.4387398782207167 0.4654611326645753
0.04936170212765957 0.4393485667561838 0.46262823644357587
0.049574468085106384 0.43766468460997787 0.46209067386254254
0.04978723404255319 0.43789266214119965 0.46165119687347334
0.05 0.4382022471910112 0.45787643032118075
0.05021276595744681 0.439945801847141 0.45502244436683065
0.050425531914893615 0.441133365901319 0.45770584014362653
0.05063829787234043 0.44144099642539925 0.45563514419081774
0.050851063829787234 0.44222917388686084 0.4556701910374185
0.05106382978723404 0.4393246103327684 0.4569113225946149
0.05127659574468085 0.4398443342452946 0.45743104650714117
0.05148936170212766 0.4404536276658002 0.46007955463420325
0.051702127659574465 0.44092272833137475 0.46144055930352906
0.05191489361702128 0.4393611705473261 0.45987900151948063
0.052127659574468084 0.44006826562313184 0.4577870689471053
0.05234042553191489 0.4383760320177025 0.45906764781654813
0.0525531914893617 0.43917928676111373 0.4606741573033708
0.05276595744680851 0.4382894392045499 0.45978430974680684
0.05297872340425532 0.43946970451447387 0.45591445704620903
0.05319148936170213 0.43977641121591543 0.45044249359914396
0.053404255319148934 0.43836947656686714 0.44652025187939975
0.05361702127659575 0.4419678466903345 0.44507716387700114
0.05382978723404255 0.4401563263312165 0.4449505662447915
0.05404255319148936 0.4414124234225449 0.444692533157291
0.05425531914893617 0.4442937610514037 0.44699560332193444
0.05446808510638298 0.4422498551913036 0.44741430909395197
0.054680851063829784 0.4439440213000494 0.4479726428920372
0.0548936170212766 0.4417232414214256 0.4493368465121357
0.0551063829787234 0.44358674787690083 0.44992672203224227
0.05531914893617021 0.44501696921238987 0.4527841758345316
0.05553191489361702 0.4458199979848704 0.45255999209210773
0.05574468085106383 0.4442497132227824 0.4495562648099311
0.055957446808510634 0.4459138527831018 0.44768186669157967
0.05617021276595745 0.44756896767156884 0.44820662898333924
0.05638297872340425 0.4511273818219209 0.4519926112822355
0.056595744680851066 0.45230046694642567 0.4481841112059113
0.05680851063829787 0.4546188062651804 0.442069488451461
0.05702127659574468 0.4557889594528579 0.44627077067793364
0.05723404255319149 0.454822957458002 0.45279161529106915
0.0574468085106383 0.4565585315648051 0.44849131153742555
0.057659574468085104 0.4556476792346229 0.4534846602564509
0.05787234042553192 0.45807099948368935 0.45676257747207216
0.05808510638297872 0.45763994455189294 0.4569721871053004
0.05829787234042553 0.4587200781631655 0.4553599540046758
0.05851063829787234 0.4580630554118884 0.4617021642143524
0.05872340425531915 0.46082063614426794 0.45227192537896144
0.058936170212765954 0.45900275029355564 0.44894968246213973
0.05914893617021277 0.4596760658323173 0.44410658841352874
0.05936170212765957 0.45940054300324373 0.4457463778158007
0.059574468085106386 0.4636052760136786 0.44406448461162684
0.05978723404255319 0.4632549963446689 0.4447650439496462
0.06 0.4640250735569304 0.4460185637518319
0.06021276595744681 0.4632378643243442 0.4477596818739865
0.06042553191489362 0.46373800884639405 0.44547166250727194
0.06063829787234042 0.46458231558378116 0.4416320758717508
0.060851063829787236 0.4627416173598629 0.4429740641252371
0.06106382978723404 0.4652708010545628 0.44032945879080904
0.06127659574468085 0.46084217014347484 0.44258340652121186
0.06148936170212766 0.46165119687347334 0.44072746770430765
0.06170212765957447 0.46165119687347334 0.4457254828960933
0.06191489361702127 0.460106094753056 0.4488436254417884
0.062127659574468086 0.4587200781631655 0.44699560332193444
0.06234042553191489 0.4587200781631655 0.4489824067048835
0.0625531914893617 0.4594879193755798 0.444551833545343
0.0627659574468085 0.460574684499297 0.44572014533961046
0.06297872340425532 0.4635819480093907 0.44118002190989497
0.06319148936170213 0.4617770432469966 0.4455449096758225
0.06340425531914894 0.462996806189332 0.4485811127163836
0.06361702127659574 0.46471001148825447 0.44686790741746113
0.06382978723404255 0.46642321678717696 0.44515470211853864
0.06404255319148935 0.4607956174451299 0.4460590504657516
0.06425531914893617 0.4662712345738041 0.44850296319240146
0.06446808510638298 0.464091341122011 0.45286275009598775
0.06468085106382979 0.4615544528821744 0.4529255366224537
0.06489361702127659 0.4582985808602047 0.4498373587227886
0.0651063829787234 0.4579136420420414 0.4530284441915285
0.06531914893617022 0.4566478496832818 0.4545256231392805
0.06553191489361702 0.45740184356595714 0.4531990357696559
0.06574468085106383 0.4531385025177239 0.4556205623877536
0.06595744680851064 0.45280313397301053 0.4538895870821922
0.06617021276595744 0.45188080117244755 0.4551473869079871
0.06638297872340425 0.45188080117244755 0.4564850894032095
0.06659574468085107 0.45305977711381024 0.45736092737467493
0.06680851063829787 0.4543077387174207 0.45818457423726483
0.06702127659574468 0.4538348803126526 0.45738313534279496
0.06723404255319149 0.45456641137098763 0.4592061007097331
0.06744680851063829 0.45312387182925423 0.45969711773326827
0.06765957446808511 0.4502496490660004 0.4631747066353345
0.06787234042553192 0.451624181613127 0.4678489249658902
0.06808510638297872 0.44796611936884684 0.4747539647499524
0.06829787234042553 0.4462776642136789 0.47487091220850103
0.06851063829787234 0.44320394652504114 0.47224174836471394
0.06872340425531914 0.4428358836323002 0.4706961144136205
0.06893617021276596 0.4438455809393465 0.4674120094131074
0.06914893617021277 0.44406448461162684 0.4632486655000882
0.06936170212765957 0.4467390327593893 0.45727914014805077
0.06957446808510638 0.44319747591083153 0.4548669353174089
0.06978723404255319 0.4479776896878811 0.455783912657014
0.06999999999999999 0.44894968246213973 0.454864928412181
0.07021276595744681 0.44894968246213973 0.4567132420632296
0.07042553191489362 0.44894968246213973 0.45676599902296044
0.07063829787234042 0.44972003598357757 0.4559956455015226
0.07085106382978723 0.44849885616322843 0.45293322771483013
0.07106382978723404 0.4465401963778813 0.4475834616299799
0.07127659574468086 0.4445228167302632 0.4452706902410476
0.07148936170212766 0.44251816636228936 0.4434952059323919
0.07170212765957447 0.4414644085739463 0.44567143263142533
0.07191489361702127 0.44172354727540913 0.4505366915664753
0.07212765957446808 0.43963927518945234 0.4559467535950116
0.07234042553191489 0.4388402821202378 0.4596571433807429
0.0725531914893617 0.43853821925136394 0.4574688197546218
0.07276595744680851 0.4376727696673376 0.45420052688183704
0.07297872340425532 0.43722520762090866 0.45165046737197356
0.07319148936170213 0.43797915896337836 0.44917277068977257
0.07340425531914893 0.43917928676111373 0.44752619224674883
0.07361702127659574 0.43812179910888777 0.44646685949582143
0.07382978723404256 0.43847343607748185 0.4453944495235453
0.07404255319148936 0.43700897501242864 0.4450415241817294
0.07425531914893617 0.43624816805080613 0.44349487806989396
0.07446808510638298 0.43706081416421816 0.44552538338176034
0.07468085106382978 0.4380823109277805 0.4434472538312163
0.0748936170212766 0.43727852918679455 0.44216372703730744
0.07510638297872341 0.43908775715383663 0.44397295500434975
0.07531914893617021 0.4408830536906246 0.44321260114687133
0.07553191489361702 0.4464200241463449 0.4439685547490286
0.07574468085106383 0.44912184167656893 0.44335573849341525
0.07595744680851063 0.45334595831601693 0.4447970631834114
0.07617021276595745 0.4567659234600211 0.4465070457554135
0.07638297872340426 0.45970206078979553 0.44973823439736005
0.07659574468085106 0.4622639878903697 0.4543812531424619
0.07680851063829787 0.46104604599133603 0.45620816599101255
0.07702127659574468 0.45621739647477333 0.4612227598515579
0.0772340425531915 0.45192154297753334 0.46488083423709137
0.0774468085106383 0.44729881823675954 0.46796265073094057
0.07765957446808511 0.44360090227239096 0.4704279280405197
0.07787234042553191 0.44211040547142155 0.47209797624365635
0.07808510638297872 0.4425275258544431 0.4731671115231937
0.07829787234042553 0.4443048964291761 0.4717976026007288
0.07851063829787235 0.44748095176634917 0.46385746425779595
0.07872340425531915 0.45726214611153354 0.4546658051125789
0.07893617021276596 0.468315402147537 0.44484539317137795
0.07914893617021276 0.4762951651393234 0.4326908777460889
0.07936170212765957 0.4811272794034399 0.4298650564090966
0.07957446808510638 0.48661931032988986 0.43112764437756745
0.0797872340425532 0.4859667136789053 0.433427521787631
0.08 0.486442868810185 0.43563681116485037
0.08021276595744681 0.48215765864055204 0.43974571594765516
0.08042553191489361 0.47708636242438485 0.441133365901319
0.08063829787234042 0.4729522261251185 0.441133365901319
0.08085106382978724 0.46631940251490656 0.4436844609311154
0.08106382978723405 0.4636052760136786 0.44436602578564677
0.08127659574468085 0.46077041724644463 0.4476080580706693
0.08148936170212766 0.45747422362551937 0.4496906471647226
0.08170212765957446 0.4514257638543522 0.4525968396165464
0.08191489361702127 0.4502413744253016 0.4538348803126526
0.08212765957446809 0.4502117925682117 0.4572947254833183
0.0823404255319149 0.44992672203224227 0.45665458540809273
0.0825531914893617 0.44992672203224227 0.45915242626473457
0.08276595744680851 0.4495332457361576 0.46086424428130396
0.08297872340425531 0.44894968246213973 0.46168050195833793
0.08319148936170212 0.44952207748890216 0.4648192096436988
0.08340425531914894 0.4509037616023448 0.4598638375329846
0.08361702127659575 0.4509037616023448 0.45825812072204736
0.08382978723404255 0.45075916962786294 0.458974157860859
0.08404255319148936 0.4501643304770533 0.4540990945483221
0.08425531914893616 0.4522630320873393 0.4497141442919233
0.08446808510638298 0.4546296059147272 0.45481191988275516
0.08468085106382979 0.4538348803126526 0.4552982475383408
0.0848936170212766 0.45416841910253364 0.4560989214431983
0.0851063829787234 0.45525996852718636 0.4530197253050306
0.08531914893617021 0.456240350570536 0.4495495882493104
0.08553191489361701 0.45633813273901536 0.4479726428920372
0.08574468085106383 0.45738144095280325 0.4479726428920372
0.08595744680851064 0.4606500534447849 0.4479726428920372
0.08617021276595745 0.45727808826383903 0.44578608858721996
0.08638297872340425 0.45343452167762127 0.4458263367734749
0.08659574468085106 0.4512202461745324 0.4542065365919201
0.08680851063829788 0.45008067907647736 0.4557889594528579
0.08702127659574468 0.4473666984157984 0.45749564186382036
0.08723404255319149 0.44521091412208785 0.457743038593063
0.0874468085106383 0.4431766500569671 0.4605403497802063
0.0876595744680851 0.4407809745209069 0.45836768678275347
0.08787234042553191 0.4447766323859834 0.4608232426295743
0.08808510638297873 0.4435074801766375 0.4624882247318714
0.08829787234042553 0.4430874450415241 0.46525628593960444
0.08851063829787234 0.4411923579518352 0.4655593551538837
0.08872340425531915 0.44021366671840667 0.4634619250457032
0.08893617021276595 0.4423725241461582 0.4574094847894824
0.08914893617021276 0.4454386233714447 0.44207898866304995
0.08936170212765958 0.4460185637518319 0.4403282969677399
0.08957446808510638 0.4460185637518319 0.4417453340615726
0.08978723404255319 0.4450712331474513 0.4430577360758023
0.09 0.44373771693487196 0.4443912522883817
0.0902127659574468 0.442189550949159 0.44593941827409445
0.09042553191489362 0.44211040547142155 0.44682163127672353
0.09063829787234043 0.4414270713470921 0.4497289398192525
0.09085106382978723 0.44055030628146985 0.45265294046189253
0.09106382978723404 0.43919534835031615 0.45719830324580363
0.09127659574468085 0.4357459350436145 0.461726862509398
0.09148936170212765 0.43059360968168015 0.4640668923248463
0.09170212765957447 0.4273757707645297 0.4659975956751365
0.09191489361702128 0.4252325014852758 0.4652911238594819
0.09212765957446808 0.42452369320957506 0.4629406428963756
0.09234042553191489 0.42452369320957506 0.4621809711695972
0.0925531914893617 0.42452369320957506 0.46262823644357587
0.0927659574468085 0.4274353410406355 0.4597165886125154
0.09297872340425532 0.43073811252687905 0.45541690102617854
0.09319148936170213 0.43296533081435823 0.45151926902309
0.09340425531914893 0.43640855396347605 0.45167663775808936
0.09361702127659574 0.437978259243999 0.4571521625340801
0.09382978723404255 0.44054087136909603 0.45794053677047064
0.09404255319148937 0.4443414154890407 0.4601490757838543
0.09425531914893617 0.4492253708245123 0.46234769596048386
0.09446808510638298 0.44992672203224227 0.4600049562477903
0.09468085106382979 0.4517110700811635 0.45880494370880753
0.09489361702127659 0.4542752808196466 0.45393111886876725
0.0951063829787234 0.45316797032728057 0.4506659080019172
0.09531914893617022 0.45223423863428125 0.4450618703819691
0.09553191489361702 0.4525978154463448 0.4376821965986007
0.09574468085106383 0.45188080117244755 0.43584883694683907
0.09595744680851064 0.451785986213225 0.431362970200293
0.09617021276595744 0.450930231627585 0.431362970200293
0.09638297872340426 0.4566378410074787 0.4294516103985819
0.09659574468085107 0.45087934295172144 0.4343185075612242
0.09680851063829787 0.44997051898286283 0.4352273315300828
0.09702127659574468 0.4492120210600934 0.4345564275085545
0.09723404255319149 0.4503321932632754 0.43567659971173667
0.09744680851063829 0.4501283512358933 0.43934980951661246
0.09765957446808511 0.4507935284176686 0.44102313271664284
0.09787234042553192 0.4518793185858512 0.4450415241817294
0.09808510638297872 0.44741109107229027 0.4452492680569073
0.09829787234042553 0.4506884286411866 0.4476416022054091
0.09851063829787234 0.45091341470050705 0.44992672203224227
0.09872340425531914 0.45196897326075525 0.45037115577313963
0.09893617021276596 0.4542688661435818 0.4531471646298361
0.09914893617021277 0.4587746905772152 0.45347279217991876
0.09936170212765957 0.4610003862062805 0.452206206506044
0.09957446808510638 0.4609746089849583 0.44917444961838726
0.09978723404255319 0.4629418950704783 0.44494899253589393
0.1 0.46274397404696954 0.4406192767447911
0.10021276595744681 0.46653613021887524 0.4401563263312165
0.10042553191489362 0.46458231558378116 0.4401563263312165
0.10063829787234042 0.4648011792736756 0.4405940537110054
0.10085106382978723 0.4655593551538837 0.4427647044076296
0.10106382978723404 0.46641419395108186 0.4466290010032211
0.10127659574468086 0.4696655817355674 0.4493886851718727
0.10148936170212766 0.47012880718820116 0.45088886054158694
0.10170212765957447 0.468707852080305 0.45340012388042555
0.10191489361702127 0.4684904738641915 0.45633878166667197
0.10212765957446808 0.4658134365128646 0.4612277279418385
0.10234042553191489 0.4673595149204887 0.4589509572235659
0.1025531914893617 0.46840001162693257 0.46226638749454
0.10276595744680851 0.4656685450861327 0.4598063076655173
0.10297872340425532 0.4645876443317579 0.4596891246113032
0.10319148936170212 0.4664312117352667 0.4566608160342409
0.10340425531914893 0.46418755217295365 0.45451584732463457
0.10361702127659575 0.4606797330673899 0.45187243752641887
0.10382978723404256 0.46248190697314573 0.44916917666778494
0.10404255319148936 0.4593284622688007 0.448124738918446
0.10425531914893617 0.45795580431652605 0.4510297382785953
0.10446808510638297 0.46087866158132185 0.45188080117244755
0.10468085106382978 0.4624162516829805 0.45570607521998363
0.1048936170212766 0.4548958151158989 0.45908572542126364
0.1051063829787234 0.4545042224018783 0.4646362627112532
0.10531914893617021 0.45481191988275516 0.46471327261370504
0.10553191489361702 0.4505265524082796 0.4602969481093056
0.10574468085106382 0.44906409877625875 0.45797187122130106
0.10595744680851064 0.4569036861170658 0.4489052567542563
0.10617021276595745 0.4523156101770352 0.4479726428920372
0.10638297872340426 0.45374661299004543 0.44983845470963507
0.10659574468085106 0.4624146479465254 0.44802010700249284
0.10680851063829787 0.4567919728395788 0.4479726428920372
0.10702127659574467 0.45581919646310254 0.44794240588179257
0.1072340425531915 0.45675149332061143 0.44701010902428345
0.1074468085106383 0.45586579779876635 0.4480014572717529
0.1076595744680851 0.4631140809052822 0.45071956343669617
0.10787234042553191 0.4537646259924807 0.4489637333261741
0.10808510638297872 0.4489609230652652 0.4499604438416186
0.10829787234042552 0.4493069713393825 0.45248599032683423
0.10851063829787234 0.4448078677587295 0.44945940918624244
0.10872340425531915 0.44372561955397 0.4486503730073507
0.10893617021276596 0.4413059408105028 0.45126285020550827
0.10914893617021276 0.44245015619959704 0.4506772611168946
0.10936170212765957 0.44242673760736095 0.4502570757493239
0.10957446808510639 0.4395929405460679 0.4509037616023448
0.1097872340425532 0.4400660210469934 0.4500170273164653
0.11 0.44017907284856966 0.44806362896144986
0.1102127659574468 0.44141386198886273 0.45131980899736013
0.11042553191489361 0.4428332841913843 0.4502600905432956
0.11063829787234042 0.44248097592932945 0.4560248581071446
0.11085106382978724 0.4430874450415241 0.45481191988275516
0.11106382978723404 0.44248517005581023 0.4554141948684691
0.11127659574468085 0.44211040547142155 0.45435179515528773
0.11148936170212766 0.44211040547142155 0.4521711871330005
0.11170212765957446 0.44255439273291797 0.45188080117244755
0.11191489361702127 0.4430666565595669 0.45188080117244755
0.11212765957446809 0.4422432492718526 0.4577901715601482
0.1123404255319149 0.4415678270390891 0.45546460756917057
0.1125531914893617 0.44147089397848044 0.45387042497403446
0.1127659574468085 0.4412660006805911 0.45410014987119685
0.11297872340425531 0.4401563263312165 0.45188080117244755
0.11319148936170213 0.4401563263312165 0.4524917619588374
0.11340425531914894 0.44087417878107055 0.4492685784932797
0.11361702127659574 0.44606583119099963 0.4463284877954769
0.11382978723404255 0.4395508310539108 0.44974094988584373
0.11404255319148936 0.43832691471694685 0.4479726428920372
0.11425531914893616 0.43964365886429824 0.448314421203316
0.11446808510638298 0.43836109366841264 0.45021069354411825
0.11468085106382979 0.44074506145295383 0.4505154571539796
0.1148936170212766 0.4401563263312165 0.45091406384087424
0.1151063829787234 0.44075908065650304 0.4506752925218744
0.11531914893617021 0.4425611875606187 0.4506406328618921
0.11553191489361703 0.4483379033699621 0.44940363065136263
0.11574468085106383 0.4466244604032765 0.44894968246213973
0.11595744680851064 0.4460185637518319 0.4480107524579469
0.11617021276595745 0.4509037616023448 0.44774751512546007
0.11638297872340425 0.45146958714691576 0.4450415241817294
0.11659574468085106 0.4538348803126526 0.44550404400002896
0.11680851063829788 0.4538348803126526 0.44699560332193444
0.11702127659574468 0.45357671300105856 0.44725377063352856
0.11723404255319149 0.4539621043838042 0.4472364671312011
0.1174468085106383 0.45440642490833677 0.4487836328408742
0.1176595744680851 0.4556352253970066 0.45132532424155614
0.11787234042553191 0.45707689001730045 0.4509037616023448
0.11808510638297873 0.45831804066434106 0.4547838657057967
0.11829787234042553 0.45695574585366466 0.450495962524355
0.11851063829787234 0.45393025521558356 0.44898147409645006
0.11872340425531915 0.45743795517114477 0.44894968246213973
0.11893617021276595 0.45618753582371196 0.445060925538762
0.11914893617021277 0.4569436844404455 0.44752865957438964
0.11936170212765958 0.45925722204976516 0.4501430339546283
0.11957446808510638 0.46247495920439996 0.4506027106910047
0.11978723404255319 0.46569269635903476 0.45106238742738114
0.12 0.4689104335136696 0.45152206416375756
0.1202127659574468 0.4703812680709286 0.45309451309328
0.12042553191489362 0.4656436589695909 0.45862172371150706
0.12063829787234043 0.4663683059373685 0.46600063521452917
0.12085106382978723 0.46932436097858 0.46611945116679204
0.12106382978723404 0.4692878727704112 0.4678727156218547
0.12127659574468085 0.46758388477718515 0.4690142188907909
0.12148936170212765 0.464975453476295 0.46810023855226873
0.12170212765957447 0.46262823644357587 0.46667956557176254
0.12191489361702128 0.46262823644357587 0.46730120353466564
0.12212765957446808 0.4622133068056659 0.4673928652447442
0.12234042553191489 0.4613255148748899 0.4639309515866142
0.1225531914893617 0.45974775634660703 0.4623966362043849
0.12276595744680852 0.4570029758013077 0.4607032897600843
0.12297872340425532 0.4572535709342832 0.45627463561672355
0.12319148936170213 0.455564626701946 0.4503104719160644
0.12340425531914893 0.4549498232150546 0.4446278141848311
0.12361702127659574 0.4556804779107363 0.4424358500977864
0.12382978723404255 0.4549552743846999 0.4437777756077374
0.12404255319148937 0.45481191988275516 0.44491418603966343
0.12425531914893617 0.45481191988275516 0.4512958219610946
0.12446808510638298 0.45670915154336794 0.4521518342668208
0.12468085106382978 0.45877488012363266 0.4524469383497157
0.12489361702127659 0.46084060870389737 0.4527420424326107
0.1251063829787234 0.45959983143481264 0.45614002544440724
0.12531914893617022 0.45676599902296044 0.45996660537979145
0.125531914893617 0.45666923087517397 0.4554986550094986
0.12574468085106383 0.45483342201589233 0.4498944688325365
0.12595744680851065 0.45664704831964215 0.44731280519744987
0.12617021276595744 0.45390408809082317 0.4541890498792201
0.12638297872340426 0.45546352646015864 0.44627920638279334
0.12659574468085105 0.459457808199477 0.44892988102720205
0.12680851063829787 0.45803523430502746 0.4539353327468618
0.1270212765957447 0.45452420009818506 0.45908811794792825
0.12723404255319148 0.45093397352851033 0.4644614678791195
0.1274468085106383 0.44747595182507865 0.4665298576984606
0.1276595744680851 0.4465878328622547 0.4635514431300976
0.12787234042553192 0.4435707141099094 0.45932678985698006
0.1280851063829787 0.4394955277288697 0.45808759622765377
0.12829787234042553 0.4399528255213951 0.45562592312204064
0.12851063829787235 0.4401563263312165 0.45481191988275516
0.12872340425531914 0.44211040547142155 0.4509448543662279
0.12893617021276596 0.4423673146138799 0.45260093160009174
0.12914893617021275 0.44479433658827344 0.4501739096256982
0.12936170212765957 0.4462881817747792 0.44868006443919245
0.1295744680851064 0.44364957845889086 0.44946274012462945
0.12978723404255318 0.4432574833398167 0.4495232213963372
0.13 0.445434387517536 0.44924177057928766
0.1302127659574468 0.44441895072031673 0.4545483280724432
0.13042553191489362 0.44406448461162684 0.45303834702440976
0.13063829787234044 0.44576264492705886 0.4577942223580176
0.13085106382978723 0.441133365901319 0.45806746093524403
0.13106382978723405 0.4416509799749113 0.4553295339563475
0.13127659574468084 0.44275921115962164 0.45775070066866796
0.13148936170212766 0.4407929059268518 0.45969711773326827
0.13170212765957448 0.4375297289031627 0.45914726511395115
0.13191489361702127 0.4355905296970107 0.4606929932245515
0.1321276595744681 0.43450295438562025 0.4639557191587229
0.13234042553191488 0.43606088007939076 0.46193212883059637
0.1325531914893617 0.4343751452310183 0.4568267912632735
0.1327659574468085 0.4382022471910112 0.4593287688990489
0.13297872340425532 0.43854593888968246 0.4557889594528579
0.13319148936170214 0.440711497763628 0.4566217166014752
0.13340425531914893 0.4424881376784334 0.45569822050707026
0.13361702127659575 0.44553329370672207 0.44943625240322616
0.13382978723404254 0.4479726428920372 0.44737406529956886
0.13404255319148936 0.4486831258724363 0.4434431884199386
0.13425531914893618 0.4497721493675313 0.44540027309298796
0.13446808510638297 0.44805682819984965 0.448823404500421
0.1346808510638298 0.4506269581742859 0.4492956867472133
0.13489361702127659 0.44683817375924983 0.4541497394380219
0.1351063829787234 0.44577145180264616 0.4545533997069291
0.13531914893617022 0.44447243849839907 0.44976559023568424
0.13553191489361702 0.44328820002864516 0.4463933383605714
0.13574468085106384 0.444208663609909 0.4439923951124857
0.13595744680851063 0.4459100766127305 0.4427077400546692
0.13617021276595745 0.4441272151110448 0.43646772479876894
0.13638297872340424 0.44406448461162684 0.43468966856908764
0.13659574468085106 0.44614737435945184 0.43151690258016734
0.13680851063829788 0.44446940029264365 0.4322805829021586
0.13702127659574467 0.4420025511239753 0.4344019432580471
0.1372340425531915 0.44204999061400896 0.4352711284807034
0.13744680851063829 0.4442064275001018 0.43564412263356267
0.1376595744680851 0.44706423555437813 0.4365095860014427
0.13787234042553193 0.4505344035745173 0.43661752607863363
0.13808510638297872 0.45386966404801804 0.43338661681122914
0.13829787234042554 0.45458990921712256 0.4348271071494382
0.13851063829787233 0.45713748098033746 0.4357362407002199
0.13872340425531915 0.4593313083279368 0.43752850096946616
0.13893617021276597 0.4577982587152934 0.4428941746137177
0.13914893617021276 0.4585886604800961 0.44816117636372316
0.13936170212765958 0.45803182545320653 0.4537674514318529
0.13957446808510637 0.457743038593063 0.4580654918860159
0.1397872340425532 0.4582858166740401 0.46148832442483645
0.13999999999999999 0.45873009802725306 0.46392761591568366
0.1402127659574468 0.4585612840405157 0.4660185435978254
0.14042553191489363 0.4612521288244823 0.46888954191318255
0.14063829787234042 0.46020461260381323 0.46665024523694837
0.14085106382978724 0.45858029164244546 0.4608132107866217
0.14106382978723403 0.4609884619929946 0.45158014668331603
0.14127659574468085 0.4632600910717216 0.44228595123872655
0.14148936170212767 0.4648420233114154 0.4360874185167717
0.14170212765957446 0.4655593551538837 0.43429408891060084
0.14191489361702128 0.4648320287943576 0.43574874162965327
0.14212765957446807 0.465411935666616 0.43541854796797114
0.1423404255319149 0.4617961082760607 0.4427976222363494
0.1425531914893617 0.4645029808881643 0.44211040547142155
0.1427659574468085 0.4633943027489217 0.44253235200093544
0.14297872340425533 0.46296773777090666 0.4447434872662883
0.14319148936170212 0.46407407815938323 0.44508095946042264
0.14340425531914894 0.46698286737722405 0.44586489845670896
0.14361702127659573 0.4696851693658307 0.44938499432521295
0.14382978723404255 0.469188945384854 0.4521593692218875
0.14404255319148937 0.472889311206874 0.4579898176423464
0.14425531914893616 0.46844259322308945 0.4571642099925321
0.14446808510638298 0.4656025425842581 0.4672759034270298
0.14468085106382977 0.4580288823566015 0.467513434294089
0.1448936170212766 0.4557889594528579 0.47142159257449934
0.1451063829787234 0.45445405388462057 0.4724227717506773
0.1453191489361702 0.4468775809750261 0.47673629903660925
0.14553191489361703 0.44444691040800005 0.4745648992621632
0.14574468085106382 0.4450415241817294 0.4695000558227537
0.14595744680851064 0.44386594387765055 0.46262040439368685
0.14617021276595746 0.4461347159770567 0.45945524892915773
0.14638297872340425 0.4484742351503939 0.45671370912973847
0.14659574468085107 0.44929307598188195 0.4534383458037861
0.14680851063829786 0.45011191681336993 0.4501629824778342
0.14702127659574468 0.4509319659320168 0.44685458167357467
0.14723404255319147 0.4517874563895126 0.44257712938609617
0.1474468085106383 0.4509171348849336 0.43921940660888026
0.14765957446808511 0.453654415861932 0.43826240200791805
0.1478723404255319 0.4557889594528579 0.43624816805080613
0.14808510638297873 0.4557889594528579 0.4359441289480963
0.14829787234042552 0.45552169388052344 0.43563041677227293
0.14851063829787234 0.45367909627626835 0.44068971823642955
0.14872340425531916 0.45236272583830833 0.4454970683708283
0.14893617021276595 0.4498909266351417 0.4503461741779639
0.14914893617021277 0.4479726428920372 0.4568417653955952
0.14936170212765956 0.4463221175819033 0.45459376488783115
0.14957446808510638 0.44130733092354785 0.45006589405002534
0.1497872340425532 0.4352711284807034 0.4474935158934232
0.15 0.4344967292435913 0.4417232058528655
0.15021276595744681 0.43227999706732717 0.4401563263312165
0.1504255319148936 0.43346094649024286 0.4384900414905004
0.15063829787234043 0.4328732023222136 0.43518178294717036
0.15085106382978725 0.43267076648070674 0.43752550320955874
0.15106382978723404 0.43462607441376805 0.43841726521332297
0.15127659574468086 0.4370130090890475 0.4408150681035273
0.15148936170212765 0.4399251997375661 0.44383335801797646
0.15170212765957447 0.4401563263312165 0.44596258491274177
0.15191489361702126 0.4416928788362169 0.44909166876183293
0.15212765957446808 0.4408560099508372 0.4504643201124927
0.1523404255319149 0.4391508932910813 0.45119508439524525
0.1525531914893617 0.43744577663132567 0.4519258486779977
0.15276595744680851 0.4357406599715698 0.45265661296075016
0.1529787234042553 0.43312720498236884 0.4528578407425501
0.15319148936170213 0.4310697434143519 0.4543239746722557
0.15340425531914895 0.4304882290229852 0.4574872926110761
0.15361702127659574 0.4322350234136667 0.4531203066343727
0.15382978723404256 0.4323400097703958 0.45881132480333264
0.15404255319148935 0.43458640228210765 0.45663065078228937
0.15425531914893617 0.43708998872719634 0.45174558227873524
0.154468085106383 0.436298215850334 0.4509538094018727
0.15468085106382978 0.43779739903266207 0.4516783770932729
0.1548936170212766 0.439571965667196 0.4527939468232373
0.1551063829787234 0.44179265747996455 0.45357116368119443
0.15531914893617021 0.44612335349595306 0.4517760114283264
0.155531914893617 0.4473516805622616 0.4507257229821812
0.15574468085106383 0.4509037616023448 0.4491430633844097
0.15595744680851065 0.4510600654916377 0.46145581701185723
0.15617021276595744 0.4549482471238177 0.4558117083355226
0.15638297872340426 0.4562564628868363 0.4506279771832099
0.15659574468085105 0.4563788877060003 0.45251680302078445
0.15680851063829787 0.4538348803126526 0.4514320157290103
0.1570212765957447 0.4543963809709629 0.453149764235586
0.15723404255319148 0.45211591482295727 0.45481191988275516
0.1574468085106383 0.45554261937415647 0.4540387769207866
0.1576595744680851 0.45059586696900106 0.460005012366612
0.15787234042553192 0.45098053982294106 0.4557697648977089
0.15808510638297874 0.45481191988275516 0.4546794166629357
0.15829787234042553 0.45527886709907867 0.4536014067044909
0.15851063829787235 0.4578008956033124 0.45147797863541417
0.15872340425531914 0.45969711773326827 0.44849038141620656
0.15893617021276596 0.46027184920475667 0.449122105835014
0.15914893617021275 0.45948593124819365 0.4469561568942996
0.15936170212765957 0.4580778849351189 0.44568371740977597
0.1595744680851064 0.46364162366315503 0.44823053315311645
0.15978723404255318 0.4588798068284899 0.44894968246213973
0.16 0.457743038593063 0.4527524418912906
0.1602127659574468 0.4595309126123108 0.45464571476179777
0.16042553191489362 0.45695415147594404 0.4524633971839906
0.16063829787234044 0.4538348803126526 0.450278389263704
0.16085106382978723 0.4534079671881837 0.4502304218355465
0.16106382978723405 0.45393549468078387 0.4502643202650968
0.16127659574468084 0.456770546924344 0.44894968246213973
0.16148936170212766 0.4592238737033086 0.4459880122416487
0.16170212765957448 0.46137494056757977 0.44168587851310614
0.16191489361702127 0.4664127298149883 0.441133365901319
0.1621276595744681 0.46564878953671884 0.44184884096400023
0.16234042553191488 0.4663326175039522 0.44935723690220775
0.1625531914893617 0.4661936320301133 0.452172315354804
0.1627659574468085 0.46664908671131766 0.4556762674655265
0.16297872340425532 0.46665340502362945 0.45786004889270604
0.16319148936170214 0.46553141028597195 0.459380752832538
0.16340425531914893 0.46739298713605415 0.4582917819571317
0.16361702127659575 0.4657505639588239 0.45568810616403727
0.16382978723404254 0.46978910674103685 0.45332426526639646
0.16404255319148936 0.463791424506596 0.45794461945448545
0.16425531914893618 0.46167014157644504 0.45105531922611836
0.16446808510638297 0.46333624477214413 0.4509037616023448
0.1646808510638298 0.4608803638867229 0.45049134843564065
0.16489361702127658 0.4606808079036931 0.4483027564822862
0.1651063829787234 0.458283122445131 0.44699560332193444
0.16531914893617022 0.457743038593063 0.44699560332193444
0.16553191489361702 0.45509437528388463 0.44831993497652367
0.16574468085106384 0.45305816082888084 0.4512798409134552
0.16595744680851063 0.45106598047410296 0.45188080117244755
0.16617021276595745 0.4520134358801163 0.4538348803126526
0.16638297872340424 0.45491024675210473 0.4539604106984745
0.16659574468085106 0.44894968246213973 0.45504939674391287
0.16680851063829788 0.4485989001711497 0.45508739487087774
0.16702127659574467 0.4479726428920372 0.4529044799252443
0.1672340425531915 0.44855040986730893 0.45188080117244755
0.16744680851063828 0.44756590415076414 0.45049702286107196
0.1676595744680851 0.4461964419561501 0.44673007656910485
0.16787234042553192 0.4478429657810822 0.4441941617225818
0.16808510638297872 0.4440200126615431 0.44610750765199936
0.16829787234042554 0.44261900113052793 0.4476603469513731
0.16851063829787233 0.4393536235847329 0.4470888340804767
0.16872340425531915 0.4368426198015029 0.44992672203224227
0.16893617021276597 0.43575198021660827 0.45191147336903337
0.16914893617021276 0.4346648707964839 0.45807868410218905
0.16936170212765958 0.4307237649727272 0.46424448124124446
0.16957446808510637 0.4310592050807278 0.46473419814356376
0.1697872340425532 0.431362970200293 0.46458231558378116
0.17 0.43647277714469584 0.4636052760136786
0.1702127659574468 0.43974589906201117 0.46473850061547345
0.17042553191489362 0.4427156795984964 0.46674377986245746
0.17063829787234042 0.4453014546241441 0.4598495106283592
0.17085106382978724 0.4454864609251278 0.45771398323196105
0.17106382978723403 0.44567708534758693 0.4583785997589207
0.17127659574468085 0.44533925228476745 0.46024923474565727
0.17148936170212767 0.4451578333047815 0.4577585607882916
0.17170212765957446 0.44679936569361045 0.45282980679564666
0.17191489361702128 0.4402618824048657 0.4518958806115403
0.17212765957446807 0.43629447772447366 0.4498341026849072
0.1723404255319149 0.4389908878558352 0.44406448461162684
0.1725531914893617 0.43595088629192635 0.44386629677237366
0.1727659574468085 0.43374786239949675 0.44211040547142155
0.17297872340425532 0.43737463965941126 0.4427081336254319
0.17319148936170212 0.43730707667419094 0.4465556660619241
0.17340425531914894 0.433635586637129 0.4493956346774227
0.17361702127659576 0.43784977309755374 0.45529549572201744
0.17382978723404255 0.4374507248191379 0.45729200419660454
0.17404255319148937 0.4387028575315868 0.45478773877170653
0.17425531914893616 0.44165884401797034 0.452181842141415
0.17446808510638298 0.44304106416846456 0.44908882508131837
0.17468085106382977 0.44986680908393806 0.4403959781244333
0.1748936170212766 0.44820344542839197 0.44316900017112953
0.1751063829787234 0.4438007102281572 0.43925734472488964
0.1753191489361702 0.4438020184148749 0.44425412559147387
0.17553191489361702 0.4454145668767818 0.44983785636729967
0.17574468085106382 0.4460185637518319 0.45324927454810365
0.17595744680851064 0.4460185637518319 0.4513276302212922
0.17617021276595746 0.44418046233967245 0.44894968246213973
0.17638297872340425 0.4430874450415241 0.44894968246213973
0.17659574468085107 0.44143825915662216 0.44812508951968877
0.17680851063829786 0.4476693321488583 0.44330409557236616
0.17702127659574468 0.4462859748977643 0.4472630144678668
0.1772340425531915 0.45028755608209053 0.449640842427876
0.1774468085106383 0.4524607870129676 0.44377449169136673
0.1776595744680851 0.4530429898051926 0.4434833902952542
0.1778723404255319 0.4528950691951064 0.4450787526342857
0.17808510638297873 0.45568453100489986 0.4472516642133301
0.17829787234042552 0.45968544744541173 0.44870250499764996
0.17851063829787234 0.458143302277259 0.4514805374882515
0.17872340425531916 0.457743038593063 0.45857581270716713
0.17893617021276595 0.46136817726597834 0.4636052760136786
0.17914893617021277 0.4585142822152226 0.46607482738899375
0.17936170212765956 0.45806208940723436 0.4724582935273669
0.17957446808510638 0.45914970958036516 0.4648178690551879
0.1797872340425532 0.46023599414763944 0.4593949779573488
0.18 0.4600826271645489 0.45439987846767277
0.1802127659574468 0.4636679035666196 0.4488870549091986
0.1804255319148936 0.4647872135797189 0.4446791785994402
0.18063829787234043 0.46458231558378116 0.44318009114604046
0.18085106382978725 0.46367160114668793 0.4469513865665949
0.18106382978723404 0.4665363947239862 0.44545050860811947
0.18127659574468086 0.4665363947239862 0.4472524605864802
0.18148936170212765 0.4665363947239862 0.44469115866559467
0.18170212765957447 0.4665363947239862 0.44452878630395776
0.18191489361702126 0.4682649713775562 0.44619390861744257
0.18212765957446808 0.46946751343429405 0.4497421519652272
0.1823404255319149 0.4662790346234822 0.4509037616023448
0.1825531914893617 0.46191143211467467 0.45637564616115844
0.1827659574468085 0.46165119687347334 0.4607776995578761
0.1829787234042553 0.46165119687347334 0.46230107858701697
0.18319148936170213 0.46109797292407545 0.4612273812527687
0.18340425531914895 0.45930865742131277 0.46262823644357587
0.18361702127659574 0.4597258964640193 0.46212532729314904
0.18382978723404256 0.4594431567765787 0.4604201963466814
0.18404255319148935 0.45521745086674326 0.45759554135541486
0.18425531914893617 0.4538348803126526 0.45516111940718196
0.184468085106383 0.4520083706915638 0.4511589006405773
0.18468085106382978 0.45188080117244755 0.4515361945866982
0.1848936170212766 0.45212691679647743 0.4451645819937443
0.1851063829787234 0.4541892401265519 0.44566420393793266
0.1853191489361702 0.4557889594528579 0.44406448461162684
0.185531914893617 0.4569469330708232 0.44435397801611815
0.18574468085106383 0.4593938823843133 0.4432221120879997
0.18595744680851065 0.4580300064652953 0.43883425091217865
0.18617021276595744 0.45676599902296044 0.43674410229903404
0.18638297872340426 0.45846527556411076 0.43514372718117605
0.18659574468085105 0.45970477568705825 0.4357634772426498
0.18680851063829787 0.4608753189303589 0.4379651794396952
0.1870212765957447 0.46086392165526385 0.442508746048966
0.18723404255319148 0.4579194898740337 0.4446570272313717
0.1874468085106383 0.45676599902296044 0.44557841686864413
0.1876595744680851 0.4560614280192685 0.4460185637518319
0.18787234042553191 0.4544988555200755 0.4457837654798222
0.18808510638297873 0.45123838999927907 0.44333841633922483
0.18829787234042553 0.45164408918517795 0.4453084277900233
0.18851063829787235 0.44947496845466434 0.45083022918739835
0.18872340425531914 0.447617070445631 0.4538348803126526
0.18893617021276596 0.4468783863683419 0.45392279302784705
0.18914893617021278 0.4430309790740407 0.4567801155148313
0.18936170212765957 0.4391842382425042 0.45774180072271536
0.1895744680851064 0.43917928676111373 0.457743038593063
0.18978723404255318 0.43917928676111373 0.4544443258790723
0.19 0.4355770837707539 0.4538348803126526
0.1902127659574468 0.43429408891060084 0.4532398990538428
0.19042553191489361 0.4356402668183329 0.45375529268103804
0.19063829787234043 0.43722520762090866 0.45391442458435843
0.19085106382978723 0.43722520762090866 0.45119414803737784
0.19106382978723405 0.43761134739710655 0.4477409590263185
0.19127659574468084 0.44183759684524904 0.4452052093574329
0.19148936170212766 0.4426654620416571 0.4483718636031426
0.19170212765957448 0.44387923757149356 0.4515635887106527
0.19191489361702127 0.4466206849917563 0.45384812822753834
0.1921276595744681 0.449372863237742 0.45635320048699424
0.19234042553191488 0.45211017383768265 0.46004117673112094
0.1925531914893617 0.45363403774213307 0.4624273938730563
0.19276595744680852 0.45131930439615653 0.4622666114120308
0.19297872340425531 0.44756739101010096 0.4619842684859338
0.19319148936170213 0.4454844262869322 0.4581859406982659
0.19340425531914893 0.4409782617604005 0.4549142653122247
0.19361702127659575 0.44282630012414975 0.4531054776400455
0.19382978723404254 0.43232162832116405 0.4536966161918688
0.19404255319148936 0.42848295036400086 0.45002891978027315
0.19425531914893618 0.4260502088279439 0.45056171078487584
0.19446808510638297 0.421786983735877 0.44719001255854424
0.1946808510638298 0.42348933172405584 0.44735949778891315
0.19489361702127658 0.42633792945512927 0.4468557604272837
0.1951063829787234 0.42850820228114445 0.4469192525307754
0.19531914893617022 0.4325869158490644 0.44474735383624137
0.19553191489361701 0.4370057785709993 0.44406448461162684
0.19574468085106383 0.4404687228662962 0.44255350082810346
0.19595744680851063 0.44544660865938973 0.44469835112626405
0.19617021276595745 0.4469877243862419 0.44310320291290917
0.19638297872340427 0.452461227704113 0.4460185637518319
0.19659574468085106 0.44894968246213973 0.4472863553857863
0.19680851063829788 0.44927282127029566 0.4525270787887595
0.19702127659574467 0.44992672203224227 0.4551401433209513
0.1972340425531915 0.4521252380160823 0.4584148860108405
0.19744680851063828 0.4512411202528483 0.46293931780802366
0.1976595744680851 0.44992672203224227 0.46383328108721344
0.19787234042553192 0.45062183725341215 0.4643003912348485
0.19808510638297872 0.44953762634105837 0.4632161803224946
0.19829787234042554 0.44894968246213973 0.45954445664715193
0.19851063829787233 0.4524480657422694 0.46046926980323044
0.19872340425531915 0.4490276067106749 0.4616338803737989
0.19893617021276597 0.45713406185660493 0.4586009596076438
0.19914893617021276 0.4530942510481333 0.45255863374142735
0.19936170212765958 0.4559268089279711 0.45460514567008536
0.19957446808510637 0.4601424486161602 0.44984034422792357
0.1997872340425532 0.4601359628283338 0.44821278922715974
0.2 0.4649072439660622 0.4466698295309311
0.2002127659574468 0.46447285518493364 0.4500361824310898
0.20042553191489362 0.466217463255544 0.44916230344110125
0.20063829787234042 0.4675130012734037 0.44894968246213973
0.20085106382978724 0.4667570696951355 0.4497060470610931
0.20106382978723403 0.4675992464277633 0.4479726428920372
0.20127659574468085 0.4655805669277408 0.44830539334002373
0.20148936170212767 0.4701818467891701 0.451173359541374
0.20170212765957446 0.47169337249047866 0.4538348803126526
0.20191489361702128 0.4704445530043966 0.4572136342890428
0.20212765957446807 0.4712313881288534 0.45242539716751223
0.2023404255319149 0.4651317549042413 0.45000521336373656
0.2025531914893617 0.46759902744964416 0.4509037616023448
0.2027659574468085 0.4701606383844904 0.45132963353220407
0.20297872340425532 0.46747287487903266 0.45205408208862463
0.20319148936170212 0.46348034792513343 0.44699560332193444
0.20340425531914894 0.46165119687347334 0.4479513614206836
0.20361702127659576 0.4628163792528728 0.4472019088930407
0.20382978723404255 0.46429567218039963 0.44739935608527404
0.20404255319148937 0.46216623550440117 0.44636192283911713
0.20425531914893616 0.4625265564932748 0.4416417656528243
0.20446808510638298 0.4643840526650067 0.4420112740120343
0.20468085106382977 0.4686972003066801 0.4396414746376821
0.2048936170212766 0.46488614259187405 0.4414699721823238
0.2051063829787234 0.4628061168049629 0.4469053607237152
0.2053191489361702 0.4590697151330829 0.4479726428920372
0.20553191489361702 0.4557531468418395 0.45092166790785404
0.20574468085106382 0.4538348803126526 0.45236344411675
0.20595744680851064 0.45317742294808755 0.45556980699800287
0.20617021276595746 0.4506297177488035 0.4537157444685898
0.20638297872340425 0.45107527849930146 0.45119090071910967
0.20659574468085107 0.4538348803126526 0.45148502694923265
0.20680851063829786 0.4533351542208124 0.45040403551050456
0.20702127659574468 0.45345039898513 0.44992672203224227
0.2072340425531915 0.45453055765521727 0.44992672203224227
0.2074468085106383 0.4515702176916376 0.4466850198411247
0.2076595744680851 0.4534185626810353 0.44937163185675255
0.2078723404255319 0.45196326638559275 0.44244026632400235
0.20808510638297872 0.45150439914169654 0.4462444049702825
0.20829787234042554 0.44737154288102765 0.44988953135987264
0.20851063829787234 0.4471815044014851 0.45236139859544044
0.20872340425531916 0.44186820582378805 0.4501689216798758
0.20893617021276595 0.4401563263312165 0.45084695251809764
0.20914893617021277 0.4401563263312165 0.44992672203224227
0.20936170212765956 0.4401563263312165 0.4514189813010893
0.20957446808510638 0.44101768779465605 0.45188080117244755
0.2097872340425532 0.4391859402996835 0.45967050357898925
0.21 0.44533490354657423 0.46308400991374765
0.2102127659574468 0.4401563263312165 0.46674999436201253
0.2104255319148936 0.4401563263312165 0.46833996986000753
0.21063829787234042 0.43900792726837046 0.4700617533167813
0.21085106382978724 0.4386329435671571 0.4691859662450444
0.21106382978723404 0.44173278222076706 0.4685659985143224
0.21127659574468086 0.44211040547142155 0.453269808180662
0.21148936170212765 0.440975048358305 0.4470747620934415
0.21170212765957447 0.43917928676111373 0.4475304436534385
0.2119148936170213 0.43985538515221895 0.44406448461162684
0.21212765957446808 0.4441391412435273 0.443050116725574
0.2123404255319149 0.4466557884779199 0.44025546295857415
0.2125531914893617 0.44732704987758876 0.4387221816219419
0.2127659574468085 0.4471827083619511 0.4386595828027264
0.2129787234042553 0.44406448461162684 0.44185818559726353
0.21319148936170212 0.442138353811915 0.4466326590112426
0.21340425531914894 0.4403846710059563 0.4487213377873999
0.21361702127659574 0.43586875124514146 0.45323725754821453
0.21382978723404256 0.4352711284807034 0.46150546064865855
0.21404255319148935 0.4359556812464102 0.46407325490071205
0.21425531914893617 0.43217867678974203 0.4707690273029402
0.214468085106383 0.4350015453166092 0.4672641097472496
0.21468085106382978 0.4307600633059004 0.4668378481711826
0.2148936170212766 0.4298159379177916 0.467513434294089
0.2151063829787234 0.4303859306301905 0.4654534353127015
0.2153191489361702 0.43289143545621517 0.46297889980717233
0.21553191489361703 0.4364366381900383 0.4633424195367218
0.21574468085106382 0.43722520762090866 0.46034909919146144
0.21595744680851064 0.44251548893154136 0.4552885499744075
0.21617021276595744 0.4440284117290232 0.44822515307026267
0.21638297872340426 0.4480930748697749 0.4320991458149203
0.21659574468085105 0.44975770556150146 0.4282628350192446
0.21680851063829787 0.45007180684551784 0.42773534301572724
0.2170212765957447 0.45324384682827795 0.4303618819186248
0.21723404255319148 0.4548193925697911 0.43036351256908295
0.2174468085106383 0.4557889594528579 0.4256667701721782
0.2176595744680851 0.45789622028440924 0.4280357945954941
0.2178723404255319 0.4619794220174067 0.4351127428050101
0.21808510638297873 0.4617265177069015 0.4470687928908994
0.21829787234042553 0.4624738084084385 0.45294608533405717
0.21851063829787234 0.4559614254834377 0.45719716409940997
0.21872340425531914 0.45697368030291424 0.46149732521544357
0.21893617021276596 0.45407244800567464 0.4606741573033708
0.21914893617021278 0.4585458065773421 0.460904419534556
0.21936170212765957 0.45481191988275516 0.4604855020889309
0.2195744680851064 0.4554385441707384 0.45868297502503785
0.21978723404255318 0.4570178175229809 0.45991870180330946
0.22 0.4580582948144708 0.4566396418181357
0.2202127659574468 0.4596426250116966 0.45109448612784564
0.2204255319148936 0.4573105723193807 0.45408582215419485
0.22063829787234043 0.45676599902296044 0.45120689072490505
0.22085106382978723 0.45612851051122555 0.44928923352050737
0.22106382978723405 0.4557889594528579 0.4512472574489639
0.22127659574468084 0.45876153027127653 0.4548395546214959
0.22148936170212766 0.46297244881365535 0.4563255817095665
0.22170212765957448 0.4631855264411473 0.4557889594528579
0.22191489361702127 0.46165119687347334 0.4537176449718447
0.2221276595744681 0.46494695874999503 0.45243009481853447
0.22234042553191488 0.46488412669412527 0.44970267162259364
0.2225531914893617 0.4621617431323089 0.4432636568317984
0.22276595744680852 0.46344356451836183 0.4377453926452029
0.2229787234042553 0.46695447484159697 0.43318072789264983
0.22319148936170213 0.46840428900453207 0.42558691763933704
0.22340425531914893 0.46752939574694824 0.42646181089692087
0.22361702127659575 0.46562028419867874 0.42931749749289555
0.22382978723404254 0.4636919538644684 0.43220999299421115
0.22404255319148936 0.4636052760136786 0.4403143564173727
0.22425531914893618 0.4625800520083098 0.4456505050549461
0.22446808510638297 0.46165119687347334 0.44869048709749637
0.2246808510638298 0.4610206841255937 0.4502419784061821
0.22489361702127658 0.4607025910584039 0.4502334460522544
0.2251063829787234 0.4615999079277511 0.44894968246213973
0.22531914893617022 0.45915396240751 0.4486781047992606
0.225531914893617 0.45743319953457895 0.4476628038335531
0.22574468085106383 0.4557292597877635 0.4460334886681055
0.22595744680851063 0.4520459263609533 0.4470781659161873
0.22617021276595745 0.4540232125025331 0.44816097508191766
0.22638297872340427 0.45481191988275516 0.4492424431187974
0.22659574468085106 0.45481191988275516 0.44992672203224227
0.22680851063829788 0.45280482625992513 0.44942494862653476
0.22702127659574467 0.45151800359375455 0.44894968246213973
0.2272340425531915 0.4504243791626937 0.4496778934670166
0.22744680851063828 0.4490885767615763 0.44741228622024415
0.2276595744680851 0.4513532488950376 0.4502003585657982
0.22787234042553192 0.4501187836597558 0.4517847703586908
0.22808510638297871 0.44697862411853057 0.4558568762664733
0.22829787234042553 0.44562711017077605 0.45943614867923105
0.22851063829787233 0.4430874450415241 0.4597095154344163
0.22872340425531915 0.4416605652975697 0.46484591528190655
0.22893617021276597 0.4405625938582647 0.46314417364796157
0.22914893617021276 0.44211040547142155 0.4609340539315572
0.22936170212765958 0.4407611196270222 0.45902247481106845
0.22957446808510637 0.4385835449892617 0.4587200781631655
0.2297872340425532 0.4418038257613187 0.4578196835205887
0.23 0.4412055114212424 0.4606741573033708
0.2302127659574468 0.44248814361091904 0.46127345873397585
0.23042553191489362 0.43917928676111373 0.4635581360923898
0.23063829787234041 0.43917928676111373 0.4592957717089389
0.23085106382978723 0.4400974612062104 0.457684173468057
0.23106382978723405 0.43940612948681257 0.456417096277157
0.23127659574468085 0.4382022471910112 0.4541200901218257
0.23148936170212767 0.4398208368205934 0.45140699586827937
0.23170212765957446 0.44107926091586513 0.4509037616023448
0.23191489361702128 0.44194972210901246 0.4481868873752493
0.23212765957446807 0.43917928676111373 0.4513900356326394
0.2323404255319149 0.43896629153563915 0.4495886681385636
0.2325531914893617 0.4382022471910112 0.4516742430872734
0.2327659574468085 0.4382022471910112 0.44992672203224227
0.23297872340425532 0.44014873328643755 0.4496023076830046
0.23319148936170211 0.4414266250119179 0.44763075266228525
0.23340425531914893 0.4376481056205312 0.4465727053223119
0.23361702127659575 0.43922930104350427 0.444991509899339
0.23382978723404255 0.43702633324276363 0.44562948115585316
0.23404255319148937 0.43714634442181965 0.4451203873808184
0.23425531914893616 0.4468816522553975 0.44613251481836885
0.23446808510638298 0.44330828697279817 0.4497058801009684
0.2346808510638298 0.4398642292158662 0.4549764510705734
0.2348936170212766 0.4439176133591991 0.45820373305237194
0.2351063829787234 0.4474548474275748 0.45415003771247175
0.2353191489361702 0.445528506469597 0.44651784601716854
0.23553191489361702 0.4471806951217049 0.44366851072646063
0.23574468085106381 0.44933061254452755 0.4433854997853815
0.23595744680851063 0.45071973079916244 0.44467346257536466
0.23617021276595745 0.44817709942050493 0.45231262333330285
0.23638297872340425 0.4518075194696567 0.4480642450205258
0.23659574468085107 0.44755834217441737 0.4500205118409894
0.23680851063829786 0.4520480799523755 0.4500940008121702
0.23702127659574468 0.448366844617275 0.4467041843995021
0.2372340425531915 0.44699560332193444 0.44699733337804615
0.2374468085106383 0.4466971612698747 0.4465621460456615
0.2376595744680851 0.4457948119397243 0.44068586227710377
0.2378723404255319 0.4452777268346896 0.44012409737295466
0.23808510638297872 0.44636200748200044 0.44377433250186127
0.23829787234042554 0.4465419520311011 0.44594882676339614
0.23851063829787233 0.4460185637518319 0.44699560332193444
0.23872340425531915 0.4493876643359917 0.4463217832051025
0.23893617021276595 0.45011864079039093 0.4460185637518319
0.23914893617021277 0.45172862059400415 0.4433157159091892
0.23936170212765956 0.45379651406235677 0.4441028508619227
0.23957446808510638 0.45336867190125596 0.4450415241817294
0.2397872340425532 0.45698515301574816 0.4458085631564864
0.24 0.4591506582043548 0.4510196410900691
0.2402127659574468 0.4619731013834687 0.4495963229921595
0.2404255319148936 0.46326985642550617 0.4528578407425501
0.24063829787234042 0.46508926728221023 0.45433129948915163
0.24085106382978724 0.46466169638139493 0.4574298640883421
0.24106382978723404 0.4629756769365669 0.4580578381316188
0.24127659574468086 0.4636052760136786 0.46007801037550883
0.24148936170212765 0.4627124926658666 0.45799580725993516
0.24170212765957447 0.46542219645778793 0.46251850948669926
0.2419148936170213 0.4609605294395018 0.45943600850349303
0.24212765957446808 0.46236963949042653 0.46463966382627614
0.2423404255319149 0.4612771431346081 0.4671393805552237
0.2425531914893617 0.4616546579489883 0.4689876463380302
0.2427659574468085 0.4620253153355232 0.46900990814228866
0.2429787234042553 0.4645087319317708 0.4660846667649402
0.24319148936170212 0.4622855196644783 0.4655593551538837
0.24340425531914894 0.4644514262137642 0.4599588964733023
0.24361702127659574 0.46185139251509055 0.4555887638112407
0.24382978723404256 0.46458231558378116 0.4520209769650916
0.24404255319148935 0.4640266505289603 0.4476948103646267
0.24425531914893617 0.463018241092504 0.44582558937515027
0.244468085106383 0.4626004035866646 0.4455717932521477
0.24468085106382978 0.4622682902099886 0.44514432331238857
0.2448936170212766 0.46335873457769583 0.44260348834338714
0.2451063829787234 0.4593733197650213 0.43449288422383875
0.2453191489361702 0.4606499495687456 0.43235211363770837
0.24553191489361703 0.45959957167659166 0.4286269436033386
0.24574468085106382 0.4587200781631655 0.4303859306301905
0.24595744680851064 0.4580788646373187 0.4326301779706545
0.24617021276595744 0.45676599902296044 0.43895224797671034
0.24638297872340426 0.4545873900399221 0.44222267039283814
0.24659574468085105 0.4528578407425501 0.4430874450415241
0.24680851063829787 0.453631547892626 0.4461822736418279
0.2470212765957447 0.44759441896626606 0.44164663645360325
0.24723404255319148 0.44702579390721287 0.43829281894684646
0.2474468085106383 0.447550960599664 0.4412739266654434
0.2476595744680851 0.44401352115914916 0.44262440698271166
0.2478723404255319 0.44150811250042266 0.44518872440893775
0.24808510638297873 0.44211040547142155 0.44944200084327024
0.24829787234042552 0.44150717758102165 0.4548969406244472
0.24851063829787234 0.44041709012910313 0.4553334474785285
0.24872340425531914 0.4401563263312165 0.4532600570349713
0.24893617021276596 0.43846881682759686 0.45117033123893047
0.24914893617021278 0.44259421304978985 0.4526605479458564
0.24936170212765957 0.4411643699801011 0.45766552839610775
0.2495744680851064 0.44085947261572506 0.4649475066312398
0.24978723404255318 0.43861136126417916 0.4691041449739434
0.25 0.4401563263312165 0.4707800342832661
0.2502127659574468 0.4405950447641209 0.46946751343429405
0.25042553191489364 0.440025506511466 0.46780572434951456
0.25063829787234043 0.43917928676111373 0.46520315935248124
0.2508510638297872 0.4384013394191629 0.4692499996354861
0.251063829787234 0.4382022471910112 0.4731227451530434
0.25127659574468086 0.4382022471910112 0.47239863214460187
0.25148936170212766 0.4385410797589519 0.47138213444077975
0.25170212765957445 0.44117320693810513 0.4632865477193899
0.2519148936170213 0.4422018249462447 0.45514902312909566
0.2521276595744681 0.4429404593223428 0.4485087253045959
0.2523404255319149 0.442710851655809 0.4454181175674445
0.2525531914893617 0.4452709639663641 0.4433168848261589
0.2527659574468085 0.44650910258297266 0.4435739457804861
0.2529787234042553 0.44709343219872416 0.4418906027980933
0.2531914893617021 0.44378167819596803 0.44212318835612485
0.25340425531914895 0.4421341061147098 0.4478896906405282
0.25361702127659574 0.4434657424282653 0.4506833168057246
0.25382978723404254 0.4406537779209578 0.4561441845357838
0.2540425531914894 0.43714082318941944 0.46165119687347334
0.2542553191489362 0.4401563263312165 0.4620671988616884
0.25446808510638297 0.4401563263312165 0.4665363947239862
0.25468085106382976 0.44004468003685365 0.4665363947239862
0.2548936170212766 0.4393352453276592 0.4659125604578044
0.2551063829787234 0.43994161632062256 0.46112526636941853
0.2553191489361702 0.43936963322299544 0.45426618775780453
0.25553191489361704 0.4403309964865373 0.44718662719309343
0.25574468085106383 0.441797553287944 0.4405871215867627
0.2559574468085106 0.4426497378422814 0.43594329253595465
0.2561702127659574 0.44414862551380063 0.43437822981277485
0.25638297872340426 0.44699560332193444 0.4375243300095396
0.25659574468085106 0.44699560332193444 0.44749391301115127
0.25680851063829785 0.44553456992678925 0.4452970989742765
0.2570212765957447 0.44565374123329154 0.44406448461162684
0.2572340425531915 0.4472513481654643 0.44406448461162684
0.2574468085106383 0.4493922389170313 0.44406448461162684
0.25765957446808513 0.4515331296685988 0.44406448461162684
0.2578723404255319 0.4536740204201658 0.44406448461162684
0.2580851063829787 0.4558149111717328 0.44406448461162684
0.2582978723404255 0.45795580192329977 0.44406448461162684
0.25851063829787235 0.4600966926748673 0.44406448461162684
0.25872340425531914 0.46220175402360086 0.4447526810492863
0.25893617021276594 0.46421183202584265 0.4472652785520884
0.2591489361702128 0.4655593551538837 0.4520863216633782
0.2593617021276596 0.46599423006398605 0.4564384138627558
0.25957446808510637 0.4684686524366501 0.4544254683402224
0.2597872340425532 0.4711667329240206 0.45332516101169534
0.26 0.4701173835108967 0.4522079706659474
0.2602127659574468 0.4689429648283927 0.4525431115790093
0.2604255319148936 0.46759677169033464 0.45173539569617444
0.26063829787234044 0.46625057855227625 0.45092767981333937
0.26085106382978723 0.4649043854142182 0.4501199639305045
0.261063829787234 0.46355819227616013 0.4493122480476696
0.2612765957446809 0.46221199913810174 0.44850453216483455
0.26148936170212767 0.4608658060000437 0.4476968162819997
0.26170212765957446 0.45969711773326827 0.4470883995298803
0.26191489361702125 0.45969711773326827 0.44779216398136706
0.2621276595744681 0.4633005385296085 0.4508553795291094
0.2623404255319149 0.4659986711772649 0.45612986795289895
0.2625531914893617 0.4674959425099395 0.4587025863790162
0.26276595744680853 0.4688272399248381 0.46003388379391474
0.2629787234042553 0.4701585373397364 0.461365181208813
0.2631914893617021 0.47142159257449934 0.46267780406493886
0.26340425531914896 0.4714606461247277 0.4634881153629935
0.26361702127659575 0.4723799115806435 0.4605992750475374
0.26382978723404255 0.4713380447700023 0.45676599902296044
0.26404255319148934 0.46968494867821226 0.45676599902296044
0.2642553191489362 0.46803185258642177 0.45676599902296044
0.264468085106383 0.46637875649463173 0.45676599902296044
0.26468085106382977 0.4647256604028417 0.45676599902296044
0.2648936170212766 0.46217112512439174 0.4579133197343899
0.2651063829787234 0.4585027653026145 0.4606741573033708
0.2653191489361702 0.45709734131660207 0.46086786648630906
0.265531914893617 0.45409339261242915 0.461769051097561
0.26574468085106384 0.45108944390825545 0.4626702357088131
0.26595744680851063 0.44808549520408253 0.46357142032006504
0.2661702127659574 0.4440646556923576 0.45969677557180677
0.2663829787234043 0.44634727559734505 0.4552411063770027
0.26659574468085107 0.4491792943799295 0.4509037616023448
0.26680851063829786 0.45027927034595083 0.4509037616023448
0.2670212765957447 0.4518604874679593 0.4532955762663811
0.2672340425531915 0.45128774206600586 0.45788242435491683
0.2674468085106383 0.4493458379779003 0.46027800178761025
0.2676595744680851 0.4482766563173501 0.46000113115858116
0.26787234042553193 0.44720447824791065 0.46276977630977395
0.2680851063829787 0.44344747651321664 0.45562199069406345
0.2682978723404255 0.4402527083741703 0.4585273140772579
0.26851063829787236 0.4434552698019969 0.45029454679271486
0.26872340425531915 0.43845171092756846 0.44642739818738514
0.26893617021276595 0.4330528564857369 0.44628275660659333
0.26914893617021274 0.431362970200293 0.4479726428920372
0.2693617021276596 0.43069180962614145 0.4479726428920372
0.2695744680851064 0.43279141551117634 0.4447653297173894
0.26978723404255317 0.4333170493404983 0.44499842485271934
0.27 0.43942334832018204 0.4427205593690923
0.2702127659574468 0.4428893673403675 0.45207887887360415
0.2704255319148936 0.44144691093468685 0.4535213352792848
0.27063829787234045 0.4400044545290058 0.45496379168496587
0.27085106382978724 0.4385619981233251 0.45640624809064656
0.27106382978723403 0.43637023445807505 0.4573766699339391
0.2712765957446808 0.4352711284807034 0.45892130667259134
0.2714893617021277 0.43387500079191194 0.4610932454220597
0.27170212765957447 0.43263766757225663 0.45893366980050637
0.27191489361702126 0.43159736592046527 0.4540298193434112
0.2721276595744681 0.4334517834700837 0.44868021420296883
0.2723404255319149 0.43128193502813017 0.4447364879100816
0.2725531914893617 0.43126522315727633 0.4370301443949398
0.2727659574468085 0.4324569087828222 0.43124607118786656
0.27297872340425533 0.43655706743260664 0.4268370131562816
0.2731914893617021 0.43903176878758887 0.42244062484403544
0.2734042553191489 0.44153045562202264 0.4200355850797657
0.27361702127659576 0.4426359366395087 0.4216665972653389
0.27382978723404255 0.4424341178516918 0.4251829228286992
0.27404255319148935 0.4428921534627854 0.42725952034114395
0.2742553191489362 0.44217659653523533 0.4301873574387491
0.274468085106383 0.4459559486523375 0.436373398249795
0.2746808510638298 0.4455835074953467 0.4383829082955503
0.27489361702127657 0.45044905684109765 0.44072704547927655
0.2751063829787234 0.4544750512894862 0.4462543315505797
0.2753191489361702 0.4556933838308728 0.4529194427857916
0.275531914893617 0.455193900461235 0.4596126666505998
0.27574468085106385 0.45673438852079307 0.4645507050816138
0.27595744680851064 0.45263258746070045 0.4664110970092774
0.27617021276595743 0.4508851736095439 0.46747625830848716
0.2763829787234042 0.4488129272607206 0.46305825520800203
0.2765957446808511 0.44664875300272766 0.457843671888235
0.27680851063829787 0.4438673561211453 0.4524678852027395
0.27702127659574466 0.4450415241817294 0.4529184911550063
0.2772340425531915 0.4430956554477008 0.45837524069205254
0.2774468085106383 0.44288793158897954 0.4614516834209288
0.2776595744680851 0.44489803611738965 0.46798826563900253
0.27787234042553194 0.44630285759749616 0.4755571859314411
0.27808510638297873 0.45034142280126765 0.4783006778001914
0.2782978723404255 0.4492186290122252 0.474975704344901
0.2785106382978723 0.45318278158634845 0.4741368230685107
0.27872340425531916 0.45481191988275516 0.4669159901520487
0.27893617021276595 0.4562004122663945 0.45596856790366247
0.27914893617021275 0.45839805479878365 0.44877770130299194
0.2793617021276596 0.460613173199396 0.44323990530146107
0.2795744680851064 0.46267728642098754 0.4430874450415241
0.2797872340425532 0.4645669245913508 0.44292717027857875
0.27999999999999997 0.4689793718768329 0.441866334692691
0.2802127659574468 0.46726616910278623 0.4431114874317407
0.2804255319148936 0.46690317823040983 0.4507835999942575
0.2806382978723404 0.46997223221746004 0.4538348803126526
0.28085106382978725 0.4674279939320529 0.4544562100892212
0.28106382978723404 0.46609186657378365 0.45481191988275516
0.28127659574468084 0.4656507479428709 0.4521549795394093
0.2814893617021277 0.4645445074964508 0.44879845011281844
0.2817021276595745 0.46445685891642846 0.44555247392337927
0.28191489361702127 0.46819450910289706 0.4476766781307427
0.28212765957446806 0.46666109327104405 0.4435862392297549
0.2823404255319149 0.4650340824203935 0.43707819582715296
0.2825531914893617 0.46575963631156236 0.431150505933469
0.2827659574468085 0.46522072418067706 0.42908968676164
0.28297872340425534 0.46458231558378116 0.4332113730876043
0.28319148936170213 0.4654719872470082 0.4369631039002823
0.2834042553191489 0.46262823644357587 0.44348800417256506
0.2836170212765957 0.46262823644357587 0.45382797264609553
0.28382978723404256 0.46262823644357587 0.4567358806406729
0.28404255319148936 0.4635147141170662 0.45996880342310553
0.28425531914893615 0.4650680247268735 0.4620182893727515
0.284468085106383 0.4705992769943698 0.4606354763058775
0.2846808510638298 0.46262823644357587 0.46262823644357587
0.2848936170212766 0.4621332345068436 0.46163823257011144
0.2851063829787234 0.4599642919849016 0.4640479670805142
0.2853191489361702 0.46097599810105755 0.4642804747860942
0.285531914893617 0.4581557197771741 0.46262823644357587
0.2857446808510638 0.4559876597219468 0.46086462668478856
0.28595744680851065 0.460038223816511 0.4570793378984278
0.28617021276595744 0.4602679418167885 0.45475151816034426
0.28638297872340424 0.4582844130283155 0.4532638715689895
0.2865957446808511 0.4554896259540919 0.45446742119895794
0.2868085106382979 0.45239029831851313 0.45668122665294275
0.28702127659574467 0.4502183240691176 0.458314236537419
0.28723404255319146 0.44890110714804843 0.4594119173049766
0.2874468085106383 0.447583890226979 0.46050959807253455
0.2876595744680851 0.4462666733059098 0.4616072788400922
0.2878723404255319 0.4449113057226027 0.46275845490270257
0.28808510638297874 0.4431085098848839 0.4644559265236221
0.28829787234042553 0.44392540887237625 0.45834920952516395
0.2885106382978723 0.4410199325726795 0.45033659495914746
0.28872340425531917 0.4396704386871502 0.4435891255315014
0.28893617021276596 0.4389257525119656 0.4414714115668499
0.28914893617021276 0.43852714340843313 0.4420028903715599
0.28936170212765955 0.4381285343049007 0.44253436917626987
0.2895744680851064 0.4377299252013681 0.44306584798098
0.2897872340425532 0.4373313160978356 0.44359732678568997
0.29 0.43693270699430314 0.44412880559039997
0.2902127659574468 0.4365340978907706 0.4446602843951101
0.2904255319148936 0.4364177595511946 0.4447023411809524
0.2906382978723404 0.4370176988283604 0.44350246262662074
0.2908510638297872 0.43761763810552623 0.44230258407228906
0.29106382978723405 0.438107826240892 0.441251392088968
0.29127659574468084 0.4344127102408691 0.4458702870889966
0.29148936170212764 0.43330587844554913 0.44900553693688555
0.2917021276595745 0.4325838245521072 0.4526158064040955
0.2919148936170213 0.4344254134320331 0.4566154185281692
0.29212765957446807 0.4384578226730522 0.457743038593063
0.2923404255319149 0.43917928676111373 0.457743038593063
0.2925531914893617 0.44291755953289536 0.45894659217467054
0.2927659574468085 0.4407295352345914 0.4621505623574301
0.2929787234042553 0.4442522344680647 0.457743038593063
0.29319148936170214 0.4375052479003964 0.4573945389477556
0.29340425531914893 0.43577917742078626 0.4558280177629208
0.2936170212765957 0.43233316289131296 0.453636733646999
0.29382978723404257 0.4296720831001504 0.45714092592279054
0.29404255319148936 0.43445021522784893 0.4612407402470461
0.29425531914893616 0.42749257409976943 0.4655404740639403
0.29446808510638295 0.42402949936072104 0.47142159257449934
0.2946808510638298 0.4277025799616553 0.4724126647415897
0.2948936170212766 0.4310553011675402 0.4753297508549097
0.2951063829787234 0.43577474614777867 0.4783514568573608
0.29531914893617023 0.44131655530085784 0.47485650421296055
0.295531914893617 0.44610269234410843 0.47142159257449934
0.2957446808510638 0.4484267762334527 0.4728527654860174
0.29595744680851066 0.4505722185624761 0.4685080634136952
0.29617021276595745 0.44905245604457267 0.46195951762077214
0.29638297872340424 0.45112393429346165 0.4553486140706242
0.29659574468085104 0.4540328278321659 0.4493328794737023
0.2968085106382979 0.45481191988275516 0.44569262803973897
0.2970212765957447 0.4566339106881055 0.4426319473401865
0.29723404255319147 0.4593059676519913 0.4444539634267242
0.2974468085106383 0.46184330162489595 0.44673395838237445
0.2976595744680851 0.46178820369306167 0.448675668822963
0.2978723404255319 0.4664920440624942 0.44604517414872713
0.29808510638297875 0.4655593551538837 0.44565397405185936
0.29829787234042554 0.46457641138535793 0.441367293446604
0.29851063829787233 0.4619860959389411 0.4375877643126771
0.2987234042553191 0.46222461612219107 0.4357165027959837
0.298936170212766 0.4611799827029234 0.428937676889538
0.29914893617021276 0.4606741573033708 0.4284318514899854
0.29936170212765956 0.4594897140356497 0.43139295965928803
0.2995744680851064 0.4563486137526748 0.4347399279867928
0.2997872340425532 0.4528833314211149 0.436565351014652
0.3 0.4514266399912792 0.43722520762090866
0.3002127659574468 0.4533910146254228 0.43704748299328444
0.30042553191489363 0.456296301168904 0.4364172819561548
0.3006382978723404 0.4584874385278885 0.4371088878032702
0.3008510638297872 0.4573918026245146 0.4367488109320495
0.30106382978723406 0.4617973030022029 0.44044853858867566
0.30127659574468085 0.46249034156762375 0.44252409009927796
0.30148936170212765 0.46169646553704274 0.4451094271770835
0.3017021276595745 0.463550590275046 0.4478906142840883
0.3019148936170213 0.4663783888549316 0.4488970138391215
0.3021276595744681 0.46466931053809274 0.44894968246213973
0.30234042553191487 0.46739901530040934 0.44988858236768237
0.3025531914893617 0.4694314560738978 0.46527089627071366
0.3027659574468085 0.4661834279868817 0.46512147709422874
0.3029787234042553 0.46283890976279507 0.46467554133101724
0.30319148936170215 0.4594943915387076 0.46422960556780557
0.30340425531914894 0.4561498733146209 0.46378366980459407
0.30361702127659573 0.45603601492984586 0.46401330769604215
0.3038297872340425 0.45692331371324213 0.4649921780236916
0.3040425531914894 0.45190508980980465 0.46750128997541046
0.30425531914893617 0.4535252275783639 0.4634023682792978
0.30446808510638296 0.45462351411573665 0.46026233503432373
0.3046808510638298 0.4556280205358749 0.4588810170801485
0.3048936170212766 0.4557889594528579 0.4561029375668247
0.3051063829787234 0.4567232401356891 0.45111755603870163
0.30531914893617024 0.45876459383685575 0.4479726428920372
0.30553191489361703 0.460348102092976 0.4479726428920372
0.3057446808510638 0.46388487599131206 0.4479726428920372
0.3059574468085106 0.46458231558378116 0.44917426832304863
0.30617021276595746 0.46458231558378116 0.4519577233589615
0.30638297872340425 0.4672009178176767 0.4508938890671284
0.30659574468085105 0.46614782503255225 0.45461201969552084
0.3068085106382979 0.46829307484892735 0.4494102801644228
0.3070212765957447 0.46842398545336694 0.4500596988538914
0.3072340425531915 0.4659320089557223 0.45148544483785585
0.30744680851063827 0.4586686843830664 0.44992672203224227
0.3076595744680851 0.4552518070464063 0.4495686204279412
0.3078723404255319 0.4517590109154323 0.4474232279784783
0.3080851063829787 0.44854794651779106 0.44682203564052936
0.30829787234042555 0.445872866974659 0.4484975868713817
0.30851063829787234 0.44341235377452776 0.45090607497343677
0.30872340425531913 0.43996379954357784 0.45422353529590714
0.308936170212766 0.43917928676111373 0.4584604158346978
0.3091489361702128 0.43752158073897307 0.4578912251520952
0.30936170212765957 0.43722520762090866 0.4613638328500637
0.30957446808510636 0.43722520762090866 0.45887841623569237
0.3097872340425532 0.43429408891060084 0.4597049424699415
0.31 0.43416249693094006 0.4609373412626924
0.3102127659574468 0.4333170493404983 0.46262823644357587
0.31042553191489364 0.432525487177956 0.46381557968738923
0.31063829787234043 0.43266769130528054 0.4633848199789045
0.3108510638297872 0.43604553831083237 0.4571712585029078
0.311063829787234 0.43875003761282666 0.4484755173680261
0.31127659574468086 0.4385048327231819 0.44234370803000206
0.31148936170212765 0.4382022471910112 0.4419411121120713
0.31170212765957445 0.4446389938609062 0.4439494759485345
0.3119148936170213 0.4439949137217005 0.4487409697923609
0.3121276595744681 0.4445019776966757 0.4444019550030872
0.3123404255319149 0.44992672203224227 0.4375321484448758
0.3125531914893617 0.4494583340945958 0.43531139217551307
0.3127659574468085 0.44798000279500333 0.43235472957632815
0.3129787234042553 0.4460111706558385 0.43383144496152654
0.3131914893617021 0.4431943074014038 0.44153538010833493
0.31340425531914895 0.4413641733708006 0.44928810931597396
0.31361702127659574 0.43762580367060644 0.4552882143907357
0.31382978723404253 0.43624816805080613 0.464494457614414
0.3140425531914894 0.43564508293265347 0.46165119687347334
0.3142553191489362 0.4337355056986315 0.46109299850217905
0.31446808510638297 0.43681682809494254 0.45806359962940374
0.31468085106382976 0.4384070906960443 0.4541697674689293
0.3148936170212766 0.4455535416040333 0.4528578407425501
0.3151063829787234 0.4463553971135304 0.45204921785329677
0.3153191489361702 0.4485423052311003 0.44767456537366684
0.31553191489361704 0.4461351743417273 0.44511926457499296
0.31574468085106383 0.44884132839896423 0.44315968108364107
0.3159574468085106 0.4499587753108684 0.4441766710868184
0.31617021276595747 0.4507990914124337 0.4471177774422966
0.31638297872340426 0.4516394075139987 0.450058883797774
0.31659574468085105 0.44999939549803897 0.45341230250155623
0.31680851063829785 0.44830479076077895 0.45610170328547683
0.3170212765957447 0.4479726428920372 0.45676599902296044
0.3172340425531915 0.4470832032962577 0.45676599902296044
0.3174468085106383 0.44609253069772936 0.4577800220660117
0.3176595744680851 0.4481310114293287 0.4587200781631655
0.3178723404255319 0.4494970247531449 0.4562570378536421
0.3180851063829787 0.451404474154189 0.4501543186467169
0.3182978723404255 0.4529077479199493 0.45083762490388063
0.31851063829787235 0.45441102168570996 0.4515209311610446
0.31872340425531914 0.4559142954514702 0.4522042374182083
0.31893617021276593 0.45741756921723054 0.4528875436753721
0.3191489361702128 0.4589208429829912 0.453570849932536
0.3193617021276596 0.46042411674875144 0.4542541561896998
0.31957446808510637 0.46100444509390814 0.4546825695268421
0.3197872340425532 0.4574842880782577 0.4539785381237121
0.32 0.46054215003720006 0.4538348803126526
0.3202127659574468 0.46478273231072553 0.4546177641719657
0.3204255319148936 0.4688696640237971 0.45563949710023366
0.32063829787234044 0.4680898151902829 0.4557889594528579
0.32085106382978723 0.4664760502640914 0.4557889594528579
0.321063829787234 0.46468016217458513 0.45566336045581524
0.32127659574468087 0.4626447695054251 0.45537259007450664
0.32148936170212766 0.4606093768362656 0.45508181969319805
0.32170212765957445 0.4585872804523869 0.4547455210273659
0.32191489361702125 0.45675176611864127 0.45382064740833344
0.3221276595744681 0.45583952927447857 0.45290841056417075
0.3223404255319149 0.45492729243031615 0.45199617372000833
0.3225531914893617 0.45401505558615374 0.4510839368758459
0.3227659574468085 0.45310281874199104 0.4501717000316832
0.3229787234042553 0.45217895357160665 0.445174511835638
0.3231914893617021 0.4538671387989118 0.43580420707782164
0.32340425531914896 0.45652929127885256 0.4323400097703958
0.32361702127659575 0.4590654519808159 0.4323400097703958
0.32382978723404254 0.4616016126827792 0.4323400097703958
0.32404255319148934 0.46361298933690476 0.43103214812810814
0.3242553191489362 0.46458231558378116 0.4328272364767779
0.324468085106383 0.46414536975258075 0.43930678886920904
0.32468085106382977 0.4625711515665357 0.4503263161715239
0.3248936170212766 0.46165119687347334 0.4588031103860981
0.3251063829787234 0.46158152250208256 0.46351818304944015
0.3253191489361702 0.45814278415180487 0.459219760111593
0.325531914893617 0.4547040458015272 0.45492133717374583
0.32574468085106384 0.45361542726733295 0.4533959742220133
0.32595744680851063 0.45332174359159016 0.4528086068705277
0.3261702127659574 0.4530280599158474 0.45222123951904214
0.32638297872340427 0.45198413800414305 0.4545019093876684
0.32659574468085106 0.45143039550507436 0.45616313688487453
0.32680851063829786 0.4505770561514246 0.4554637923932667
0.3270212765957447 0.44992672203224227 0.4557889594528579
0.3272340425531915 0.4491128988144196 0.4557889594528579
0.3274468085106383 0.44710526957213115 0.4548667530078535
0.3276595744680851 0.44788682567190186 0.45659436458268976
0.3278723404255319 0.44303265420335197 0.45671120818478833
0.3280851063829787 0.441133365901319 0.4546540149764227
0.3282978723404255 0.4414218472328357 0.4538348803126526
0.32851063829787236 0.4412688765860332 0.4559387025261236
0.32872340425531915 0.4412594722349828 0.46037479701881506
0.32893617021276594 0.44415814410869836 0.45892087869043763
0.32914893617021274 0.44422566968866656 0.45529547511387436
0.3293617021276596 0.44874077005459434 0.45294140570556823
0.3295744680851064 0.44628084534997525 0.4530480355182226
0.32978723404255317 0.44959548312487124 0.447194193057501
0.33 0.45292025466344954 0.4534259818947525
0.3302127659574468 0.4543335376335008 0.4509037616023448
0.3304255319148936 0.4489487835601553 0.45273604788453137
0.33063829787234045 0.4497355027289729 0.45160471692636794
0.33085106382978724 0.4491584322918359 0.45177642625759945
0.33106382978723403 0.4420874270877966 0.4538808370799026
0.3312765957446808 0.441133365901319 0.45538801936978834
0.33148936170212767 0.440915455121101 0.45166289039222945
0.33170212765957446 0.43986183988172795 0.4506092751528563
0.33191489361702126 0.43833774509739726 0.4474020970410928
0.3321276595744681 0.44269554918011494 0.4418763479879443
0.3323404255319149 0.44227047279493176 0.43880628903778707
0.3325531914893617 0.44175927085481326 0.4406066639764066
0.3327659574468085 0.44304296112743924 0.44766125549344343
0.33297872340425533 0.4402453031215767 0.4525036387049694
0.3331914893617021 0.4404642256611448 0.45849703141644077
0.3334042553191489 0.4385591741081059 0.45667225784177873
0.33361702127659576 0.43672724225144927 0.45383110207888944
0.33382978723404255 0.4349163902277114 0.4509909367912183
0.33404255319148934 0.43451631229674154 0.4529459867680897
0.3342553191489362 0.43695982709155323 0.44761482455709717
0.334468085106383 0.4371899424691145 0.442216200926804
0.3346808510638298 0.43705033649071073 0.44515611967314433
0.33489361702127657 0.44184201155500513 0.4467658238437433
0.3351063829787234 0.4378188054481982 0.44894968246213973
0.3353191489361702 0.43774021215722586 0.44894968246213973
0.335531914893617 0.44009499498842314 0.4508424302595517
0.33574468085106385 0.4433599626133841 0.4526230000764692
0.33595744680851064 0.4449364294750012 0.4537297856059245
0.33617021276595743 0.44599603579944974 0.45476686397799077
0.3363829787234042 0.44513537592348945 0.45304554422607024
0.33659574468085107 0.44625045927105517 0.45462640346737654
0.33680851063829786 0.44842979528544874 0.45288293465586166
0.33702127659574466 0.45060913129984226 0.45113946584434683
0.3372340425531915 0.44930729241703665 0.4501055270096907
0.3374468085106383 0.45144150320810006 0.44826550820160216
0.3376595744680851 0.4537666516133358 0.44608679245114874
0.33787234042553194 0.4541202440457994 0.4452317666704939
0.33808510638297873 0.4569834326604571 0.4465607360469411
0.3382978723404255 0.45874193137572006 0.4457074527035007
0.3385106382978723 0.4616028526070291 0.4465312556701053
0.33872340425531916 0.46203264238102126 0.4519745043773784
0.33893617021276595 0.46456822989535 0.45287192643098123
0.33914893617021274 0.4629853234989428 0.45188080117244755
0.3393617021276596 0.4606741573033708 0.4489581226379674
0.3395744680851064 0.46077085177601346 0.4502168054501702
0.3397872340425532 0.46156807814332945 0.45260848455211833
0.34 0.4616544163290222 0.45090537133011926
0.3402127659574468 0.46373682007534406 0.45135462492578576
0.3404255319148936 0.46432756662817926 0.4482273918476391
0.3406382978723404 0.46321538860023564 0.4473901328083681
0.34085106382978725 0.46262823644357587 0.44763965530310423
0.34106382978723404 0.4613767044699147 0.4493009560454117
0.34127659574468083 0.4584420182238656 0.4504377751818098
0.3414893617021277 0.458617150656006 0.4500296495394018
0.3417021276595745 0.45768289284743313 0.4509338344751597
0.34191489361702126 0.4569316384060781 0.45155432147152746
0.34212765957446806 0.462035377146161 0.45022315168094973
0.3423404255319149 0.45938819108980256 0.4504751061978221
0.3425531914893617 0.45886557960009644 0.4493654515287256
0.3427659574468085 0.45900113447182056 0.4496456657235873
0.34297872340425534 0.459552056249692 0.44826276585918967
0.34319148936170213 0.4616307295222202 0.4499062546809891
0.3434042553191489 0.46143463078363894 0.45209736726228195
0.34361702127659577 0.4601202337982772 0.4536938416243163
0.34382978723404256 0.46286947051567057 0.45261660667045545
0.34404255319148935 0.4636052760136786 0.4511644193451865
0.34425531914893615 0.46312668691447934 0.44753377653624626
0.344468085106383 0.46440561988600976 0.44622644647668525
0.3446808510638298 0.4641414465337876 0.44912246625207874
0.3448936170212766 0.45945351036969145 0.44577495638825526
0.3451063829787234 0.45924624791163715 0.4476723729240872
0.3453191489361702 0.45995862793736725 0.44914219141994527
0.345531914893617 0.4584293379120077 0.4463542263529736
0.3457446808510638 0.4538348803126526 0.445472316123782
0.34595744680851065 0.4538348803126526 0.44765278760354776
0.34617021276595744 0.45053329422324334 0.4515909513336672
0.34638297872340423 0.4511932683333575 0.4558492885708404
0.3465957446808511 0.44788090607346637 0.4591659360823491
0.3468085106382979 0.44699560332193444 0.45794979486138526
0.34702127659574467 0.44312793330262046 0.4645114611268625
0.3472340425531915 0.44689994725666266 0.46222513326510417
0.3474468085106383 0.4460185637518319 0.4668905185089886
0.3476595744680851 0.4460185637518319 0.46458231558378116
0.3478723404255319 0.4455997578563136 0.46625753916585433
0.34808510638297874 0.44364476864623803 0.46709371832870017
0.34829787234042553 0.4466439055493906 0.4655593551538837
0.3485106382978723 0.44480856271697916 0.46860695459656654
0.34872340425531917 0.440416649067443 0.46829440250276844
0.34893617021276596 0.4384890026575787 0.4683470961309078
0.34914893617021275 0.44009111685637625 0.46565716936614404
0.34936170212765955 0.4389236914352657 0.46343487912977993
0.3495744680851064 0.43645368785317995 0.46124015726872575
0.3497872340425532 0.43722520762090866 0.45969711773326827
0.35 0.4376649744147921 0.4574982837638511
0.3502127659574468 0.4393141207031919 0.4564797301510262
0.3504255319148936 0.4388174609263796 0.45372644237855253
0.3506382978723404 0.43585792531929385 0.453443682420259
0.35085106382978726 0.43616654031964086 0.45204405663477804
0.35106382978723405 0.43537200746071586 0.4558225857795287
0.35127659574468084 0.4380639099023143 0.45814937190992916
0.35148936170212763 0.43742915756703543 0.4647008452088453
0.3517021276595745 0.4387677765860734 0.45816718563935965
0.3519148936170213 0.44211040547142155 0.4601935839733807
0.35212765957446807 0.44221631158292796 0.457213508035531
0.3523404255319149 0.4432200395989796 0.45126670605308417
0.3525531914893617 0.44418872072254717 0.44096771775342525
0.3527659574468085 0.44699560332193444 0.43688571448021185
0.3529787234042553 0.44699560332193444 0.43370386510332226
0.35319148936170214 0.44699560332193444 0.4305220157264318
0.35340425531914893 0.44699560332193444 0.4273401663495422
0.3536170212765957 0.44699560332193444 0.42415831697265255
0.35382978723404257 0.44699560332193444 0.42130646609678346
0.35404255319148936 0.44699560332193444 0.41982887537837604
0.35425531914893615 0.44651592972518067 0.419620802982467
0.354468085106383 0.4442308645202572 0.4241909333923144
0.3546808510638298 0.4426029365942841 0.4267160152355889
0.3548936170212766 0.4424347543029519 0.43004960257212566
0.3551063829787234 0.4429065040207677 0.433823600314652
0.3553191489361702 0.44263497407280994 0.4379859542929886
0.355531914893617 0.44283840587449286 0.4409513658005512
0.3557446808510638 0.4453898648922793 0.4403135010461046
0.35595744680851066 0.4419481669077965 0.43947792685721043
0.35617021276595745 0.44361121489762706 0.4397551015221823
0.35638297872340424 0.4470727047278794 0.44173753779528757
0.35659574468085103 0.446921653230443 0.44203645537992997
0.3568085106382979 0.44659786841975996 0.44055406123339097
0.3570212765957447 0.4476937741523167 0.4422508388223628
0.35723404255319147 0.4479726428920372 0.44721808225161924
0.3574468085106383 0.4546160129230187 0.4498707486151747
0.3576595744680851 0.4526845740288382 0.4599570178038361
0.3578723404255319 0.4510726712552395 0.4623467203554181
0.35808510638297875 0.4521774963501933 0.46050534519716185
0.35829787234042554 0.45328232144514674 0.4586639700389061
0.35851063829787233 0.4543871465401002 0.45682259488065036
0.3587234042553191 0.4554919716350537 0.4549812197223946
0.35893617021276597 0.45659679673000747 0.45313984456413836
0.35914893617021276 0.45676599902296044 0.45631754209299374
0.35936170212765955 0.45676599902296044 0.4604029116081891
0.3595744680851064 0.45702293750058764 0.46391292883171203
0.3597872340425532 0.457587272666927 0.4667346046634088
0.36 0.4581516078332663 0.4695562804951056
0.3602127659574468 0.4587159429996056 0.47237795632680235
0.3604255319148936 0.4613881148058803 0.47239863214460187
0.3606382978723404 0.46165119687347334 0.4675744126310421
0.3608510638297872 0.46152224860646907 0.46313411417862405
0.36106382978723406 0.46791246000353126 0.4581369331266295
0.36127659574468085 0.4622547031025729 0.4548837001092086
0.36148936170212764 0.4640167851475681 0.4516233133408816
0.3617021276595745 0.46667943116731625 0.4488781642404748
0.3619148936170213 0.4672115423031045 0.4473331771114936
0.3621276595744681 0.46729094745125194 0.44548649786740335
0.36234042553191487 0.46664326532506817 0.448522200057812
0.3625531914893617 0.4655244203077575 0.44703053816806065
0.3627659574468085 0.4614076690120598 0.4509037616023448
0.3629787234042553 0.45969711773326827 0.4506644661183208
0.36319148936170215 0.45969711773326827 0.4495694559295164
0.36340425531914894 0.45969711773326827 0.44705102281688114
0.36361702127659573 0.4591160895919798 0.44271741161657596
0.3638297872340425 0.4587200781631655 0.43906505092620224
0.36404255319148937 0.45952270568737863 0.4414127572878632
0.36425531914893616 0.4551159206049132 0.44485912374843456
0.36446808510638296 0.45573466804314433 0.44938401373984843
0.3646808510638298 0.4553297254672806 0.45676599902296044
0.3648936170212766 0.45630039496028435 0.45705452774951616
0.3651063829787234 0.4536687254505884 0.45855392330110134
0.36531914893617023 0.45378097903156644 0.4602125881588626
0.365531914893617 0.4540981852221289 0.4612943295431602
0.3657446808510638 0.4526149685966791 0.46165119687347334
0.3659574468085106 0.45272778639937133 0.4599572264196258
0.36617021276595746 0.45189274385925027 0.4606622146165681
0.36638297872340425 0.4564995602437596 0.4582125061696643
0.36659574468085104 0.4617576775760002 0.4538348803126526
0.3668085106382979 0.45638064346648677 0.4528322654426474
0.3670212765957447 0.45188080117244755 0.4504546452066414
0.3672340425531915 0.45188080117244755 0.446522423013545
0.36744680851063827 0.4511957978478765 0.4433794812870558
0.3676595744680851 0.45011455932371036 0.4415090404842552
0.3678723404255319 0.4494047539884389 0.443743206120336
0.3680851063829787 0.44800883399276464 0.4450777152824568
0.36829787234042555 0.44529428192327414 0.4423631632129663
0.36851063829787234 0.44532814551986816 0.4435880680967507
0.36872340425531913 0.44121963199231845 0.44175597025105423
0.368936170212766 0.4440355034177226 0.44065933671321983
0.36914893617021277 0.4409019102081931 0.4389735794816346
0.36936170212765956 0.4403182032404586 0.4403182032404586
0.36957446808510636 0.441133365901319 0.4386705267065509
0.3697872340425532 0.44300487673329203 0.44194526885495744
0.37 0.44301382386778354 0.448287091898475
0.3702127659574468 0.44211040547142155 0.44072686625378354
0.37042553191489364 0.4412355659034974 0.4444871883502028
0.3706382978723404 0.43804480295205805 0.4495924090725058
0.3708510638297872 0.4399007325120793 0.4509037616023448
0.371063829787234 0.43711827604550135 0.45491885145816247
0.37127659574468086 0.43678027562195165 0.45827514616420856
0.37148936170212765 0.43722520762090866 0.4595837550933996
0.37170212765957444 0.4353155512062442 0.4568326331112717
0.3719148936170213 0.43634048777396517 0.45411183948212974
0.3721276595744681 0.43702693574539264 0.45617118339641227
0.3723404255319149 0.43749365460639666 0.4529007653959597
0.3725531914893617 0.4388888059174711 0.45301629562525386
0.3727659574468085 0.43614977961437734 0.4552512454495922
0.3729787234042553 0.436582690262418 0.4528445772101834
0.3731914893617021 0.43875284489175925 0.45340843844329815
0.37340425531914895 0.4365541243282752 0.4520847720240936
0.37361702127659574 0.43824586257043213 0.4488915286229118
0.37382978723404253 0.4408711449781746 0.4451726346433016
0.3740425531914894 0.4394258600995213 0.4460185637518319
0.37425531914893617 0.4401563263312165 0.4460185637518319
0.37446808510638296 0.4396768166099206 0.44697758319442366
0.37468085106382976 0.4409640188954652 0.44856755360348766
0.3748936170212766 0.4442415185406031 0.44823931143907925
0.3751063829787234 0.4433968055901234 0.4520844393710518
0.3753191489361702 0.446837781347568 0.4528578407425501
0.37553191489361704 0.44699560332193444 0.4547395555581064
0.37574468085106383 0.4476960901593279 0.4543602454406977
0.3759574468085106 0.45003137535676335 0.45821997609892956
0.37617021276595747 0.4471591128331416 0.46165119687347334
0.37638297872340426 0.44549861939982366 0.4632110299294982
0.37659574468085105 0.4455494013196015 0.464074438445909
0.37680851063829784 0.4450049203943773 0.46309845433495117
0.3770212765957447 0.4465485327118754 0.4607652003683896
0.3772340425531915 0.446505444581604 0.4567627211124021
0.3774468085106383 0.45098148132936183 0.45909757117121114
0.3776595744680851 0.4500039803579275 0.4550050656969682
0.3778723404255319 0.45293637666854125 0.4593829740293035
0.3780851063829787 0.4542284088773728 0.45618248801757805
0.37829787234042556 0.45640968250826 0.45557050789915565
0.37851063829787235 0.45944457038218767 0.44877684686593894
0.37872340425531914 0.4611081368050729 0.4454755036834315
0.37893617021276593 0.4619948378944185 0.44041914211306216
0.3791489361702128 0.4634066210356785 0.4366454780068063
0.3793617021276596 0.46628644917130924 0.43624816805080613
0.37957446808510636 0.47099809965353645 0.44070987298035613
0.3797872340425532 0.46550134572570984 0.443116449755611
0.38 0.4619146224326461 0.44649036475717935
0.3802127659574468 0.4616315068311471 0.45480207486159213
0.3804255319148936 0.4565094537426764 0.4522410483173568
0.38063829787234044 0.4564006007418015 0.4533053200263039
0.38085106382978723 0.4532090923687593 0.45490343198865
0.381063829787234 0.45318664049944885 0.4531772807988552
0.38127659574468087 0.4507494313003397 0.45342352567860394
0.38148936170212766 0.45348096884556793 0.4458378249826699
0.38170212765957445 0.45388658730085757 0.44799849638613964
0.3819148936170213 0.45592830261223294 0.44922836878088973
0.3821276595744681 0.4570194101507547 0.45191740611352194
0.3823404255319149 0.4595969049735984 0.4562950129871835
0.3825531914893617 0.4635995138122891 0.4577488007944524
0.3827659574468085 0.467486098925204 0.4577339268034347
0.3829787234042553 0.47277075515198685 0.4594954788790291
0.3831914893617021 0.4757900431271196 0.4580875367916581
0.38340425531914896 0.47894495360320816 0.4568636508669977
0.38361702127659575 0.47534408435212 0.45676599902296044
0.38382978723404254 0.47184732869818413 0.4562146955765427
0.38404255319148933 0.4681779021860935 0.4525452690644521
0.3842553191489362 0.46674548022871987 0.45514819922599853
0.384468085106383 0.458795891044149 0.4557889594528579
0.38468085106382977 0.4555504003246017 0.4557889594528579
0.3848936170212766 0.45124437528519024 0.45708421196658905
0.3851063829787234 0.4506029663443679 0.4570667942809373
0.3853191489361702 0.45314517920857 0.4575131382250355
0.38553191489361704 0.4538348803126526 0.45859890899049327
0.38574468085106384 0.4490590534506022 0.45680974741834546
0.38595744680851063 0.44983649713177876 0.4528578407425501
0.3861702127659574 0.4485448660170088 0.4540722900779428
0.38638297872340427 0.44855599514763234 0.4549751377814907
0.38659574468085106 0.44974682198027743 0.4478491949988025
0.38680851063829785 0.44591305044076424 0.44678457669979915
0.3870212765957447 0.44765578748122054 0.4443879583568566
0.3872340425531915 0.44970621630745367 0.4448210184569408
0.3874468085106383 0.4482053618342665 0.4467628843797051
0.3876595744680851 0.4488446857567625 0.44961173191611065
0.3878723404255319 0.44992084311550096 0.4470132400721584
0.3880851063829787 0.44906085844900745 0.44981554604537455
0.3882978723404255 0.45083721872161014 0.44940493080682364
0.38851063829787236 0.452127567435363 0.45022083645142896
0.38872340425531915 0.44804420237117226 0.45030790259859094
0.38893617021276594 0.4481276702964783 0.4479185667615441
0.3891489361702128 0.44758124975923735 0.4457257405331805
0.3893617021276596 0.44540029416075916 0.44522090917124424
0.3895744680851064 0.4441286492592048 0.4441286492592048
0.38978723404255317 0.44575782387479196 0.4470998992727504
0.39 0.4417867261882969 0.44943970267737315
0.3902127659574468 0.44448154607102147 0.4532807464492172
0.3904255319148936 0.4422943469318473 0.4579556461874757
0.39063829787234045 0.43959701214731467 0.4607213535692711
0.39085106382978724 0.4382022471910112 0.4647802357422876
0.39106382978723403 0.4389405244827065 0.4621067309738144
0.3912765957446808 0.4366188262953523 0.4598206704814503
0.39148936170212767 0.43624816805080613 0.45291271291101287
0.39170212765957446 0.43581974393230666 0.4527507347129252
0.39191489361702125 0.43278290179259693 0.4516593551613469
0.3921276595744681 0.43396013299140085 0.4509037616023448
0.3923404255319149 0.4337641701342561 0.4509037616023448
0.3925531914893617 0.4376718646953109 0.4503407989715598
0.39276595744680853 0.43811733126058816 0.45128605207932787
0.3929787234042553 0.43722520762090866 0.45344301779133783
0.3931914893617021 0.43885192971307924 0.45220815822048205
0.3934042553191489 0.4382809704614243 0.4509824848727579
0.39361702127659576 0.4391459927135089 0.4557223713576482
0.39382978723404255 0.4384881142069566 0.4542636808365707
0.39404255319148934 0.4401563263312165 0.45676599902296044
0.3942553191489362 0.4409032487273075 0.4575129214190515
0.394468085106383 0.4416205417860462 0.4587200781631655
0.3946808510638298 0.4435638279499171 0.4593276936753151
0.39489361702127657 0.4450415241817294 0.4553585891913228
0.3951063829787234 0.4467131432516746 0.4538348803126526
0.3953191489361702 0.44984186154865385 0.45193737482817314
0.395531914893617 0.45143661784584216 0.4500155586975633
0.39574468085106385 0.44740755906530544 0.45028582798728833
0.39595744680851064 0.4508812225350636 0.44990418296496104
0.39617021276595743 0.45481191988275516 0.45208488982568396
0.3963829787234043 0.4509632320110374 0.44827728437293457
0.39659574468085107 0.4499614384427209 0.44699560332193444
0.39680851063829786 0.45012843774376776 0.443894307887626
0.39702127659574465 0.45349781939176587 0.44487299372128597
0.3972340425531915 0.4498351556067673 0.44220197189689653
0.3974468085106383 0.44699560332193444 0.44519054332584634
0.3976595744680851 0.4485836887670087 0.4476066491969062
0.39787234042553193 0.4502003064846904 0.4526400966746931
0.3980851063829787 0.4470080122788603 0.4568032258937377
0.3982978723404255 0.4491878756396459 0.45848188498565945
0.3985106382978723 0.4506463591030597 0.4555841273806104
0.39872340425531916 0.4517384896452983 0.45481191988275516
0.39893617021276595 0.45188080117244755 0.45481191988275516
0.39914893617021274 0.45424388666667215 0.4509037616023448
0.3993617021276596 0.45891378739816746 0.4499352154273353
0.3995744680851064 0.46000297145901997 0.4460185637518319
0.3997872340425532 0.4627644155283632 0.4464366153968304
0.4 0.4655593551538837 0.44592994409868003
0.4002127659574468 0.46881121545647636 0.44244003593965525
0.4004255319148936 0.46967974220995273 0.44036855510687517
0.4006382978723404 0.4668299657044434 0.44103550890783333
0.40085106382978725 0.4665191133133941 0.44420273589636394
0.40106382978723404 0.46479995000685626 0.45188080117244755
0.40127659574468083 0.45989366259347525 0.4522738908928616
0.4014893617021277 0.45889945452218195 0.4538348803126526
0.40170212765957447 0.4533825220439886 0.45490692869172755
0.40191489361702126 0.4513248349032195 0.45718707232383504
0.40212765957446805 0.45144992018676366 0.4598974435214821
0.4023404255319149 0.4517091196068318 0.46262823644357587
0.4025531914893617 0.4535233493202195 0.4620736459621847
0.4027659574468085 0.45505870687268296 0.4607941813351318
0.40297872340425533 0.45659406442514683 0.4595147167080786
0.4031914893617021 0.45812942197761025 0.45823525208102567
0.4034042553191489 0.4604100571127195 0.458225889721507
0.40361702127659577 0.46315666258466304 0.45901063414206233
0.40382978723404256 0.4655593551538837 0.4598766425296199
0.40404255319148935 0.4655593551538837 0.46131038864413293
0.40425531914893614 0.4655593551538837 0.46279603341098513
0.404468085106383 0.4655593551538837 0.46487180345047735
0.4046808510638298 0.46379992390963076 0.4655593551538837
0.4048936170212766 0.46262823644357587 0.4618297031155955
0.4051063829787234 0.4615525274120299 0.45451591149842496
0.4053191489361702 0.46032705388225387 0.44705987401518277
0.405531914893617 0.4607715772831727 0.44220782545122356
0.4057446808510638 0.4592209999271106 0.4391544828033265
0.40595744680851065 0.46001632432554107 0.43822166698429527
0.40617021276595744 0.45764924316308586 0.4451085209174273
0.40638297872340423 0.45650872779117013 0.44592317475450993
0.4065957446808511 0.4553682124192541 0.4467378285915928
0.40680851063829787 0.45422769704733845 0.4475524824286754
0.40702127659574466 0.4530871816754227 0.4483671362657581
0.4072340425531915 0.4519466663035067 0.4491817901028409
0.4074468085106383 0.4508102985250368 0.44995787639134494
0.4076595744680851 0.44971824500718693 0.45032189423062824
0.4078723404255319 0.44862619148933713 0.45068591206991154
0.40808510638297874 0.44753413797148706 0.45104992990919496
0.4082978723404255 0.44644208445363726 0.4514139477484782
0.4085106382978723 0.4453500309357874 0.4517779655877615
0.40872340425531917 0.4450415241817294 0.4540250424069997
0.40893617021276596 0.4436460973791888 0.4589982002903767
0.40914893617021275 0.44618312858500336 0.45603063198815175
0.40936170212765954 0.4456536922012129 0.45481191988275516
0.4095744680851064 0.4457015436758087 0.45349188089459647
0.4097872340425532 0.4460185637518319 0.45208657109195405
0.41 0.4433104394145441 0.45639434173459376
0.4102127659574468 0.44716777559003107 0.4594675547091394
0.4104255319148936 0.4493429057601652 0.4548159323327295
0.4106382978723404 0.4466643129589723 0.45057247123938265
0.41085106382978726 0.44463162848215854 0.44715285149289563
0.41106382978723405 0.4436818324048038 0.43990377306866935
0.41127659574468084 0.4447960858458673 0.4321039989812254
0.41148936170212763 0.4439583372747636 0.4276779633627762
0.4117021276595745 0.44230800723490216 0.42511101387636663
0.41191489361702127 0.43968572186865407 0.4250062412204633
0.41212765957446806 0.43758709614947283 0.42734618590429274
0.4123404255319149 0.44099373086168875 0.43446148867523365
0.4125531914893617 0.4385409313509443 0.4371405365809254
0.4127659574468085 0.43731194528625283 0.44345732095421775
0.4129787234042553 0.4410741411010332 0.44812070489275174
0.41319148936170214 0.44005440080689057 0.45360793849607306
0.41340425531914893 0.4453659244402025 0.4590463978189802
0.4136170212765957 0.4430048479910202 0.46186674732950234
0.41382978723404257 0.44244836913105645 0.4650145080922266
0.41404255319148936 0.44087731318323875 0.46216330230963376
0.41425531914893615 0.4407084574883417 0.4568932217671084
0.414468085106383 0.4351041720309779 0.4574730108862706
0.4146808510638298 0.43331804537914587 0.45188677740433303
0.4148936170212766 0.43709402871558123 0.449992311484906
0.4151063829787234 0.4382022471910112 0.4509037616023448
0.4153191489361702 0.43865647445896677 0.44954107979847824
0.415531914893617 0.4410733333884643 0.4456528622198946
0.4157446808510638 0.4430874450415241 0.4463813454388312
0.41595744680851066 0.4430874450415241 0.4441605689827989
0.41617021276595745 0.44657575654840165 0.44366883029267046
0.41638297872340424 0.4496686625007076 0.4505353049587376
0.4165957446808511 0.44992672203224227 0.45456859752729456
0.4168085106382979 0.44900516523536615 0.4607296400765972
0.41702127659574467 0.4527025905164026 0.46458231558378116
0.41723404255319146 0.4521640861411098 0.46458231558378116
0.4174468085106383 0.45444117349228796 0.46260314964660887
0.4176595744680851 0.4562328597942107 0.4580977000470189
0.4178723404255319 0.4571353046487287 0.45811234421883124
0.41808510638297874 0.457743038593063 0.46153656852313446
0.41829787234042554 0.457743038593063 0.46183741502605746
0.41851063829787233 0.457743038593063 0.4653523566830052
0.4187234042553191 0.45625319121827934 0.4730661838710901
0.41893617021276597 0.4615891525778753 0.4692193362519019
0.41914893617021276 0.4606741573033708 0.4651389239965477
0.41936170212765955 0.46150853197233677 0.45984698754702275
0.4195744680851064 0.4632066657922686 0.45046617941409045
0.4197872340425532 0.46160993677518003 0.44495900398514265
0.42 0.4606741573033708 0.4450287916364035
0.42021276595744683 0.4622475188883195 0.44680524454430626
0.4204255319148936 0.46077468134897337 0.4479223808692359
0.4206382978723404 0.4599399773291232 0.44691465012331616
0.4208510638297872 0.4621192299382627 0.4460185637518319
0.42106382978723406 0.4599981041674486 0.44556708410056145
0.42127659574468085 0.46180739778526797 0.4432436459533188
0.42148936170212764 0.4627182449541125 0.44406448461162684
0.4217021276595745 0.4636052760136786 0.4436232281129829
0.4219148936170213 0.4633366001412644 0.4419393935185616
0.4221276595744681 0.46385502537537127 0.4444734142555586
0.42234042553191486 0.46116561099604936 0.4450415241817294
0.4225531914893617 0.457743038593063 0.4477930767460588
0.4227659574468085 0.4552808543861092 0.44894968246213973
0.4229787234042553 0.45385162449611727 0.44894968246213973
0.42319148936170214 0.4556642533330306 0.45468721376292787
0.42340425531914894 0.45462369135818265 0.45402310883722513
0.42361702127659573 0.4538487761553387 0.45482581572544123
0.4238297872340426 0.4559054693911448 0.4571155288378211
0.42404255319148937 0.4562600222905175 0.4584321759021609
0.42425531914893616 0.45520389534742556 0.4540279689534146
0.42446808510638295 0.45631651587967326 0.4518027278889193
0.4246808510638298 0.45543806675991344 0.44758393094472754
0.4248936170212766 0.45241165286596546 0.4428182077294455
0.4251063829787234 0.45564580078689404 0.43834540585697507
0.42531914893617023 0.452037806900648 0.4371772048886336
0.425531914893617 0.4450415241817294 0.4294117174089663
0.4257446808510638 0.4450415241817294 0.43388128623286126
0.4259574468085106 0.44451440857406693 0.43677528365846857
0.42617021276595746 0.44339627983001023 0.4385616171841416
0.42638297872340425 0.44632125864751454 0.44079619356410904
0.42659574468085104 0.4431928267211261 0.44208406005152107
0.4268085106382979 0.44439297396893285 0.4364671609556768
0.4270212765957447 0.44823877328406503 0.4379536131985851
0.4272340425531915 0.45071786554582444 0.43877578845640614
0.4274468085106383 0.4468352438367924 0.44166197555765585
0.4276595744680851 0.44239404370668284 0.4454197560652297
0.4278723404255319 0.4427174441751965 0.45412395555438356
0.4280851063829787 0.4430874450415241 0.4585775160444436
0.42829787234042555 0.4431835691335143 0.46038578502740024
0.42851063829787234 0.44406448461162684 0.457743038593063
0.42872340425531913 0.4452053141669295 0.4558416560008918
0.428936170212766 0.4461138685890045 0.45153523864315503
0.42914893617021277 0.4469778726818586 0.45137898340733923
0.42936170212765956 0.44707746796513803 0.4509856262455484
0.42957446808510635 0.44746767760283734 0.4477530512557342
0.4297872340425532 0.4471279957622851 0.4444616619326787
0.43 0.4479600323895521 0.4420725739639663
0.4302127659574468 0.4464625697907962 0.4355081579858657
0.43042553191489363 0.4483713516789155 0.4316521355919052
0.4306382978723404 0.4474280767938942 0.42974516893863773
0.4308510638297872 0.4462476888116091 0.4264777723497801
0.43106382978723407 0.44575605303111926 0.4264777723497801
0.43127659574468086 0.44516019304817933 0.43591985008995915
0.43148936170212765 0.4458756623321315 0.44130008422430284
0.43170212765957444 0.4399208573781046 0.44914998765759656
0.4319148936170213 0.4387144681553535 0.45851137003957637
0.4321276595744681 0.43897907472031417 0.45988932289610257
0.4323404255319149 0.43722520762090866 0.4582000253413423
0.4325531914893617 0.43662318413932694 0.4589470855562266
0.4327659574468085 0.4376120900536096 0.45969711773326827
0.4329787234042553 0.4382022471910112 0.4588854297733206
0.4331914893617021 0.4391551835011549 0.46062595078345314
0.43340425531914895 0.4382238611960995 0.45654407600625135
0.43361702127659574 0.4451036218562094 0.45481191988275516
0.43382978723404253 0.44210166030425885 0.4561029790866749
0.4340425531914894 0.44544860346602594 0.4577973322602328
0.43425531914893617 0.44459876613955757 0.4591628362053373
0.43446808510638296 0.449756398991924 0.4621561470701262
0.4346808510638298 0.44856050033275324 0.4634583116534996
0.4348936170212766 0.44480436749722024 0.4667735514084956
0.4351063829787234 0.44406448461162684 0.47006891741680273
0.4353191489361702 0.4450005372131034 0.4779329738162096
0.43553191489361703 0.4469745281255854 0.48309337942485786
0.4357446808510638 0.4468731580266367 0.48294199192356746
0.4359574468085106 0.4443631063950377 0.47751431510669023
0.43617021276595747 0.4479726428920372 0.46767921209146696
0.43638297872340426 0.4479726428920372 0.4617846566434537
0.43659574468085105 0.4486243954763573 0.4590441865361928
0.43680851063829784 0.44894968246213973 0.4519067205818632
0.4370212765957447 0.4490421259438686 0.4421412199653312
0.4372340425531915 0.4497012115396326 0.4423609151639192
0.4374468085106383 0.45036029713539655 0.4425806103625072
0.4376595744680851 0.45101938273116066 0.44280030556109523
0.4378723404255319 0.45167846832692465 0.44302000075968323
0.4380851063829787 0.4523375539226886 0.4432396959582713
