0 0.4401563263312165 0.3209574987787005
0.0009746499999891967 0.4460185637518319 0.33170493404982904
0.0012353310003163642 0.4479726428920372 0.3453834880312652
0.001491973999691254 0.45188080117244755 0.37469467513434296
0.001812542999687139 0.44894968246213973 0.4137762579384465
0.003612178000366839 0.4460185637518319 0.5261358085002443
0.004601327999807836 0.44699560332193444 0.5349291646311676
0.005709271000341687 0.45188080117244755 0.4880312652662433
0.006066228000236151 0.4509037616023448 0.46946751343429405
0.006309667999630619 0.45188080117244755 0.44894968246213973
0.0065659419997246005 0.4538348803126526 0.43722520762090866
0.006775011999707203 0.4538348803126526 0.42940889106008795
0.006969600999582326 0.45481191988275516 0.4206155349291647
0.00716037599977426 0.4538348803126526 0.41475329750854906
0.007348095000452304 0.4528578407425501 0.412799218368344
0.007537202999628789 0.4538348803126526 0.40889106008793363
0.007726402999651327 0.4509037616023448 0.4059599413776258
0.007918899999822315 0.45481191988275516 0.40009770395701016
0.008109377999971912 0.45188080117244755 0.3952125061064973
0.008297540999592457 0.4509037616023448 0.39228138739618945
0.008485315999678278 0.45188080117244755 0.3932584269662922
0.008672109000144701 0.45676599902296044 0.37957987298485585
0.008866291000231286 0.4557889594528579 0.36980947728383007
0.009055139000338386 0.4587200781631655 0.36003908158280407
0.009244062000107078 0.46165119687347334 0.3531998045920859
0.009471835999647737 0.4587200781631655 0.35417684416218864
0.00967203599975619 0.46165119687347334 0.3629702002931119
0.009859587999926589 0.46458231558378116 0.3854421104054715
0.010160675999941304 0.4636052760136786 0.40986809965803617
0.010354543000175909 0.46262823644357587 0.43429408891060084
0.010556113000347978 0.4587200781631655 0.45481191988275516
0.01075725800001237 0.45676599902296044 0.46946751343429405
0.010957014000268828 0.457743038593063 0.4782608695652173
0.01116258399997605 0.4606741573033708 0.48412310698583294
0.011357506999956968 0.45481191988275516 0.49193942354665365
0.011566909999601194 0.4538348803126526 0.4978016609672691
0.011783998999817413 0.44992672203224227 0.5095261358085001
0.012006255000414967 0.44699560332193444 0.5271128480703469
0.01221508399976301 0.45188080117244755 0.540791402051783
0.012425451000126486 0.44992672203224227 0.5495847581827065
0.012636409999686293 0.44894968246213973 0.5476306790425012
0.012856240000473917 0.4509037616023448 0.5319980459208598
0.013051070000074105 0.45676599902296044 0.5134342940889105
0.013239658999737003 0.44894968246213973 0.4938935026868587
0.013472376999743574 0.4509037616023448 0.46946751343429405
0.013663984999766399 0.45188080117244755 0.44992672203224227
0.013851370999873325 0.46165119687347334 0.4333170493404983
0.014041200999599823 0.4538348803126526 0.41670737664875435
0.014272862999860081 0.45188080117244755 0.4040058622374205
0.014473526999609021 0.4509037616023448 0.40009770395701016
0.014661301000160165 0.45188080117244755 0.4010747435271129
0.014848853000330564 0.44992672203224227 0.39912066438690763
0.015036220999718353 0.44894968246213973 0.403028822667318
0.015225754000312008 0.44894968246213973 0.40889106008793363
0.015413176999572897 0.4479726428920372 0.4235466536394723
0.01560043300014513 0.44699560332193444 0.4323400097703958
0.015786930000103894 0.4430874450415241 0.43917928676111373
0.015974851999999373 0.44406448461162684 0.4450415241817294
0.01616368200029683 0.4430874450415241 0.45188080117244755
0.016350197999599914 0.4460185637518319 0.457743038593063
0.016552435000448895 0.4450415241817294 0.4636052760136786
0.01676595000026282 0.4450415241817294 0.4665363947239862
0.016968687000371574 0.4528578407425501 0.4733756717147044
0.017182294000122056 0.4460185637518319 0.4733756717147044
0.017393420000189508 0.44406448461162684 0.47142159257449934
0.01759502799995971 0.4450415241817294 0.4684904738641915
0.017783840000447526 0.44699560332193444 0.46262823644357587
0.017971244000364095 0.4460185637518319 0.4587200781631655
0.018158906999815372 0.45188080117244755 0.45481191988275516
0.01834738500019739 0.44699560332193444 0.4538348803126526
0.018534808000367775 0.4460185637518319 0.4538348803126526
0.018722804999924847 0.4460185637518319 0.4528578407425501
0.01891109799998958 0.4450415241817294 0.4538348803126526
0.019098353999652318 0.4430874450415241 0.44894968246213973
0.019285684000351466 0.44211040547142155 0.44894968246213973
0.019472828999823832 0.4430874450415241 0.44699560332193444
0.01965986199957115 0.44211040547142155 0.4479726428920372
0.019850470000164933 0.4430874450415241 0.4430874450415241
0.020037133999721846 0.44406448461162684 0.43917928676111373
0.02022383399980754 0.4450415241817294 0.43624816805080613
0.0204152010001053 0.4460185637518319 0.42745481191988266
0.020602753999810375 0.4460185637518319 0.4206155349291647
0.020790212999600044 0.44992672203224227 0.41182217879824123
0.020977320999918447 0.44894968246213973 0.4059599413776258
0.021164409999983036 0.44894968246213973 0.4049829018075233
0.021351352000237966 0.44992672203224227 0.39912066438690763
0.021549588999732805 0.45188080117244755 0.39912066438690763
0.021738288999586075 0.4479726428920372 0.403028822667318
0.021926155999608454 0.4479726428920372 0.40986809965803617
0.022114987000350084 0.44894968246213973 0.4235466536394723
0.02230289100043592 0.4538348803126526 0.4303859306301905
0.022495832000458904 0.45188080117244755 0.4352711284807034
0.02268662500046048 0.44992672203224227 0.43722520762090866
0.02287564000016573 0.45188080117244755 0.43722520762090866
0.02306382200004009 0.44992672203224227 0.43624816805080613
0.023250985000231594 0.44992672203224227 0.43624816805080613
0.023438575000000128 0.44699560332193444 0.4430874450415241
0.023626367999895592 0.44699560332193444 0.44211040547142155
0.023814698000023782 0.4460185637518319 0.44699560332193444
0.02400230599960196 0.44699560332193444 0.44699560332193444
0.02419043200006854 0.4479726428920372 0.44894968246213973
0.02437778100011201 0.44992672203224227 0.44894968246213973
0.024564387999816972 0.44894968246213973 0.44406448461162684
0.02475142200000846 0.44992672203224227 0.44211040547142155
0.024939863000327023 0.44894968246213973 0.4401563263312165
0.02512802700039174 0.44992672203224227 0.4303859306301905
0.02531509799973719 0.44894968246213973 0.42159257449926724
0.025558964000083506 0.44699560332193444 0.41475329750854906
0.025751015999958327 0.4460185637518319 0.4108451392281387
0.025939809000192326 0.44699560332193444 0.40693698094772834
0.02612800899987633 0.44699560332193444 0.4010747435271129
0.026338227999985975 0.44894968246213973 0.3883732291157791
0.026527428000008513 0.4479726428920372 0.3756717147044455
0.026716313999713748 0.44699560332193444 0.3639472398632144
0.026905495999926643 0.4479726428920372 0.3531998045920859
0.027093214999695192 0.44699560332193444 0.35417684416218864
0.027280582000457798 0.4460185637518319 0.3551538837322912
0.02746765299980325 0.44699560332193444 0.3561309233023937
0.027655500999571814 0.4450415241817294 0.36003908158280407
0.027842868999869097 0.44406448461162684 0.3639472398632144
0.02803071699963766 0.4430874450415241 0.36687835857352225
0.028218139999808045 0.4450415241817294 0.36492427943331696
0.028405173999999533 0.4460185637518319 0.36003908158280407
0.02859276300023339 0.4450415241817294 0.35906204201270153
0.02878109300036158 0.4460185637518319 0.36492427943331696
0.028968237999833946 0.4557889594528579 0.37469467513434296
0.02915586400013126 0.45188080117244755 0.3932584269662922
0.029343287000301643 0.4528578407425501 0.4059599413776258
0.029544635000092967 0.45188080117244755 0.4284318514899854
0.02973433599981945 0.4528578407425501 0.4528578407425501
0.02992162900045514 0.4538348803126526 0.48998534440644836
0.030110718000287306 0.4528578407425501 0.5319980459208598
0.030306067000310577 0.4538348803126526 0.5749877870053737
0.030526043999998365 0.4509037616023448 0.6091841719589643
0.03075579899996228 0.45481191988275516 0.6414264777723497
0.030974369999967166 0.4557889594528579 0.6463116756228626
0.03118343999994977 0.45969711773326827 0.6326331216414265
0.031389622000460804 0.45969711773326827 0.605276013678554
0.03159121099997719 0.4606741573033708 0.5740107474352711
0.03179354100029741 0.4587200781631655 0.5486077186126037
0.032027739999648475 0.4587200781631655 0.5398143624816805
0.032281994999721064 0.45676599902296044 0.5495847581827065
0.03252513900042686 0.45676599902296044 0.5593551538837322
0.03278878299988719 0.457743038593063 0.5525158768930141
0.03303290799976821 0.4587200781631655 0.4108451392281387
0.034139463000428805 0.4655593551538837 0.40009770395701016
0.03576652700030536 0.45969711773326827 0.45481191988275516
0.03608691099998396 0.4606741573033708 0.45969711773326827
0.03634570200028975 0.46165119687347334 0.4538348803126526
0.03657479100002092 0.4606741573033708 0.44992672203224227
0.03677125099966361 0.4636052760136786 0.44406448461162684
0.03696356199998263 0.45676599902296044 0.4382022471910112
0.037162077000175486 0.4557889594528579 0.43722520762090866
0.037363555000411 0.45188080117244755 0.4401563263312165
0.037568366000414244 0.4509037616023448 0.4450415241817294
0.03775830799986579 0.44894968246213973 0.45969711773326827
0.0379486009996981 0.4509037616023448 0.4978016609672691
0.03828335399975913 0.4509037616023448 0.5261358085002443
0.03865544000018417 0.44992672203224227 0.5554469956033219
0.03896132400041097 0.45188080117244755 0.5622862725940401
0.039227838000442716 0.44992672203224227 0.567171470444553
0.039714700000331504 0.45188080117244755 0.5583781143136297
0.040649331000167876 0.44699560332193444 0.4948705422569615
0.04097106700010045 0.44406448461162684 0.47435271128480694
0.041176247999828774 0.4430874450415241 0.4538348803126526
0.04137070799970388 0.441133365901319 0.43429408891060084
0.041582093000215536 0.4401563263312165 0.4040058622374205
0.042484855000111565 0.4382022471910112 0.348314606741573
0.042892366999694787 0.43917928676111373 0.3141182217879823
0.0434074499999042 0.4352711284807034 0.31021006350757196
0.04367227900002035 0.43917928676111373 0.3150952613580851
0.04390957099985826 0.43624816805080613 0.31216414264777725
0.04415030800009845 0.43429408891060084 0.3082559843673669
0.04435730400018656 0.43429408891060084 0.303370786516854
0.04455478199997742 0.4401563263312165 0.30923302393746943
0.04481687000043166 0.4323400097703958 0.3160723009281876
0.0450453479998032 0.43429408891060084 0.32975085490962375
0.04527030700046453 0.4352711284807034 0.33463605276013686
0.04548587699991913 0.4382022471910112 0.32975085490962375
0.04568979899977421 0.4401563263312165 0.3258426966292134
0.04589442599990434 0.441133365901319 0.3160723009281876
0.04611558800024795 0.4460185637518319 0.3180263800683927
0.04631489999974292 0.4460185637518319 0.32975085490962375
0.0465217479995772 0.44992672203224227 0.35906204201270153
0.046751539999604574 0.44894968246213973 0.4059599413776258
0.04697938800018164 0.4528578407425501 0.4636052760136786
0.04719406999993225 0.4606741573033708 0.5359062042012701
0.047406122000211326 0.46458231558378116 0.6121152906692722
0.04764124699977401 0.47239863214460187 0.6668295065950172
0.047864836000371724 0.47435271128480694 0.6824621397166586
0.04806375800035312 0.47239863214460187 0.6736687835857351
0.04826247700020758 0.4763067904250122 0.643380556912555
0.048454806999870925 0.4733756717147044 0.6023448949682462
0.04868165500010946 0.4753297508549097 0.5574010747435272
0.04894863200024702 0.4753297508549097 0.5368832437713726
0.04915899800016632 0.4733756717147044 0.5398143624816805
0.049417715999879874 0.47239863214460187 0.5515388373229115
0.04980322800020076 0.4733756717147044 0.5525158768930141
0.050056019999829005 0.4704445530043966 0.550561797752809
0.05027488700034155 0.4665363947239862 0.5437225207620908
0.050481901000239304 0.4655593551538837 0.5310210063507572
0.050690656999904604 0.4665363947239862 0.5095261358085001
0.0508872460004568 0.4655593551538837 0.4763067904250122
0.05108172400014155 0.4655593551538837 0.42940889106008795
0.0512844060003772 0.46458231558378116 0.38153395212506114
0.051488940000126604 0.4655593551538837 0.34440644846116264
0.05169071399996028 0.4636052760136786 0.3180263800683927
0.05188478499985649 0.4606741573033708 0.3053248656570591
0.05208180000045104 0.4665363947239862 0.31021006350757196
0.05228638900007354 0.4606741573033708 0.3307278944797265
0.052487015000224346 0.4606741573033708 0.35710796287249624
0.05268578899995191 0.4587200781631655 0.39228138739618945
0.05288828599987028 0.45969711773326827 0.42745481191988266
0.0530999669999801 0.457743038593063 0.45676599902296044
0.05329533399981301 0.4538348803126526 0.4831460674157304
0.05354527399958897 0.4528578407425501 0.5026868588177822
0.05378462200042122 0.4538348803126526 0.5085490962383976
0.05401017399981356 0.4509037616023448 0.5114802149487054
0.05433768599959876 0.4509037616023448 0.5026868588177822
0.05456307100030244 0.4509037616023448 0.486077186126038
0.05479606700009754 0.4479726428920372 0.4684904738641915
0.055008414999974775 0.4450415241817294 0.45481191988275516
0.05522604100042372 0.4460185637518319 0.4382022471910112
0.05547305599975516 0.44406448461162684 0.4284318514899854
0.055722625000271364 0.44211040547142155 0.41475329750854906
0.056096471000273596 0.44406448461162684 0.41670737664875435
0.05642518700005894 0.44699560332193444 0.42452369320957506
0.056690497000090545 0.44699560332193444 0.43722520762090866
0.05692484500013961 0.44894968246213973 0.4382022471910112
0.05715204500029358 0.44992672203224227 0.4352711284807034
0.057386837000194646 0.45188080117244755 0.4235466536394723
0.05767070300043997 0.44992672203224227 0.41475329750854906
0.0579016239998964 0.45188080117244755 0.4079140205178309
0.0581244909999441 0.44894968246213973 0.40693698094772834
0.058385209000334726 0.44894968246213973 0.4049829018075233
0.05866714799958572 0.45188080117244755 0.40693698094772834
0.058888995999950566 0.4479726428920372 0.4137762579384465
0.05909265900027094 0.44992672203224227 0.4255007327796776
0.059308693000275525 0.44992672203224227 0.4479726428920372
0.05958277999980055 0.44894968246213973 0.46458231558378116
0.05979666599978373 0.4479726428920372 0.48412310698583294
0.06000505100018927 0.44894968246213973 0.49877870053737183
0.06020317700040323 0.44992672203224227 0.5114802149487054
0.06043615500038868 0.4460185637518319 0.5261358085002443
0.06068670599961479 0.4450415241817294 0.5290669272105519
0.060940053000194894 0.4460185637518319 0.5359062042012701
0.0612387889996171 0.44406448461162684 0.524181729360039
0.06155641300028947 0.441133365901319 0.5075720566682951
0.061873093000031076 0.441133365901319 0.4948705422569615
0.06212816199968074 0.4401563263312165 0.4880312652662433
0.06239800900038972 0.43722520762090866 0.4880312652662433
0.06270341199979157 0.43722520762090866 0.4909623839765511
0.06290955599979497 0.4382022471910112 0.4938935026868587
0.06310045999998692 0.441133365901319 0.48705422569614076
0.06329264200030593 0.441133365901319 0.47923790913532005
0.06349939800020366 0.4479726428920372 0.46165119687347334
0.0636890060004589 0.4450415241817294 0.4430874450415241
0.06388042799972027 0.4479726428920372 0.4284318514899854
0.06406942499961588 0.44992672203224227 0.4108451392281387
0.06425758800014592 0.45188080117244755 0.4010747435271129
0.0644464919996608 0.4509037616023448 0.3932584269662922
0.06466537699998298 0.4557889594528579 0.39423546653639474
0.06485537400021713 0.457743038593063 0.403028822667318
0.06504338899958384 0.4557889594528579 0.41475329750854906
0.06523083100000804 0.45969711773326827 0.4323400097703958
0.06541878999996698 0.45676599902296044 0.44699560332193444
0.0656480460002058 0.45676599902296044 0.46165119687347334
0.06583652399967832 0.45676599902296044 0.4733756717147044
0.06602874300006079 0.457743038593063 0.4802149487054226
0.06621931300014694 0.457743038593063 0.47728382999511476
0.0664078290001271 0.45676599902296044 0.47239863214460187
0.0665956399998322 0.457743038593063 0.4636052760136786
0.06678413700046804 0.457743038593063 0.4528578407425501
0.06697202299983473 0.45481191988275516 0.4430874450415241
0.06715964900013205 0.4557889594528579 0.43722520762090866
0.06734777499968914 0.44992672203224227 0.42940889106008795
0.06753562399990187 0.45188080117244755 0.42452369320957506
0.06772428699969169 0.4509037616023448 0.4206155349291647
0.06791285800045443 0.45188080117244755 0.42256961406936977
0.06810017000043445 0.4528578407425501 0.42159257449926724
0.06828746300016064 0.4538348803126526 0.4264777723497801
0.06847514499986573 0.4528578407425501 0.42745481191988266
0.06866290099969774 0.45481191988275516 0.4323400097703958
0.06885063800018543 0.4538348803126526 0.4382022471910112
0.06903815300029237 0.4528578407425501 0.4479726428920372
0.06923361299959652 0.4528578407425501 0.4528578407425501
0.06943359100023372 0.4528578407425501 0.4557889594528579
0.06962416199985455 0.4528578407425501 0.45676599902296044
0.06981189900034224 0.4557889594528579 0.4557889594528579
0.07000180300019565 0.4538348803126526 0.457743038593063
0.0701916150001125 0.4557889594528579 0.44992672203224227
0.07037853800011362 0.45481191988275516 0.4460185637518319
0.07056590499996673 0.4528578407425501 0.44699560332193444
0.07075327199981984 0.45676599902296044 0.45188080117244755
0.07094062000032864 0.457743038593063 0.4479726428920372
0.07112804299958952 0.45188080117244755 0.45188080117244755
0.07131646600009844 0.44992672203224227 0.45188080117244755
0.0715036660003534 0.44699560332193444 0.457743038593063
0.07169203299963556 0.4509037616023448 0.46165119687347334
0.07187951099967904 0.44699560332193444 0.4704445530043966
0.07206810099978611 0.44894968246213973 0.46262823644357587
0.07225559800008341 0.44894968246213973 0.46165119687347334
0.07244433500000014 0.44894968246213973 0.4636052760136786
0.07266412700028013 0.4538348803126526 0.4587200781631655
0.07285566100017604 0.4509037616023448 0.4528578407425501
0.07304421299977548 0.4587200781631655 0.4509037616023448
0.0732322470003055 0.44992672203224227 0.4509037616023448
0.07341983700007404 0.44894968246213973 0.44699560332193444
0.07362929600003554 0.44992672203224227 0.4450415241817294
0.07382386700010102 0.44699560332193444 0.4264777723497801
0.07470951800041803 0.44406448461162684 0.41670737664875435
0.0749323469999581 0.4479726428920372 0.4108451392281387
0.07514163999985612 0.4460185637518319 0.4049829018075233
0.07534422899971105 0.4430874450415241 0.40205178309721545
0.07554552199962927 0.44406448461162684 0.39912066438690763
0.07575062900014018 0.44699560332193444 0.403028822667318
0.07597681100014597 0.4450415241817294 0.4079140205178309
0.07619112199972733 0.4509037616023448 0.40986809965803617
0.07639248899977247 0.4479726428920372 0.40009770395701016
0.07658355900002789 0.4509037616023448 0.39912066438690763
0.07677355600026203 0.4538348803126526 0.4010747435271129
0.07696497899996757 0.45188080117244755 0.4059599413776258
0.07715621599982114 0.4538348803126526 0.4157303370786516
0.07734786099990743 0.45481191988275516 0.4323400097703958
0.07755981999980577 0.4538348803126526 0.441133365901319
0.07775074300025153 0.45188080117244755 0.44894968246213973
0.07794190599997819 0.44894968246213973 0.45481191988275516
0.07813227299993741 0.4538348803126526 0.45969711773326827
0.07832317700012936 0.44894968246213973 0.4655593551538837
0.07851398900038475 0.4479726428920372 0.47142159257449934
0.07870441100021708 0.44699560332193444 0.48412310698583294
0.0788948529998379 0.44992672203224227 0.486077186126038
0.07908647899967036 0.4479726428920372 0.48705422569614076
0.0792771790002007 0.44699560332193444 0.4831460674157304
0.07946854599958897 0.44406448461162684 0.4733756717147044
0.07965930200043658 0.44406448461162684 0.46165119687347334
0.07985052099957102 0.4450415241817294 0.4587200781631655
0.08004144400001678 0.44406448461162684 0.4557889594528579
0.08025656999961939 0.44406448461162684 0.45969711773326827
0.08045643700006622 0.44406448461162684 0.467513434294089
0.0806921550001789 0.4430874450415241 0.47239863214460187
0.0809241690003546 0.4430874450415241 0.4733756717147044
0.0811240920002092 0.44211040547142155 0.467513434294089
0.08132162499987317 0.4401563263312165 0.4587200781631655
0.08158521299992572 0.43722520762090866 0.441133365901319
0.08188944900030037 0.43624816805080613 0.42940889106008795
0.08218825800031482 0.4333170493404983 0.41963849535906195
0.08261712100011209 0.4333170493404983 0.42452369320957506
0.0834148109997841 0.4352711284807034 0.412799218368344
0.08363389999976789 0.4401563263312165 0.40009770395701016
0.08385893299964664 0.43917928676111373 0.3883732291157791
0.08406470699992497 0.44406448461162684 0.37957987298485585
0.0844628670001839 0.44894968246213973 0.3913043478260869
0.08581771399985882 0.4528578407425501 0.5564240351734244
0.08684169600019231 0.4528578407425501 0.4557889594528579
0.08984388499993656 0.46262823644357587 0.49975574010747437
0.09090370000012626 0.4587200781631655 0.605276013678554
0.09148009700038529 0.4538348803126526 0.6238397655105032
0.09174370399978216 0.4538348803126526 0.6121152906692722
0.09201471699998365 0.44894968246213973 0.5759648265754762
0.09230332399965846 0.44992672203224227 0.5417684416218858
0.09258385599969188 0.44992672203224227 0.5026868588177822
0.09298440400016261 0.45188080117244755 0.28187591597459694
0.09482570599993778 0.4528578407425501 0.26917440156326333
0.0950293320001947 0.4538348803126526 0.26722032242305804
0.0952203280003232 0.4538348803126526 0.27992183683439187
0.09544739899956767 0.4538348803126526 0.30923302393746943
0.09563648800030933 0.457743038593063 0.34929164631167553
0.09582537400001456 0.4557889594528579 0.39716658524670256
0.09601342600035423 0.45676599902296044 0.44894968246213973
0.09620092299974203 0.457743038593063 0.495847581827064
0.09638895599982789 0.467513434294089 0.5329750854909623
0.09660160099974746 0.46165119687347334 0.5495847581827065
0.0968321520003883 0.46165119687347334 0.5534929164631168
0.09702209300030518 0.4636052760136786 0.5534929164631168
0.09721057200022187 0.4606741573033708 0.5456765999022961
0.09739779099982115 0.45969711773326827 0.5427454811919883
0.0976251020001655 0.46262823644357587 0.540791402051783
0.0978128579999975 0.45676599902296044 0.533952125061065
0.09800200199970277 0.45676599902296044 0.5202735710796287
0.09819809199962037 0.4528578407425501 0.5056179775280898
0.09840045800046937 0.4538348803126526 0.4929164631167562
0.09861402899969107 0.4509037616023448 0.4782608695652173
0.09886615400046139 0.4460185637518319 0.4684904738641915
0.09909044600044581 0.4450415241817294 0.4636052760136786
0.09961147400008485 0.44699560332193444 0.467513434294089
0.09983678499975213 0.44406448461162684 0.47239863214460187
0.10002672700011317 0.44699560332193444 0.4763067904250122
0.10026225900037389 0.44406448461162684 0.4782608695652173
0.10044962699976168 0.44211040547142155 0.4763067904250122
0.10063964199980546 0.441133365901319 0.47728382999511476
0.10082676799993351 0.4401563263312165 0.46946751343429405
0.10101363499961735 0.43917928676111373 0.45969711773326827
0.10120161400027428 0.441133365901319 0.45188080117244755
0.10146696100036934 0.4401563263312165 0.4430874450415241
0.10165612400032842 0.44211040547142155 0.4401563263312165
0.10184256499996991 0.441133365901319 0.43624816805080613
0.10202922900043632 0.4430874450415241 0.4323400097703958
0.10221600299973943 0.44406448461162684 0.431362970200293
0.10240292599974055 0.4450415241817294 0.4323400097703958
0.10258962599982624 0.4450415241817294 0.4333170493404983
0.10277938200033532 0.44406448461162684 0.4382022471910112
0.1029823420003595 0.44211040547142155 0.4450415241817294
0.10317232000033982 0.441133365901319 0.44894968246213973
0.10336157599977014 0.441133365901319 0.45188080117244755
0.10354796200044802 0.44211040547142155 0.45188080117244755
0.10373482900013187 0.441133365901319 0.45188080117244755
0.10392186300032336 0.4450415241817294 0.44699560332193444
0.1041083959999014 0.44406448461162684 0.4303859306301905
0.10429487500005052 0.4460185637518319 0.42452369320957506
0.10448203800024203 0.4479726428920372 0.41182217879824123
0.10466883099979896 0.4509037616023448 0.4040058622374205
0.10485586499999044 0.4538348803126526 0.39716658524670256
0.10504650999973819 0.44894968246213973 0.39912066438690763
0.10523385800024698 0.45188080117244755 0.40009770395701016
0.10542016999988846 0.4528578407425501 0.40986809965803617
0.10564338800031692 0.4557889594528579 0.42452369320957506
0.10583023700019112 0.4587200781631655 0.4450415241817294
0.10622784099996352 0.45676599902296044 0.4704445530043966
0.10673220300031971 0.45481191988275516 0.4753297508549097
0.1069306070003222 0.45676599902296044 0.4753297508549097
0.1071305850000499 0.4528578407425501 0.48412310698583294
0.10733248900032777 0.4557889594528579 0.47923790913532005
0.1082252320002226 0.44992672203224227 0.4655593551538837
0.10848159800025314 0.44699560332193444 0.46165119687347334
0.10867305800002214 0.4479726428920372 0.45676599902296044
0.10886146200027724 0.44699560332193444 0.4538348803126526
0.1090483480002149 0.44699560332193444 0.44699560332193444
0.10923349299991969 0.44699560332193444 0.4450415241817294
0.10948426600043604 0.44699560332193444 0.4401563263312165
0.10972494700035895 0.4479726428920372 0.4382022471910112
0.10992805499972746 0.44992672203224227 0.43429408891060084
0.11011684799996146 0.44992672203224227 0.4352711284807034
0.11030315900006826 0.44894968246213973 0.4352711284807034
0.11070304100030626 0.4509037616023448 0.44699560332193444
0.11111688599976333 0.44992672203224227 0.4430874450415241
0.11131271599970205 0.44699560332193444 0.4450415241817294
0.11150002700014738 0.44894968246213973 0.4450415241817294
0.11168720899968321 0.44699560332193444 0.4450415241817294
0.11187322499972652 0.44992672203224227 0.4509037616023448
0.11205859199981205 0.4538348803126526 0.44699560332193444
0.11224512599983427 0.4538348803126526 0.44894968246213973
0.11248760299986316 0.44992672203224227 0.44699560332193444
0.11267345099986414 0.45188080117244755 0.44211040547142155
0.11286124399975961 0.44992672203224227 0.4430874450415241
0.11304733399992983 0.45188080117244755 0.4430874450415241
0.1132326449996981 0.44992672203224227 0.4401563263312165
0.11347406700042484 0.44894968246213973 0.44211040547142155
0.11369145200023922 0.4479726428920372 0.44406448461162684
0.1138973380002426 0.4479726428920372 0.44992672203224227
0.11410916699969675 0.44894968246213973 0.45481191988275516
0.11430753399963578 0.44992672203224227 0.4303859306301905
0.1160525779996533 0.44992672203224227 0.42745481191988266
0.1162965740004438 0.44894968246213973 0.42940889106008795
0.11651151400019444 0.4479726428920372 0.4333170493404983
0.11671639999985928 0.44699560332193444 0.4333170493404983
0.11691500699998869 0.4460185637518319 0.4352711284807034
0.11712211499980185 0.4528578407425501 0.44211040547142155
0.11741735099985817 0.4479726428920372 0.4509037616023448
0.1177357149999807 0.45188080117244755 0.4557889594528579
0.11811556100019516 0.45481191988275516 0.45969711773326827
0.11860557100044389 0.4509037616023448 0.45969711773326827
0.11894497200046317 0.45188080117244755 0.4587200781631655
0.11921483799960697 0.4479726428920372 0.45676599902296044
0.11985486400044465 0.44699560332193444 0.457743038593063
0.12027113400017697 0.44699560332193444 0.44699560332193444
0.12051405599959253 0.4460185637518319 0.441133365901319
0.12072482999974454 0.44406448461162684 0.43429408891060084
0.12096265899981518 0.4460185637518319 0.4303859306301905
0.12119200699999055 0.44406448461162684 0.4284318514899854
0.12155157500001224 0.44992672203224227 0.42745481191988266
0.12617979100014054 0.4509037616023448 0.41182217879824123
0.1264381940000021 0.4450415241817294 0.4079140205178309
0.12674635500025033 0.4460185637518319 0.4040058622374205
0.1269623700000011 0.4450415241817294 0.403028822667318
0.1271777000001748 0.4450415241817294 0.3932584269662922
0.12738912199984043 0.4450415241817294 0.3678553981436248
0.12759639599971706 0.44894968246213973 0.33952125061064975
0.12781105900012335 0.44211040547142155 0.3141182217879823
0.12801837000006344 0.44406448461162684 0.293600390815828
0.1282236630004263 0.44211040547142155 0.28187591597459694
0.1284319559999858 0.4450415241817294 0.28187591597459694
0.1286430999998629 0.4479726428920372 0.28969223253541765
0.12885178200031078 0.44894968246213973 0.29946262823644365
0.1290554079996582 0.4509037616023448 0.30923302393746943
0.12926118199993653 0.44894968246213973 0.31900341963849543
0.1295181590003267 0.4509037616023448 0.3365901319003419
0.12972958099999232 0.4528578407425501 0.36003908158280407
0.1299405959998694 0.4557889594528579 0.38935026868588185
0.1301525919998312 0.45676599902296044 0.42452369320957506
0.13034134800000174 0.457743038593063 0.46165119687347334
0.13052904899996065 0.46165119687347334 0.49877870053737183
0.13071848999970825 0.457743038593063 0.5300439667806547
0.13090583899975172 0.46458231558378116 0.5583781143136297
0.13111189099981857 0.46458231558378116 0.5808500244259893
0.13130201700005273 0.4655593551538837 0.595505617977528
0.13148969899975782 0.467513434294089 0.6179775280898876
0.1316769920003935 0.46946751343429405 0.6384953590620419
0.13186458099971787 0.47142159257449934 0.6638983878847093
0.1320524109996768 0.46946751343429405 0.6844162188568637
0.13224027799969917 0.47142159257449934 0.7029799706888129
0.13243633100046281 0.46946751343429405 0.7107962872496336
0.13263793799978885 0.467513434294089 0.7078651685393258
0.1328382869996858 0.4665363947239862 0.6941866145578897
0.13303952400019625 0.4655593551538837 0.67171470444553
0.13323616900015622 0.46458231558378116 0.6443575964826576
0.13348009000037564 0.4606741573033708 0.6130923302393747
0.13367379099963728 0.46165119687347334 0.5876893014167073
0.13386560199978703 0.4606741573033708 0.5730337078651686
0.1340524879997247 0.4587200781631655 0.5456765999022961
0.134240114000022 0.45676599902296044 0.524181729360039
0.13444222199996148 0.45676599902296044 0.5017098192476794
0.13463345899981505 0.4557889594528579 0.4811919882755251
0.13482019700040837 0.4538348803126526 0.457743038593063
0.13500904499960598 0.4557889594528579 0.42940889106008795
0.13523572600024636 0.4538348803126526 0.40693698094772834
0.13542492699980357 0.4528578407425501 0.3913043478260869
0.1356108870004391 0.4528578407425501 0.3776257938446508
0.13579660600044008 0.4509037616023448 0.3707865168539326
0.1359834539998701 0.44992672203224227 0.3639472398632144
0.13617015500039997 0.45188080117244755 0.3561309233023937
0.1363618920004228 0.44992672203224227 0.3502686858817783
0.13655088900031842 0.4528578407425501 0.34636052760136793
0.13673696000023483 0.44992672203224227 0.3434294088910601
0.13692341899968596 0.4460185637518319 0.3453834880312652
0.13711078600044857 0.4460185637518319 0.3512457254518808
0.1372970800002804 0.44406448461162684 0.35417684416218864
0.13750677999996697 0.44894968246213973 0.3688324377137273
0.13769703599973582 0.44894968246213973 0.38739618954567656
0.13788453199958894 0.44406448461162684 0.4176844162188569
0.13832561700019141 0.44406448461162684 0.4352711284807034
0.13901071599957504 0.441133365901319 0.467513434294089
0.13933091499984585 0.4450415241817294 0.4655593551538837
0.13953589199991256 0.43917928676111373 0.4538348803126526
0.13973677800004225 0.43917928676111373 0.44894968246213973
0.13995736699962436 0.441133365901319 0.4450415241817294
0.14016025199998694 0.4382022471910112 0.44406448461162684
0.1403596000000107 0.4382022471910112 0.44894968246213973
0.14055726399965351 0.43917928676111373 0.44211040547142155
0.14074477899976046 0.4401563263312165 0.4401563263312165
0.14093227600005775 0.43917928676111373 0.441133365901319
0.1411263649997636 0.441133365901319 0.43722520762090866
0.14131665799959592 0.441133365901319 0.43624816805080613
0.1415413949998765 0.4401563263312165 0.43917928676111373
0.14173009499972977 0.441133365901319 0.44406448461162684
0.1419162590000269 0.4430874450415241 0.4460185637518319
0.14210212600028171 0.4401563263312165 0.44894968246213973
0.14228767799977504 0.44211040547142155 0.441133365901319
0.142477100999713 0.44406448461162684 0.4352711284807034
0.1426631719996294 0.44211040547142155 0.4235466536394723
0.14285022399963054 0.44406448461162684 0.4186614557889594
0.14303740600007586 0.4430874450415241 0.4108451392281387
0.14322521699978097 0.4430874450415241 0.41475329750854906
0.14341134400001465 0.4460185637518319 0.4186614557889594
0.14359785899978306 0.44699560332193444 0.4206155349291647
0.14378420800039748 0.44894968246213973 0.4264777723497801
0.14396992700039846 0.44894968246213973 0.4323400097703958
0.14415955300046335 0.44992672203224227 0.4401563263312165
0.1444050669997523 0.44992672203224227 0.4460185637518319
0.14463284100020246 0.4509037616023448 0.44699560332193444
0.14483852299963473 0.4509037616023448 0.4557889594528579
0.14502535300016461 0.45188080117244755 0.46165119687347334
0.14521616399997583 0.4538348803126526 0.4733756717147044
0.14540299399959622 0.4557889594528579 0.4880312652662433
0.14563897199968778 0.4528578407425501 0.49975574010747437
0.14583293099985895 0.45188080117244755 0.5056179775280898
0.14601965000019845 0.4528578407425501 0.5017098192476794
0.14620611000009376 0.44894968246213973 0.4948705422569615
0.14639351400001033 0.45188080117244755 0.48216902784562765
0.14657980700030748 0.44894968246213973 0.4733756717147044
0.1468222470002729 0.44699560332193444 0.46946751343429405
0.14702181800021208 0.4430874450415241 0.46946751343429405
0.14721775900034118 0.4460185637518319 0.4753297508549097
0.14740903399979288 0.44992672203224227 0.48216902784562765
0.14760254900011205 0.4479726428920372 0.4909623839765511
0.1477985080000508 0.44894968246213973 0.4948705422569615
0.1480113010002242 0.4479726428920372 0.49682462139716654
0.14822861199991166 0.4460185637518319 0.4636052760136786
0.14985452800010535 0.44699560332193444 0.403028822667318
0.15045616600036738 0.4479726428920372 0.3659013190034197
0.15154697999969358 0.45481191988275516 0.35906204201270153
0.15202004599996144 0.46165119687347334 0.34636052760136793
0.15223939400038944 0.4587200781631655 0.3356130923302394
0.15244033500039222 0.4606741573033708 0.3336590131900341
0.15263962799963338 0.4587200781631655 0.33952125061064975
0.15289155000027677 0.45676599902296044 0.3707865168539326
0.15483296000002156 0.457743038593063 0.5310210063507572
0.15534372900037852 0.45969711773326827 0.49193942354665365
0.15580049900017912 0.45676599902296044 0.45676599902296044
0.15616610399956699 0.4557889594528579 0.4430874450415241
0.1564522839998972 0.4528578407425501 0.43722520762090866
0.15669798300041293 0.44699560332193444 0.4333170493404983
0.1569312390001869 0.45188080117244755 0.4303859306301905
0.15716779000013048 0.4460185637518319 0.4352711284807034
0.1576044310004363 0.441133365901319 0.4479726428920372
0.15849304499988648 0.4460185637518319 0.4655593551538837
0.15871556000001874 0.44406448461162684 0.4802149487054226
0.15892594500019186 0.4450415241817294 0.4929164631167562
0.15912999699958164 0.4460185637518319 0.5007327796775769
0.1593322150001768 0.4460185637518319 0.5007327796775769
0.15953254499981995 0.4460185637518319 0.4948705422569615
0.15996563000044262 0.45188080117244755 0.495847581827064
0.1602116260000912 0.45188080117244755 0.5026868588177822
0.1606113039997581 0.4528578407425501 0.5026868588177822
0.1608196899996983 0.44894968246213973 0.4978016609672691
0.1611323139995875 0.4479726428920372 0.4851001465559355
0.1613790869996592 0.44894968246213973 0.4665363947239862
0.161633157000324 0.4479726428920372 0.44992672203224227
0.1618769489996339 0.44699560332193444 0.40205178309721545
0.16284358000029897 0.4460185637518319 0.403028822667318
0.1630501319996256 0.44699560332193444 0.4049829018075233
0.16324473999975453 0.44699560332193444 0.41475329750854906
0.16344214400032797 0.4460185637518319 0.4284318514899854
0.16363312199973734 0.4460185637518319 0.4430874450415241
0.16382191499997134 0.4450415241817294 0.45969711773326827
0.16401093100012076 0.4479726428920372 0.4733756717147044
0.16419989000041824 0.4460185637518319 0.4851001465559355
0.16438870199999656 0.4450415241817294 0.495847581827064
0.16458462399987184 0.441133365901319 0.5007327796775769
0.1647814540001491 0.4401563263312165 0.4978016609672691
0.16514626299976953 0.43722520762090866 0.48216902784562765
0.16541410999980144 0.4352711284807034 0.45481191988275516
0.16578693700012082 0.4382022471910112 0.4352711284807034
0.16598315600003843 0.4401563263312165 0.4157303370786516
0.16617318899989186 0.4430874450415241 0.3952125061064973
0.1663635559998511 0.44406448461162684 0.38935026868588185
0.1665525720000005 0.44992672203224227 0.38251099169516367
0.16674216100000194 0.45188080117244755 0.3913043478260869
0.16693062099966482 0.4509037616023448 0.4079140205178309
0.16711898799985647 0.4528578407425501 0.42745481191988266
0.16730824400019628 0.4509037616023448 0.4509037616023448
0.16749694400004955 0.4528578407425501 0.46946751343429405
0.16768786699958582 0.44992672203224227 0.4831460674157304
0.16787649300022167 0.44992672203224227 0.486077186126038
0.16806463800003257 0.44894968246213973 0.4880312652662433
0.16825354200045695 0.44894968246213973 0.49193942354665365
0.1684421680001833 0.45188080117244755 0.4909623839765511
0.16862955400029023 0.4509037616023448 0.4909623839765511
0.16881723599999532 0.44992672203224227 0.49682462139716654
0.1690056959996582 0.44992672203224227 0.4978016609672691
0.1691968960003578 0.4509037616023448 0.5007327796775769
0.1693845780000629 0.44992672203224227 0.5075720566682951
0.16958085199985362 0.4509037616023448 0.5065950170981925
0.1697945340001752 0.4509037616023448 0.5056179775280898
0.17005319599957147 0.4509037616023448 0.486077186126038
0.1702812109997467 0.457743038593063 0.4655593551538837
0.17049241099994106 0.45188080117244755 0.4352711284807034
0.17069077799988008 0.4538348803126526 0.38739618954567656
0.17089818099975673 0.4528578407425501 0.3414753297508548
0.17109212200011825 0.45481191988275516 0.3004396678065462
0.1712878409998666 0.4557889594528579 0.27210552027357116
0.1714936710004622 0.4557889594528579 0.2457254518808012
0.17184283200003847 0.45676599902296044 0.2603810454323401
0.17208564199972898 0.45481191988275516 0.2867611138251098
0.17231669400007377 0.4557889594528579 0.3180263800683927
0.1725134500002241 0.457743038593063 0.35417684416218864
0.17270994600039558 0.457743038593063 0.3903273082559844
0.17290283199963596 0.45676599902296044 0.42940889106008795
0.17309377299989137 0.45676599902296044 0.4587200781631655
0.17328110299968102 0.45676599902296044 0.48900830483634583
0.17349882100006653 0.457743038593063 0.5134342940889105
0.1736920220000684 0.4606741573033708 0.5329750854909623
0.17388138899968908 0.4587200781631655 0.5486077186126037
0.17406958900028258 0.46165119687347334 0.5583781143136297
0.17425786399962817 0.45676599902296044 0.5564240351734244
0.17444623099981982 0.45676599902296044 0.5515388373229115
0.17463415400015947 0.4587200781631655 0.5398143624816805
0.1748218539996742 0.4528578407425501 0.5319980459208598
0.17501036900011968 0.45481191988275516 0.524181729360039
0.1751981249999517 0.4557889594528579 0.5202735710796287
0.17538576999959332 0.45188080117244755 0.5202735710796287
0.17557341500014445 0.4528578407425501 0.5212506106497312
0.17576072700012446 0.4538348803126526 0.5300439667806547
0.17595322299985128 0.4538348803126526 0.5280898876404494
0.1761424980004449 0.4509037616023448 0.522227650219834
0.17633141999976942 0.45188080117244755 0.5114802149487054
0.1765205279998554 0.4557889594528579 0.49975574010747437
0.17670835799981433 0.4528578407425501 0.48900830483634583
0.1768957619997309 0.4538348803126526 0.4811919882755251
0.17708314799983782 0.4528578407425501 0.4782608695652173
0.17727149700021982 0.45676599902296044 0.4733756717147044
0.17748688200026663 0.45481191988275516 0.4636052760136786
0.17768385999988823 0.4557889594528579 0.45188080117244755
0.17787591199976305 0.45481191988275516 0.4401563263312165
0.17806809400008206 0.4557889594528579 0.4255007327796776
0.17830096000034246 0.4538348803126526 0.41963849535906195
0.17849312399994233 0.45188080117244755 0.41963849535906195
0.17868460200043046 0.4557889594528579 0.41963849535906195
0.17887763500039 0.4509037616023448 0.42452369320957506
0.1790724100001171 0.4528578407425501 0.43429408891060084
0.17926372100009758 0.44894968246213973 0.4333170493404983
0.17945473700001457 0.44894968246213973 0.4382022471910112
0.1796462149995932 0.4479726428920372 0.44211040547142155
0.17983706300037738 0.44894968246213973 0.4450415241817294
0.1800299120004638 0.44992672203224227 0.4479726428920372
0.18022061200008466 0.4509037616023448 0.45188080117244755
0.18041094199998042 0.4479726428920372 0.44992672203224227
0.1806019200002993 0.44406448461162684 0.45481191988275516
0.18079256500004703 0.4430874450415241 0.45676599902296044
0.1809868030004509 0.44211040547142155 0.4655593551538837
0.1811770209997121 0.441133365901319 0.4704445530043966
0.18136838800000987 0.4430874450415241 0.4802149487054226
0.18156140399969445 0.4401563263312165 0.4802149487054226
0.18175214100028825 0.441133365901319 0.486077186126038
0.18194826699982514 0.44211040547142155 0.486077186126038
0.1821407449997423 0.44211040547142155 0.4851001465559355
0.1823319459999766 0.4430874450415241 0.4811919882755251
0.18252257200038002 0.4450415241817294 0.47435271128480694
0.18271334699966246 0.44211040547142155 0.46946751343429405
0.18290356600027735 0.4450415241817294 0.46165119687347334
0.1830946549998771 0.4450415241817294 0.4587200781631655
0.18328526300047088 0.4460185637518319 0.4538348803126526
0.1834773890004726 0.44406448461162684 0.4538348803126526
0.18366805200003 0.44211040547142155 0.4538348803126526
0.1838592530002643 0.4450415241817294 0.44894968246213973
0.1840503789999275 0.4479726428920372 0.44992672203224227
0.18424409799990826 0.4460185637518319 0.4479726428920372
0.1844357609998042 0.4460185637518319 0.4479726428920372
0.18462653599999612 0.4460185637518319 0.44992672203224227
0.18481695799982845 0.44699560332193444 0.4382022471910112
0.18500813999980892 0.44894968246213973 0.4333170493404983
0.18519876600021234 0.4460185637518319 0.42745481191988266
0.18538989300031972 0.4450415241817294 0.4206155349291647
0.18558285200015234 0.4460185637518319 0.4157303370786516
0.18577483100034442 0.4460185637518319 0.4157303370786516
0.18596566100040945 0.4450415241817294 0.4157303370786516
0.1861561019995861 0.4460185637518319 0.4176844162188569
0.18634737600041262 0.4460185637518319 0.4206155349291647
0.18656022400045913 0.4460185637518319 0.412799218368344
0.18675112799974158 0.4460185637518319 0.40889106008793363
0.18694203199993353 0.4450415241817294 0.4059599413776258
0.1871331590000409 0.4450415241817294 0.40205178309721545
0.18732495200038102 0.4460185637518319 0.3981436248168051
0.18751631899976928 0.4460185637518319 0.3961895456765998
0.1877071299995805 0.4528578407425501 0.39228138739618945
0.18789842299975135 0.44992672203224227 0.39716658524670256
0.18808904999968945 0.44894968246213973 0.403028822667318
0.1882803979997334 0.4509037616023448 0.41475329750854906
0.18847159899996768 0.45188080117244755 0.4303859306301905
0.1886625950000962 0.45188080117244755 0.4430874450415241
0.1888533510000343 0.45481191988275516 0.45676599902296044
0.18904418100009934 0.45188080117244755 0.467513434294089
0.18923532600001636 0.45188080117244755 0.4753297508549097
0.18944297100006224 0.4509037616023448 0.47728382999511476
0.18963433800036 0.4538348803126526 0.4831460674157304
0.18982329699974798 0.4528578407425501 0.4851001465559355
0.190010887000426 0.4528578407425501 0.4909623839765511
0.1901985499998773 0.45188080117244755 0.4978016609672691
0.19038660200021695 0.4538348803126526 0.5056179775280898
0.19058069200036698 0.45676599902296044 0.5173424523693209
0.19076928100002988 0.45676599902296044 0.5261358085002443
0.1909578889999466 0.4557889594528579 0.5280898876404494
0.19114520000039192 0.45676599902296044 0.533952125061065
0.1913332160002028 0.45676599902296044 0.533952125061065
0.19152145299995027 0.4557889594528579 0.5310210063507572
0.19170902400037448 0.45676599902296044 0.5300439667806547
0.19189653899957193 0.45969711773326827 0.512457254518808
0.19208438799978467 0.45676599902296044 0.4948705422569615
0.19227225499980705 0.457743038593063 0.4733756717147044
0.19246045500040054 0.457743038593063 0.4557889594528579
0.1926487669998096 0.457743038593063 0.4401563263312165
0.19283909699970536 0.45676599902296044 0.4303859306301905
0.1930272050003623 0.45676599902296044 0.42256961406936977
0.19321622000006755 0.45676599902296044 0.41670737664875435
0.19340425399968808 0.457743038593063 0.41475329750854906
0.19361213899992435 0.4557889594528579 0.412799218368344
0.19380430199998955 0.4557889594528579 0.4137762579384465
0.19399694700041437 0.45481191988275516 0.412799218368344
0.19418742499965447 0.4528578407425501 0.41475329750854906
0.1943776260004597 0.4509037616023448 0.41670737664875435
0.1945682149998902 0.45188080117244755 0.41670737664875435
0.1947698229996604 0.45188080117244755 0.41670737664875435
0.19496098600029654 0.4538348803126526 0.4137762579384465
0.19515027899979032 0.45481191988275516 0.41475329750854906
0.19534012700023595 0.4538348803126526 0.4186614557889594
0.19553040200025862 0.4557889594528579 0.41963849535906195
0.19572089899975254 0.4538348803126526 0.4284318514899854
0.19591200600007141 0.45481191988275516 0.431362970200293
0.19610154000019975 0.45481191988275516 0.43624816805080613
0.19629150000037043 0.4538348803126526 0.4430874450415241
0.1964816259996951 0.4509037616023448 0.4479726428920372
0.19667260400001396 0.4528578407425501 0.44992672203224227
0.19687732300008065 0.4538348803126526 0.44992672203224227
0.19710039300025528 0.4509037616023448 0.4450415241817294
0.19730111199987732 0.4538348803126526 0.4450415241817294
0.19750670099983836 0.4557889594528579 0.43624816805080613
0.19771432699963043 0.45676599902296044 0.4352711284807034
0.19791336100024637 0.4538348803126526 0.4382022471910112
0.1981156159999955 0.4557889594528579 0.441133365901319
0.1983289830004651 0.45481191988275516 0.441133365901319
0.1985316829996009 0.4557889594528579 0.44406448461162684
0.19873501300025964 0.45481191988275516 0.44406448461162684
0.1989398429996072 0.45188080117244755 0.44406448461162684
0.20002119400032825 0.4460185637518319 0.4509037616023448
0.20062853600029484 0.4479726428920372 0.4538348803126526
0.2008576059997722 0.4460185637518319 0.4538348803126526
0.20108737900045526 0.44894968246213973 0.4557889594528579
0.20129489400005696 0.4460185637518319 0.45481191988275516
0.20155875999989803 0.44992672203224227 0.45676599902296044
0.20181947800028865 0.4479726428920372 0.45188080117244755
0.20342656100001477 0.44992672203224227 0.45969711773326827
0.203934441000456 0.4479726428920372 0.46262823644357587
0.20420052900044539 0.44894968246213973 0.4655593551538837
0.20443135799996526 0.4509037616023448 0.4704445530043966
0.20464824400005455 0.457743038593063 0.4733756717147044
0.20488327699968067 0.4528578407425501 0.4733756717147044
0.2051614009997138 0.4528578407425501 0.4753297508549097
0.20551235800030554 0.4509037616023448 0.467513434294089
0.20631851100006315 0.44992672203224227 0.457743038593063
0.20666039400020964 0.44992672203224227 0.45969711773326827
0.20687492700017174 0.44894968246213973 0.457743038593063
0.20708349800042924 0.45188080117244755 0.4538348803126526
0.20729292000032729 0.44894968246213973 0.4538348803126526
0.20760696999968786 0.44894968246213973 0.45188080117244755
0.2078597620002256 0.44699560332193444 0.4430874450415241
0.20994126300047355 0.45188080117244755 0.4255007327796776
0.2104522720001114 0.4509037616023448 0.42745481191988266
0.21065337999971234 0.44992672203224227 0.431362970200293
0.2108453399996506 0.45188080117244755 0.441133365901319
0.2110340030003499 0.44894968246213973 0.44894968246213973
0.21122348100016097 0.4479726428920372 0.45676599902296044
0.2114114409996546 0.44699560332193444 0.4655593551538837
0.21160079000037513 0.4460185637518319 0.4636052760136786
0.21178958299969963 0.4450415241817294 0.4655593551538837
0.21197831999961636 0.44699560332193444 0.467513434294089
0.21216759500020999 0.4460185637518319 0.4733756717147044
0.21235629500006326 0.4450415241817294 0.48216902784562765
0.212544588000128 0.4450415241817294 0.49682462139716654
0.21273764000034134 0.4460185637518319 0.512457254518808
0.21292593300040608 0.4460185637518319 0.5378602833414754
0.2131139670000266 0.4460185637518319 0.5583781143136297
0.21331955599998764 0.4479726428920372 0.578895945285784
0.21357921799972246 0.4460185637518319 0.5837811431362969
0.21376839999993535 0.4460185637518319 0.5828041035661944
0.21395665599993663 0.44894968246213973 0.5720566682950659
0.21414513400031865 0.44699560332193444 0.5583781143136297
0.2143344830001297 0.44699560332193444 0.5398143624816805
0.21452670199960266 0.44992672203224227 0.5056179775280898
0.21471432799989998 0.44894968246213973 0.47239863214460187
0.2149029359998167 0.4538348803126526 0.4264777723497801
0.21509167299973342 0.4557889594528579 0.38641914997557403
0.21527985499960778 0.45969711773326827 0.3512457254518808
0.2154693149996092 0.46262823644357587 0.3277967757694187
0.21567279299961228 0.4655593551538837 0.3238886174890083
0.21588745600001857 0.4655593551538837 0.33170493404982904
0.21622283899978356 0.46262823644357587 0.3453834880312652
0.21644313100023282 0.46262823644357587 0.34636052760136793
0.21663505400010763 0.45969711773326827 0.33756717147044446
0.2168240880000667 0.45676599902296044 0.3258426966292134
0.21701247300006798 0.45481191988275516 0.3053248656570591
0.21720078500038653 0.4538348803126526 0.2808988764044944
0.2173896340000283 0.4528578407425501 0.25451880801172444
0.21758044499983953 0.4528578407425501 0.23400097703957012
0.21776905299975624 0.4538348803126526 0.22129946262823652
0.21795782699973643 0.4528578407425501 0.22813873961895448
0.21817437899971992 0.4528578407425501 0.2515876893014166
0.21839587500016933 0.4557889594528579 0.2808988764044944
0.21858702000008634 0.45676599902296044 0.31021006350757196
0.21877583199966466 0.457743038593063 0.33463605276013686
0.21896416199979285 0.457743038593063 0.3551538837322912
0.21915180700034398 0.45676599902296044 0.37957987298485585
0.21934252600021864 0.4557889594528579 0.40693698094772834
0.21953070699964883 0.45676599902296044 0.4333170493404983
0.21971822300019994 0.45676599902296044 0.4753297508549097
0.21990584899958776 0.457743038593063 0.5056179775280898
0.22009319799963123 0.4557889594528579 0.5378602833414754
0.22028078699986509 0.4538348803126526 0.567171470444553
0.22046850599963363 0.45481191988275516 0.5876893014167073
0.22069072399972356 0.45676599902296044 0.6082071323888618
0.2208876650001912 0.457743038593063 0.6160234489496825
0.22107775499989657 0.4557889594528579 0.6257938446507083
0.22126530700006697 0.4636052760136786 0.6375183194919394
0.22146045200042863 0.45481191988275516 0.6492427943331704
0.22164963399973203 0.457743038593063 0.6629213483146068
0.22183796399986022 0.4606741573033708 0.6668295065950172
0.22202657199977693 0.45481191988275516 0.659990229604299
0.22223512300024595 0.45481191988275516 0.6511968734733757
0.22242302799986646 0.45481191988275516 0.6297020029311187
0.22261048699965613 0.4528578407425501 0.6082071323888618
0.22279768800035527 0.44992672203224227 0.5828041035661944
0.22298581399991235 0.44699560332193444 0.5544699560332194
0.22317447800014634 0.44699560332193444 0.5359062042012701
0.2233627340001476 0.44699560332193444 0.5153883732291158
0.22355074900042382 0.4460185637518319 0.4978016609672691
0.22373963399968488 0.4479726428920372 0.4811919882755251
0.22392811299960158 0.4460185637518319 0.4655593551538837
0.22411623900006816 0.4460185637518319 0.4460185637518319
0.2243039579998367 0.4460185637518319 0.4333170493404983
0.2244920290004302 0.44699560332193444 0.4235466536394723
0.22468052499971236 0.44699560332193444 0.4176844162188569
0.22486800400020002 0.4450415241817294 0.41670737664875435
0.2250562600002013 0.4450415241817294 0.4186614557889594
0.22524540500035073 0.44894968246213973 0.41670737664875435
0.22544997499971942 0.4460185637518319 0.4157303370786516
0.2256438980002713 0.4460185637518319 0.41670737664875435
0.2258315239996591 0.4450415241817294 0.41963849535906195
0.2260193359998084 0.4430874450415241 0.42159257449926724
0.22620783200000005 0.44406448461162684 0.4255007327796776
0.22640719900027761 0.4430874450415241 0.4333170493404983
0.22659723299966572 0.4450415241817294 0.4401563263312165
0.22678547000032268 0.44406448461162684 0.4450415241817294
0.22697333799987973 0.4450415241817294 0.44992672203224227
0.22716046400000778 0.4460185637518319 0.4557889594528579
0.22734860899981868 0.44699560332193444 0.457743038593063
0.22753660600028525 0.44992672203224227 0.4587200781631655
0.22772395399988454 0.4479726428920372 0.4636052760136786
0.2279119510003511 0.4460185637518319 0.45969711773326827
0.22810478100018372 0.44699560332193444 0.45969711773326827
0.22831335099999706 0.44699560332193444 0.46165119687347334
0.22850207000010414 0.44406448461162684 0.45969711773326827
0.22869014099978813 0.44211040547142155 0.46165119687347334
0.22887758199976815 0.44699560332193444 0.46458231558378116
0.229066079000404 0.44406448461162684 0.467513434294089
0.22925457600013033 0.4450415241817294 0.4753297508549097
0.22946327600038785 0.4460185637518319 0.4811919882755251
0.22965343899977597 0.44699560332193444 0.4851001465559355
0.22984176899990416 0.4460185637518319 0.48705422569614076
0.23003043300013815 0.4479726428920372 0.4782608695652173
0.23026935399957438 0.4479726428920372 0.4782608695652173
0.2304680549996192 0.4479726428920372 0.4606741573033708
0.23066579199985426 0.4450415241817294 0.44699560332193444
0.23086386300019512 0.4450415241817294 0.4401563263312165
0.23106789600024058 0.44894968246213973 0.4235466536394723
0.23126737399979902 0.4479726428920372 0.4157303370786516
0.23146248200009722 0.44992672203224227 0.4157303370786516
0.23166520100039634 0.4538348803126526 0.41475329750854906
0.23189043700040202 0.4509037616023448 0.4206155349291647
0.23214582200034783 0.4557889594528579 0.42159257449926724
0.23254998100037483 0.45969711773326827 0.4108451392281387
0.23284445799981768 0.4538348803126526 0.39423546653639474
0.233062195000457 0.4538348803126526 0.37957987298485585
0.23326915399957215 0.4538348803126526 0.3659013190034197
0.23349220599993714 0.4528578407425501 0.35222276502198335
0.23370129500017356 0.4557889594528579 0.36003908158280407
0.23393832799956726 0.457743038593063 0.3659013190034197
0.23420565600008558 0.45676599902296044 0.3913043478260869
0.2345447059997241 0.45676599902296044 0.4157303370786516
0.23482010899988381 0.4557889594528579 0.4450415241817294
0.2350756599998931 0.4557889594528579 0.4704445530043966
0.23535115499998938 0.45188080117244755 0.486077186126038
0.2358042400001068 0.45188080117244755 0.4811919882755251
0.23616871499962144 0.44992672203224227 0.4655593551538837
0.23647896900001797 0.44699560332193444 0.457743038593063
0.2367732969996723 0.45188080117244755 0.4528578407425501
0.23703773699980957 0.44699560332193444 0.44894968246213973
0.237276343999838 0.4479726428920372 0.44992672203224227
0.23751254299986613 0.4460185637518319 0.4430874450415241
0.2377375400001256 0.44699560332193444 0.44211040547142155
0.23794405399985408 0.4460185637518319 0.4323400097703958
0.23814958799994201 0.4460185637518319 0.42256961406936977
0.238380621000033 0.44406448461162684 0.4108451392281387
0.23859041400010028 0.44406448461162684 0.40889106008793363
0.23878637300003902 0.4430874450415241 0.412799218368344
0.23898175900012575 0.4479726428920372 0.4303859306301905
0.23919227399983356 0.4460185637518319 0.45969711773326827
0.23975480100034474 0.4479726428920372 0.45481191988275516
0.23999331499999244 0.4460185637518319 0.44406448461162684
0.24020162600027106 0.4450415241817294 0.4323400097703958
0.24040608599989355 0.44699560332193444 0.42256961406936977
0.24061530400012998 0.44699560332193444 0.4157303370786516
0.2408225790004508 0.4450415241817294 0.42256961406936977
0.24102755700005218 0.4460185637518319 0.42452369320957506
0.2412328680002247 0.4450415241817294 0.46458231558378116
0.24185335699985444 0.44699560332193444 0.4733756717147044
0.24212888900001417 0.44699560332193444 0.4684904738641915
0.24237318100040284 0.4479726428920372 0.44699560332193444
0.24262489900047512 0.44699560332193444 0.42159257449926724
0.24285759899976256 0.44699560332193444 0.39912066438690763
0.2430975759998546 0.44894968246213973 0.3854421104054715
0.24344286599989573 0.4538348803126526 0.3961895456765998
0.24373163899963401 0.457743038593063 0.4206155349291647
0.24393670999961614 0.4587200781631655 0.4479726428920372
0.2441270950002945 0.457743038593063 0.47435271128480694
0.24432124000031763 0.457743038593063 0.4938935026868587
0.24451051500000176 0.45676599902296044 0.5134342940889105
0.24469775200032018 0.45676599902296044 0.5290669272105519
0.2448857669996869 0.457743038593063 0.540791402051783
0.2450731340004495 0.457743038593063 0.5388373229115779
0.2452605019998373 0.4557889594528579 0.5388373229115779
0.24549592299990763 0.45676599902296044 0.540791402051783
0.24568799400003627 0.45676599902296044 0.5427454811919883
0.24587597200024902 0.45676599902296044 0.5456765999022961
0.24606598799982748 0.45676599902296044 0.5554469956033219
0.24630150200027856 0.45676599902296044 0.5574010747435272
0.24649079499977233 0.45676599902296044 0.5544699560332194
0.24671562399998948 0.45481191988275516 0.5437225207620908
0.24691817599978094 0.45188080117244755 0.5359062042012701
0.24710737700024765 0.45188080117244755 0.5300439667806547
0.24730096599978424 0.4479726428920372 0.512457254518808
0.24749351799982833 0.4509037616023448 0.495847581827064
0.24768616300025315 0.4479726428920372 0.4851001465559355
0.24787488200036023 0.44894968246213973 0.46946751343429405
0.24806269399960001 0.44699560332193444 0.457743038593063
0.2482510789996013 0.4479726428920372 0.4479726428920372
0.24843905699981406 0.44894968246213973 0.44406448461162684
0.24862683199989988 0.44992672203224227 0.4401563263312165
0.24881969899979595 0.44699560332193444 0.43722520762090866
0.24901178799973422 0.44894968246213973 0.43624816805080613
0.24920793300043442 0.44894968246213973 0.43429408891060084
0.24941694799963443 0.4538348803126526 0.4333170493404983
0.2496599440000864 0.44992672203224227 0.43722520762090866
0.24985721800021565 0.45188080117244755 0.4323400097703958
0.2500545479997527 0.45188080117244755 0.4430874450415241
0.2502529149996917 0.4538348803126526 0.4323400097703958
0.25052116900042165 0.45188080117244755 0.4382022471910112
0.2507149989996833 0.4528578407425501 0.4479726428920372
0.2509019219996844 0.4538348803126526 0.4450415241817294
0.2512616940002772 0.45188080117244755 0.44894968246213973
0.2514551719996234 0.45481191988275516 0.4509037616023448
0.25164398299966706 0.4557889594528579 0.45188080117244755
0.25184135000017704 0.45676599902296044 0.44211040547142155
0.2520289029998821 0.4557889594528579 0.43722520762090866
0.25221765900005266 0.45481191988275516 0.4303859306301905
0.2524060069999905 0.45676599902296044 0.4255007327796776
0.25259365199963213 0.45481191988275516 0.4186614557889594
0.25278166699990834 0.4587200781631655 0.4157303370786516
0.25296983099997306 0.4557889594528579 0.4108451392281387
0.2531980490002752 0.45676599902296044 0.4079140205178309
0.25338856399957876 0.45481191988275516 0.4108451392281387
0.2535795789999611 0.457743038593063 0.41182217879824123
0.2537672609996662 0.45676599902296044 0.4176844162188569
0.2539556840001751 0.45676599902296044 0.4255007327796776
0.25414977299988095 0.45481191988275516 0.42745481191988266
0.2543385290000515 0.4528578407425501 0.431362970200293
0.25452643300013733 0.4528578407425501 0.43429408891060084
0.25472993000039423 0.45188080117244755 0.4333170493404983
0.25491833399973984 0.44992672203224227 0.43429408891060084
0.2551063860000795 0.44699560332193444 0.4333170493404983
0.2552940679997846 0.44894968246213973 0.4323400097703958
0.255481176000103 0.44699560332193444 0.431362970200293
0.2556686730004003 0.44894968246213973 0.43624816805080613
0.2558568730000843 0.44894968246213973 0.4401563263312165
0.25604461100010667 0.4479726428920372 0.4460185637518319
0.2562320329998329 0.44894968246213973 0.45676599902296044
0.2564284370000678 0.4479726428920372 0.46165119687347334
0.25664900799984025 0.4450415241817294 0.46946751343429405
0.2568484299999909 0.4430874450415241 0.47142159257449934
0.2570610189995932 0.44406448461162684 0.4704445530043966
0.25726484900042124 0.4430874450415241 0.4684904738641915
0.2574638269998104 0.441133365901319 0.4684904738641915
0.257655342000362 0.44406448461162684 0.4684904738641915
0.257852986999751 0.4430874450415241 0.4733756717147044
0.25804270600019663 0.44211040547142155 0.4704445530043966
0.25822968400007085 0.441133365901319 0.4753297508549097
0.2584175319998394 0.44211040547142155 0.47728382999511476
0.2586051030002636 0.441133365901319 0.47435271128480694
0.2587927300000956 0.441133365901319 0.47142159257449934
0.25897991199963144 0.44211040547142155 0.46165119687347334
0.25916740800039406 0.441133365901319 0.45188080117244755
0.2593549980001626 0.44406448461162684 0.4401563263312165
0.25954175399965607 0.44406448461162684 0.4303859306301905
0.259729547000461 0.44699560332193444 0.4206155349291647
0.25991839499965863 0.44894968246213973 0.4157303370786516
0.2601060590004636 0.45188080117244755 0.412799218368344
0.26029390700023214 0.45188080117244755 0.4108451392281387
0.2604820149999796 0.457743038593063 0.412799218368344
0.2606696599996212 0.4509037616023448 0.4186614557889594
0.2608699339998566 0.44992672203224227 0.4284318514899854
0.2610692830003245 0.44992672203224227 0.43917928676111373
0.2612700749996293 0.44894968246213973 0.44992672203224227
0.2614920899995923 0.4479726428920372 0.45188080117244755
0.26169953099997656 0.44699560332193444 0.4557889594528579
0.2619096750004246 0.4460185637518319 0.45676599902296044
0.2621138020003855 0.4430874450415241 0.45969711773326827
0.2623046870003236 0.4450415241817294 0.4606741573033708
0.2624939249999443 0.4460185637518319 0.46165119687347334
0.26268366200019955 0.4401563263312165 0.457743038593063
0.26287284400041244 0.43722520762090866 0.4450415241817294
0.26309141399997316 0.4382022471910112 0.41963849535906195
0.26328228100010165 0.43624816805080613 0.38739618954567656
0.26348894399961864 0.4352711284807034 0.33268197361993157
0.26373612499992305 0.43722520762090866 0.29164631167562294
0.263933528999587 0.43917928676111373 0.2584269662921348
0.26413608100028796 0.44406448461162684 0.24181729360039084
0.26433513299980405 0.4460185637518319 0.2408402540302883
0.2645315930003562 0.4509037616023448 0.25744992672203226
0.2647302380000838 0.4538348803126526 0.2877381533952126
0.26493247500002326 0.457743038593063 0.3287738153395212
0.2651439159999427 0.4606741573033708 0.3786028334147533
0.265372300999843 0.46458231558378116 0.45969711773326827
0.2657357019998017 0.4636052760136786 0.5329750854909623
0.26611143599984644 0.4606741573033708 0.58866634098681
0.2663629500002571 0.46165119687347334 0.6160234489496825
0.2666006870003912 0.4606741573033708 0.6287249633610161
0.2668389050004407 0.4606741573033708 0.6287249633610161
0.2670659750001505 0.4606741573033708 0.6199316072300929
0.2672958410003048 0.45481191988275516 0.6013678553981436
0.267516040999908 0.4587200781631655 0.5779189057156815
0.2677591290002965 0.4538348803126526 0.5495847581827065
0.2680036439996911 0.4509037616023448 0.5202735710796287
0.2682273990003523 0.45481191988275516 0.4978016609672691
0.26848169099957886 0.44992672203224227 0.4782608695652173
0.2687257609995868 0.44699560332193444 0.4684904738641915
0.26895462700031203 0.4479726428920372 0.46458231558378116
0.26919760500004486 0.44992672203224227 0.467513434294089
0.26945608200003335 0.4509037616023448 0.4655593551538837
0.26972111400027643 0.4528578407425501 0.4684904738641915
0.2699498689999018 0.44992672203224227 0.47142159257449934
0.2701573289996304 0.44992672203224227 0.47142159257449934
0.27035262099980173 0.45188080117244755 0.467513434294089
0.27054560000033234 0.4538348803126526 0.4636052760136786
0.2707471149997218 0.4509037616023448 0.4587200781631655
0.27094820399997843 0.45188080117244755 0.4538348803126526
0.27114618199993856 0.45188080117244755 0.44992672203224227
0.2713506600002802 0.45188080117244755 0.4479726428920372
0.2716205810002066 0.44992672203224227 0.4528578407425501
0.27199481499974354 0.4509037616023448 0.4538348803126526
0.27225901400015573 0.4538348803126526 0.4479726428920372
0.2725247500002297 0.45481191988275516 0.44406448461162684
0.2727635060000466 0.45481191988275516 0.4235466536394723
0.27413981500012596 0.45188080117244755 0.4333170493404983
0.27465775000018766 0.4528578407425501 0.4352711284807034
0.27493033799964905 0.4528578407425501 0.4401563263312165
0.2752089080004225 0.44992672203224227 0.4401563263312165
0.2754772549997142 0.45188080117244755 0.44211040547142155
0.2757442689999152 0.45188080117244755 0.441133365901319
0.2760248929998852 0.4538348803126526 0.43722520762090866
0.27623668599972007 0.45188080117244755 0.43624816805080613
0.27645949700036 0.45188080117244755 0.43624816805080613
0.27667129000019486 0.45188080117244755 0.4323400097703958
0.2768900640003267 0.44992672203224227 0.4284318514899854
0.27711343000009947 0.4509037616023448 0.4255007327796776
0.27731572300035623 0.44992672203224227 0.42159257449926724
0.27755295899987686 0.44992672203224227 0.4176844162188569
0.27774265999960335 0.44894968246213973 0.4176844162188569
0.27793062000000646 0.44992672203224227 0.41475329750854906
0.27811830100017687 0.4450415241817294 0.41670737664875435
0.2783066689999032 0.4460185637518319 0.41670737664875435
0.27849407299981976 0.4460185637518319 0.41475329750854906
0.2786816070001805 0.4528578407425501 0.41670737664875435
0.27886917700016056 0.4479726428920372 0.41670737664875435
0.2790816739998263 0.4460185637518319 0.41475329750854906
0.27926952199959487 0.4460185637518319 0.41963849535906195
0.27945699999963836 0.4479726428920372 0.42256961406936977
0.27964468200025294 0.4450415241817294 0.41963849535906195
0.27983155000038096 0.44406448461162684 0.4264777723497801
0.2800202309999804 0.44211040547142155 0.4382022471910112
0.28020898700015096 0.44211040547142155 0.4479726428920372
0.28039754000019457 0.441133365901319 0.46165119687347334
0.28061848000015743 0.44211040547142155 0.4733756717147044
0.28080727300039143 0.441133365901319 0.48412310698583294
0.28099556600045617 0.44406448461162684 0.4929164631167562
0.2811833409996325 0.4450415241817294 0.5007327796775769
0.2813720599997396 0.4460185637518319 0.5065950170981925
0.28156313100043917 0.44406448461162684 0.5105031753786029
0.28175138700044045 0.4460185637518319 0.5144113336590133
0.28193921700039937 0.4460185637518319 0.5173424523693209
0.282126547000189 0.4479726428920372 0.5163654127992183
0.2823168770000848 0.44699560332193444 0.5114802149487054
0.2825250949999827 0.44699560332193444 0.5017098192476794
0.28272929600007046 0.441133365901319 0.48900830483634583
0.2829353289998835 0.4430874450415241 0.47923790913532005
0.28313078900009714 0.4401563263312165 0.4587200781631655
0.2833507659997849 0.441133365901319 0.4479726428920372
0.2835387439999977 0.44211040547142155 0.43429408891060084
0.28372777799995674 0.44211040547142155 0.42940889106008795
0.28393101500023477 0.44406448461162684 0.4352711284807034
0.28411947499989765 0.4460185637518319 0.441133365901319
0.2843128610002168 0.45481191988275516 0.45188080117244755
0.28450526500000706 0.44894968246213973 0.46165119687347334
0.2846937060003256 0.44894968246213973 0.47239863214460187
0.28488127699984034 0.4509037616023448 0.47728382999511476
0.28506942199965124 0.44894968246213973 0.4811919882755251
0.2852571960002024 0.4509037616023448 0.4811919882755251
0.2854724700000588 0.44894968246213973 0.4782608695652173
0.2856728369997654 0.4509037616023448 0.4753297508549097
0.2858627040004649 0.45188080117244755 0.467513434294089
0.2860521450002125 0.44894968246213973 0.4587200781631655
0.2862408459996004 0.4509037616023448 0.44992672203224227
0.2864296199995806 0.45188080117244755 0.44406448461162684
0.2866181540002799 0.45188080117244755 0.4382022471910112
0.2868072250003024 0.4538348803126526 0.4333170493404983
0.2869964990004519 0.45481191988275516 0.42745481191988266
0.28718666300028417 0.45969711773326827 0.4303859306301905
0.2873766220000107 0.457743038593063 0.42940889106008795
0.287565562999589 0.4557889594528579 0.4333170493404983
0.287754949000373 0.45676599902296044 0.4460185637518319
0.28794409399961296 0.457743038593063 0.45676599902296044
0.2881342760001644 0.45481191988275516 0.4655593551538837
0.2883239020002293 0.4557889594528579 0.467513434294089
0.28851404699980776 0.45481191988275516 0.46262823644357587
0.2887024139999994 0.45481191988275516 0.45676599902296044
0.28889059599987377 0.45676599902296044 0.44894968246213973
0.28907885199987504 0.4538348803126526 0.4401563263312165
0.2892663299999185 0.4528578407425501 0.4303859306301905
0.2894621229997938 0.45188080117244755 0.4255007327796776
0.28965256399987993 0.45188080117244755 0.4206155349291647
0.2898412280001139 0.45188080117244755 0.41670737664875435
0.29002920600032667 0.45188080117244755 0.4108451392281387
0.2902234800003498 0.45188080117244755 0.41475329750854906
0.29041518099984387 0.45481191988275516 0.412799218368344
0.29060382500028936 0.4538348803126526 0.42159257449926724
0.29079360000014276 0.4528578407425501 0.4352711284807034
0.29098354100005963 0.4528578407425501 0.4538348803126526
0.29117248199963797 0.45188080117244755 0.46946751343429405
0.2913806269998531 0.4528578407425501 0.4811919882755251
0.2915701049996642 0.44992672203224227 0.48900830483634583
0.29175902800034237 0.45481191988275516 0.486077186126038
0.2919482280003649 0.45188080117244755 0.4733756717147044
0.29213620599966816 0.45188080117244755 0.45676599902296044
0.2923260549996485 0.44992672203224227 0.4528578407425501
0.2925147180003478 0.45188080117244755 0.44406448461162684
0.29270308499962994 0.44992672203224227 0.43429408891060084
0.2928917489998639 0.45188080117244755 0.44211040547142155
0.2930796709997594 0.45188080117244755 0.45481191988275516
0.29326816800039524 0.45188080117244755 0.47142159257449934
0.2934613500001433 0.44992672203224227 0.48705422569614076
0.2936528649997854 0.44992672203224227 0.49877870053737183
0.29384049199961737 0.44992672203224227 0.512457254518808
0.2940289509997456 0.4528578407425501 0.5153883732291158
0.29421876299966243 0.45481191988275516 0.5153883732291158
0.29441563000000315 0.4538348803126526 0.5075720566682951
0.294617384999583 0.4538348803126526 0.495847581827064
0.29486141800043697 0.4557889594528579 0.4811919882755251
0.29505208200043853 0.45676599902296044 0.4684904738641915
0.295239725999636 0.45676599902296044 0.45676599902296044
0.2954274080002506 0.46458231558378116 0.4460185637518319
0.2956157759999769 0.4557889594528579 0.43722520762090866
0.29580388300018967 0.4557889594528579 0.4284318514899854
0.2959919730001275 0.4528578407425501 0.42256961406936977
0.2961823209998329 0.45188080117244755 0.41475329750854906
0.2963787990001947 0.4538348803126526 0.412799218368344
0.29657003699958295 0.4557889594528579 0.40693698094772834
0.2967606820002402 0.4538348803126526 0.3981436248168051
0.2969658080000954 0.4509037616023448 0.39228138739618945
0.2971649150003941 0.44992672203224227 0.38935026868588185
0.2973568190000151 0.4509037616023448 0.3913043478260869
0.2976102960001299 0.44894968246213973 0.39716658524670256
0.2978083300004073 0.44992672203224227 0.4079140205178309
0.29808212199986883 0.44992672203224227 0.41670737664875435
0.29832050599998183 0.45188080117244755 0.4264777723497801
0.2985290030001124 0.44992672203224227 0.441133365901319
0.29874712899982114 0.45188080117244755 0.45481191988275516
0.2990109760003179 0.4528578407425501 0.4733756717147044
0.2992325459999847 0.44894968246213973 0.47728382999511476
0.2994292650000716 0.4479726428920372 0.4802149487054226
0.29962441000043327 0.4479726428920372 0.47728382999511476
0.29982422099965333 0.4460185637518319 0.4753297508549097
0.30008175399962056 0.44211040547142155 0.4704445530043966
0.30028393500015227 0.4430874450415241 0.4665363947239862
0.30048000599981606 0.4430874450415241 0.46458231558378116
0.3006765019999875 0.44211040547142155 0.46165119687347334
0.3008732400003282 0.44211040547142155 0.45676599902296044
0.3011373090002962 0.44406448461162684 0.4528578407425501
0.30134810199979256 0.44211040547142155 0.44406448461162684
0.30159065299994836 0.44211040547142155 0.44699560332193444
0.30178952000005665 0.441133365901319 0.44406448461162684
0.3019957759997851 0.441133365901319 0.4450415241817294
0.3022132349997264 0.43917928676111373 0.4450415241817294
0.3024387129999013 0.441133365901319 0.44894968246213973
0.3026696719998654 0.441133365901319 0.4509037616023448
0.3029421299997921 0.441133365901319 0.4636052760136786
0.3032240319998891 0.44211040547142155 0.47923790913532005
0.30347863899987715 0.4382022471910112 0.49877870053737183
0.3037659120000171 0.4401563263312165 0.5017098192476794
0.30403396299971064 0.43624816805080613 0.5017098192476794
0.3042590140003085 0.4352711284807034 0.5036638983878847
0.30445945500014204 0.4333170493404983 0.5153883732291158
0.3046539329998268 0.43722520762090866 0.5153883732291158
0.304893002999961 0.43624816805080613 0.5173424523693209
0.3050872590001745 0.43624816805080613 0.5202735710796287
0.3052793480001128 0.43624816805080613 0.5202735710796287
0.3055277149996982 0.43722520762090866 0.5085490962383976
0.3058560609997585 0.43624816805080613 0.46458231558378116
0.30625040599989006 0.44211040547142155 0.41182217879824123
0.30653703000007226 0.4450415241817294 0.3786028334147533
0.30675247100043634 0.44699560332193444 0.3512457254518808
0.3069561900001645 0.4557889594528579 0.33170493404982904
0.30715729700023076 0.4538348803126526 0.3209574987787005
0.3073536829997465 0.45676599902296044 0.3141182217879823
0.30756895699960296 0.46262823644357587 0.32486565705911086
0.307993135000288 0.467513434294089 0.35710796287249624
0.3082534819995999 0.47239863214460187 0.3883732291157791
0.3084547560001738 0.46946751343429405 0.4186614557889594
0.30865534500026115 0.4733756717147044 0.4479726428920372
0.308862267999757 0.467513434294089 0.46458231558378116
0.30906128300011915 0.467513434294089 0.47923790913532005
0.30938966600024287 0.4636052760136786 0.4880312652662433
0.30968071700044675 0.46165119687347334 0.495847581827064
0.3099114719998397 0.4606741573033708 0.5105031753786029
0.31011569000020245 0.46165119687347334 0.5319980459208598
0.31035305699970195 0.4606741573033708 0.550561797752809
0.3105422759999783 0.45969711773326827 0.5691255495847583
0.3107307910004238 0.457743038593063 0.5828041035661944
0.3109204169995792 0.45676599902296044 0.5935515388373229
0.31110874699970736 0.4538348803126526 0.5935515388373229
0.31129637400044885 0.45188080117244755 0.5837811431362969
0.31148444399968866 0.45188080117244755 0.5720566682950659
0.31167205200017634 0.45188080117244755 0.5476306790425012
0.31186288200024137 0.44699560332193444 0.5261358085002443
0.31205465699986235 0.45188080117244755 0.5026868588177822
0.3122426159998213 0.44894968246213973 0.4851001465559355
0.31243042799997056 0.44699560332193444 0.4704445530043966
0.31263760999991064 0.4450415241817294 0.45969711773326827
0.3128289770002084 0.44406448461162684 0.44699560332193444
0.3130164550002519 0.441133365901319 0.4430874450415241
0.31320443300046463 0.44406448461162684 0.42940889106008795
0.3134019110002555 0.44699560332193444 0.4176844162188569
0.3135942970002361 0.4450415241817294 0.41182217879824123
0.3137818490004065 0.4450415241817294 0.4059599413776258
0.3139701239997521 0.44992672203224227 0.403028822667318
0.3141572869999436 0.4509037616023448 0.4010747435271129
0.3143445060004524 0.44992672203224227 0.39912066438690763
0.3145317990001786 0.45188080117244755 0.39716658524670256
0.31472175900034927 0.4528578407425501 0.3952125061064973
0.31490944100005436 0.4528578407425501 0.3903273082559844
0.3150976779998018 0.4528578407425501 0.39423546653639474
0.3152995820000797 0.4509037616023448 0.4010747435271129
0.3155126339997878 0.4557889594528579 0.412799218368344
0.3157155380004042 0.45481191988275516 0.42452369320957506
0.3159148490003645 0.4557889594528579 0.4382022471910112
0.316120475000389 0.457743038593063 0.45188080117244755
0.3163103240003693 0.4557889594528579 0.46458231558378116
0.31650117200024397 0.45676599902296044 0.4753297508549097
0.31668898400039325 0.457743038593063 0.4851001465559355
0.3168769060002887 0.4557889594528579 0.49193942354665365
0.3170653850002054 0.45481191988275516 0.4948705422569615
0.3173015660004239 0.45188080117244755 0.49193942354665365
0.31749822900019353 0.44894968246213973 0.48998534440644836
0.31768833699970855 0.4479726428920372 0.48705422569614076
0.31787744499979453 0.44894968246213973 0.47923790913532005
0.3180660710004304 0.4528578407425501 0.47239863214460187
0.31825588199990307 0.44992672203224227 0.4665363947239862
0.31848356400041666 0.44894968246213973 0.4636052760136786
0.3186727829997835 0.44894968246213973 0.4636052760136786
0.3188605200002712 0.4479726428920372 0.457743038593063
0.3190483130001667 0.45481191988275516 0.45969711773326827
0.31923658800042176 0.44992672203224227 0.457743038593063
0.31942399200033833 0.44699560332193444 0.45188080117244755
0.31961195199983194 0.4479726428920372 0.4479726428920372
0.3197992819996216 0.44699560332193444 0.4450415241817294
0.31998694499998237 0.4450415241817294 0.4401563263312165
0.32017546000042785 0.4460185637518319 0.43917928676111373
0.32036340099966765 0.44406448461162684 0.43429408891060084
0.3205553059997328 0.4450415241817294 0.4333170493404983
0.3207437099999879 0.4430874450415241 0.431362970200293
0.3209321690001161 0.44699560332193444 0.431362970200293
0.3211194619998423 0.4450415241817294 0.43722520762090866
0.32130782900003396 0.4430874450415241 0.4401563263312165
0.3215017149996129 0.4430874450415241 0.44992672203224227
0.3216916379997201 0.44406448461162684 0.46165119687347334
0.3218793940004616 0.4450415241817294 0.4782608695652173
0.3220682789997227 0.44406448461162684 0.49193942354665365
0.3222561089996816 0.4460185637518319 0.5007327796775769
0.3224443099998098 0.4450415241817294 0.5065950170981925
0.3226325289997476 0.4450415241817294 0.5065950170981925
0.3228204139995796 0.44992672203224227 0.4948705422569615
0.3230076330000884 0.4460185637518319 0.4880312652662433
0.32319638900025893 0.4450415241817294 0.4802149487054226
0.32338416400034475 0.4450415241817294 0.4733756717147044
0.3235715680002613 0.44699560332193444 0.4665363947239862
0.3237591759998395 0.4430874450415241 0.46262823644357587
0.32394650599962915 0.4479726428920372 0.4636052760136786
0.32413392899979954 0.4450415241817294 0.4636052760136786
0.3243217769995681 0.44406448461162684 0.4636052760136786
0.32450897800026723 0.44406448461162684 0.46262823644357587
0.3246967710001627 0.44406448461162684 0.46262823644357587
0.32488474900037545 0.4479726428920372 0.4636052760136786
0.3250735049996365 0.4450415241817294 0.4636052760136786
0.3252608720003991 0.44699560332193444 0.4636052760136786
0.32544983200023125 0.44406448461162684 0.46165119687347334
0.32563860600021144 0.44699560332193444 0.4665363947239862
0.32582693600033963 0.44894968246213973 0.467513434294089
0.32601458099998126 0.4460185637518319 0.46458231558378116
0.32620291100010945 0.44992672203224227 0.46262823644357587
0.32641368500026147 0.44699560332193444 0.46262823644357587
0.32660149700041075 0.44699560332193444 0.46262823644357587
0.3268035119999695 0.44894968246213973 0.46262823644357587
0.3269959529998232 0.44894968246213973 0.4655593551538837
0.3271840240004167 0.44894968246213973 0.46946751343429405
0.32737298299980466 0.44992672203224227 0.4782608695652173
0.3275607579998905 0.4509037616023448 0.4831460674157304
0.32774808799968014 0.45188080117244755 0.4851001465559355
0.32793602899982943 0.44699560332193444 0.48216902784562765
0.3281245440002749 0.4509037616023448 0.4802149487054226
0.32831207799972617 0.44894968246213973 0.4811919882755251
0.3284992050002984 0.44699560332193444 0.4684904738641915
0.32868601599966496 0.44699560332193444 0.4636052760136786
0.3288747910000893 0.44699560332193444 0.4587200781631655
0.32906306499990023 0.44699560332193444 0.4528578407425501
0.32925095100017643 0.4460185637518319 0.44699560332193444
0.3294598729999052 0.44699560332193444 0.4401563263312165
0.3296501659997375 0.44894968246213973 0.43624816805080613
0.329838237000331 0.44992672203224227 0.4333170493404983
0.3300701219995972 0.4479726428920372 0.42256961406936977
0.3302889509996021 0.4460185637518319 0.403028822667318
0.3305443360004574 0.44992672203224227 0.38446507083536874
0.3307731100003366 0.4479726428920372 0.36687835857352225
0.33101041999998415 0.44894968246213973 0.358085002442599
0.33125104600003397 0.44992672203224227 0.358085002442599
0.3314815419998922 0.4538348803126526 0.3659013190034197
0.33177916600016033 0.4557889594528579 0.38446507083536874
0.33200562500041997 0.45481191988275516 0.412799218368344
0.33224100999996153 0.457743038593063 0.43429408891060084
0.3324761909998415 0.45676599902296044 0.4509037616023448
0.33273035300044285 0.45969711773326827 0.46262823644357587
0.332971849000387 0.457743038593063 0.46165119687347334
0.33323464099976263 0.45969711773326827 0.45188080117244755
0.33359559800010175 0.4528578407425501 0.42940889106008795
0.33392116600043664 0.44894968246213973 0.4010747435271129
0.3342144019998159 0.4460185637518319 0.3688324377137273
0.33449254500010284 0.4450415241817294 0.32681973619931615
0.33477683599994634 0.4460185637518319 0.3014167073766487
0.33499488800043764 0.4460185637518319 0.29164631167562294
0.3351994399999967 0.4479726428920372 0.29946262823644365
0.3354066960000637 0.44894968246213973 0.32193453834880303
0.33560339599989675 0.44894968246213973 0.36199316072300936
0.3358037070001956 0.45188080117244755 0.41670737664875435
0.3360377219996735 0.457743038593063 0.46165119687347334
0.3362254040002881 0.4528578407425501 0.49877870053737183
0.33642493699971965 0.4538348803126526 0.5378602833414754
0.3366170079998483 0.4509037616023448 0.5642403517342451
0.3368068010004208 0.4538348803126526 0.5945285784074255
0.33699566799987224 0.4557889594528579 0.6179775280898876
0.3371836839996831 0.4538348803126526 0.6375183194919394
0.33737240200025553 0.45481191988275516 0.6551050317537861
0.33760673199958546 0.45481191988275516 0.6609672691744015
0.3377956539998195 0.45676599902296044 0.6570591108939912
0.33798392900007457 0.45676599902296044 0.6453346360527601
0.3381720179995682 0.45676599902296044 0.6257938446507083
0.3383592560003308 0.46165119687347334 0.5906204201270151
0.3385969370001476 0.45969711773326827 0.567171470444553
0.33879708099993877 0.457743038593063 0.5486077186126037
0.3390070409996042 0.457743038593063 0.5290669272105519
0.33923661100016034 0.45481191988275516 0.5134342940889105
0.33946766200006095 0.4538348803126526 0.4948705422569615
0.33969506599987653 0.4460185637518319 0.47728382999511476
0.3399356359996091 0.44699560332193444 0.47142159257449934
0.34017668700016657 0.4430874450415241 0.4655593551538837
0.340425311999752 0.4430874450415241 0.46262823644357587
0.34067532700009906 0.4450415241817294 0.4587200781631655
0.34089991499968164 0.44406448461162684 0.45188080117244755
0.34112720800021634 0.4430874450415241 0.441133365901319
0.3413604440002018 0.4528578407425501 0.4352711284807034
0.341600458999892 0.441133365901319 0.42256961406936977
0.3419568970002729 0.4430874450415241 0.41182217879824123
0.34225209600026574 0.4430874450415241 0.4040058622374205
0.3424606099997618 0.4430874450415241 0.403028822667318
0.34266523699989193 0.4430874450415241 0.39716658524670256
0.34313682100037113 0.44211040547142155 0.3961895456765998
0.3433761320002304 0.44211040547142155 0.39423546653639474
0.34357559100044455 0.44211040547142155 0.3913043478260869
0.3437726060001296 0.44211040547142155 0.39423546653639474
0.34397480600000563 0.4401563263312165 0.3903273082559844
0.34420691299965256 0.4401563263312165 0.3932584269662922
0.34444889099995635 0.441133365901319 0.3952125061064973
0.3446572949997062 0.4401563263312165 0.4049829018075233
0.34485006900013104 0.441133365901319 0.41475329750854906
0.3450452879997101 0.4430874450415241 0.4284318514899854
0.34524389499983954 0.4430874450415241 0.4450415241817294
0.3455069829997228 0.441133365901319 0.4655593551538837
0.3457338130001517 0.4430874450415241 0.47923790913532005
0.3459437720002825 0.44211040547142155 0.4802149487054226
0.3461466950002432 0.441133365901319 0.48412310698583294
0.34639193099974364 0.4430874450415241 0.4753297508549097
0.34673629499957315 0.44406448461162684 0.4665363947239862
0.34694168100031675 0.4430874450415241 0.45969711773326827
0.3471403809999174 0.44699560332193444 0.4538348803126526
0.34734272900004726 0.4460185637518319 0.4557889594528579
0.34755705899988243 0.45188080117244755 0.4636052760136786
0.34778246200039575 0.4479726428920372 0.47142159257449934
0.3479859770004623 0.4479726428920372 0.47435271128480694
0.34818241900029534 0.44699560332193444 0.4811919882755251
0.3483733780003604 0.44894968246213973 0.48705422569614076
0.3485755040001095 0.44699560332193444 0.4880312652662433
0.34879872300007264 0.44894968246213973 0.4831460674157304
0.34901645999980246 0.44992672203224227 0.47239863214460187
0.3492489740001474 0.4509037616023448 0.45676599902296044
0.3495268209999267 0.4538348803126526 0.431362970200293
0.34974013200007903 0.4538348803126526 0.41475329750854906
0.3499334810003347 0.4557889594528579 0.3913043478260869
0.35015764299987495 0.4557889594528579 0.3688324377137273
0.35034760300004564 0.4557889594528579 0.348314606741573
0.35053634100040654 0.4528578407425501 0.33268197361993157
0.3507265409998581 0.4538348803126526 0.33268197361993157
0.3509145010002612 0.45481191988275516 0.3385442110405472
0.3511024970002836 0.45676599902296044 0.3512457254518808
0.3512908829998196 0.45481191988275516 0.36980947728383007
0.35147821299960924 0.457743038593063 0.3854421104054715
0.35166622799988545 0.45676599902296044 0.3961895456765998
0.35185367000030965 0.45676599902296044 0.4049829018075233
0.3520417219997398 0.45969711773326827 0.41670737664875435
0.35222999600046023 0.457743038593063 0.42452369320957506
0.35241758600022877 0.45676599902296044 0.43624816805080613
0.352605007999955 0.4557889594528579 0.43624816805080613
0.35279378300037934 0.45481191988275516 0.43429408891060084
0.3529822800001057 0.4538348803126526 0.4284318514899854
0.3531702950003819 0.45188080117244755 0.42452369320957506
0.35335816200040426 0.44992672203224227 0.4176844162188569
0.3535737689999223 0.44894968246213973 0.4137762579384465
0.353763414000241 0.4460185637518319 0.412799218368344
0.3539513550003903 0.4479726428920372 0.412799218368344
0.3541398150000532 0.4450415241817294 0.4108451392281387
0.35435399699963455 0.44699560332193444 0.412799218368344
0.3545417900004395 0.4460185637518319 0.4255007327796776
0.3547668600003817 0.4479726428920372 0.4401563263312165
0.3549551710002561 0.44699560332193444 0.4587200781631655
0.3551429270000881 0.4479726428920372 0.4763067904250122
0.3553317389996664 0.4479726428920372 0.49682462139716654
0.355519736000133 0.44992672203224227 0.5202735710796287
0.3557086769997113 0.44992672203224227 0.5202735710796287
0.3558968220004317 0.4538348803126526 0.5300439667806547
0.3560841890002848 0.44992672203224227 0.5310210063507572
0.35627190800005337 0.44894968246213973 0.524181729360039
0.3564677929998652 0.4479726428920372 0.5144113336590133
0.3566568449996339 0.4479726428920372 0.5017098192476794
0.35684502700041776 0.44699560332193444 0.5017098192476794
0.3570337279998057 0.4479726428920372 0.49193942354665365
0.35722611300025164 0.44699560332193444 0.49682462139716654
0.3574516279995805 0.4460185637518319 0.49682462139716654
0.3576427360003436 0.44699560332193444 0.5026868588177822
0.3578337509998164 0.4479726428920372 0.5036638983878847
0.3580232659996909 0.4460185637518319 0.5085490962383976
0.3582106330004535 0.4460185637518319 0.512457254518808
0.35842220399990765 0.44699560332193444 0.512457254518808
0.3586105710000993 0.4479726428920372 0.4978016609672691
0.35879979000037565 0.44894968246213973 0.4831460674157304
0.35898824899959436 0.4509037616023448 0.46262823644357587
0.3591761910001878 0.44992672203224227 0.4401563263312165
0.3593641870002102 0.44894968246213973 0.42159257449926724
0.35955305399966164 0.44894968246213973 0.40693698094772834
0.35974158800036093 0.4450415241817294 0.3883732291157791
0.35992967800029874 0.4479726428920372 0.3854421104054715
0.3601180449995809 0.4460185637518319 0.3854421104054715
0.3603060599998571 0.44699560332193444 0.3913043478260869
0.36049357499996404 0.44894968246213973 0.39716658524670256
0.36068160899958457 0.4479726428920372 0.4040058622374205
0.3608697720001146 0.44699560332193444 0.4176844162188569
0.3610589540003275 0.4557889594528579 0.4323400097703958
0.36124737699992693 0.4460185637518319 0.44406448461162684
0.36147076199995354 0.4479726428920372 0.46262823644357587
0.36168483199980983 0.4479726428920372 0.457743038593063
0.3618941619997713 0.4528578407425501 0.4557889594528579
0.36220654499993543 0.4509037616023448 0.44894968246213973
0.3623963010004445 0.45188080117244755 0.4450415241817294
0.3626103160004277 0.44894968246213973 0.44406448461162684
0.36279920200013294 0.44992672203224227 0.44894968246213973
0.36298721700040915 0.45188080117244755 0.4528578407425501
0.36317528800009313 0.44992672203224227 0.4636052760136786
0.36336539599960815 0.45188080117244755 0.4704445530043966
0.36355361500045547 0.4460185637518319 0.4733756717147044
0.3637413149999702 0.4528578407425501 0.4782608695652173
0.3639310709995698 0.4479726428920372 0.48216902784562765
0.36411875300018437 0.4479726428920372 0.4811919882755251
0.3643446380001478 0.44992672203224227 0.48412310698583294
0.36453330099993764 0.44699560332193444 0.4880312652662433
0.36472216800029855 0.4450415241817294 0.4929164631167562
0.36491025800023635 0.4430874450415241 0.4938935026868587
0.36509762500008947 0.441133365901319 0.49877870053737183
0.36528523299966764 0.44406448461162684 0.4978016609672691
0.3654753780001556 0.4430874450415241 0.495847581827064
0.3656636340001569 0.4430874450415241 0.4929164631167562
0.3658511120002004 0.44992672203224227 0.48705422569614076
0.36604133099990577 0.44211040547142155 0.4782608695652173
0.36623153100026684 0.44406448461162684 0.47142159257449934
0.36641986100039503 0.44406448461162684 0.46262823644357587
0.3666078389996983 0.44406448461162684 0.45481191988275516
0.36679570599972067 0.44406448461162684 0.44699560332193444
0.36698338800033525 0.44211040547142155 0.4382022471910112
0.3671716810004 0.4460185637518319 0.4323400097703958
0.3673599000003378 0.4460185637518319 0.4255007327796776
0.36754735999966215 0.44699560332193444 0.42256961406936977
0.36773543100025563 0.44992672203224227 0.4176844162188569
0.36792305699964345 0.44992672203224227 0.4157303370786516
0.36811301699981414 0.45188080117244755 0.41670737664875435
0.36830084699977306 0.45188080117244755 0.4157303370786516
0.368489270000282 0.4538348803126526 0.42256961406936977
0.3686778780001987 0.4557889594528579 0.4303859306301905
0.3689037249996545 0.457743038593063 0.4401563263312165
0.3690940739998041 0.45676599902296044 0.4479726428920372
0.36928199700014375 0.457743038593063 0.45481191988275516
0.3694853630004218 0.457743038593063 0.4528578407425501
0.36967349000042304 0.4557889594528579 0.44992672203224227
0.3698611899999378 0.4557889594528579 0.4479726428920372
0.3700486500001716 0.4538348803126526 0.44699560332193444
0.37023668399979215 0.4557889594528579 0.4460185637518319
0.37042423599996255 0.45481191988275516 0.44406448461162684
0.3706129180000062 0.45481191988275516 0.44406448461162684
0.37083361799977865 0.45481191988275516 0.43917928676111373
0.37102446599965333 0.4528578407425501 0.441133365901319
0.3712128520000988 0.4557889594528579 0.44211040547142155
0.3714007930002481 0.45481191988275516 0.4401563263312165
0.3715884749999532 0.45481191988275516 0.4401563263312165
0.3717757309996159 0.4557889594528579 0.43722520762090866
0.3719643200001883 0.4557889594528579 0.43722520762090866
0.3721583360002114 0.45481191988275516 0.43917928676111373
0.37234662900027615 0.4557889594528579 0.44211040547142155
0.37253429199972743 0.4538348803126526 0.43917928676111373
0.372721566999644 0.4538348803126526 0.44211040547142155
0.37290930400013167 0.45481191988275516 0.43624816805080613
0.3730966339999213 0.45481191988275516 0.4352711284807034
0.37328485299985914 0.4557889594528579 0.43429408891060084
0.3734754979996069 0.4528578407425501 0.4323400097703958
0.3736640320003062 0.4509037616023448 0.4323400097703958
0.37385151000034966 0.4509037616023448 0.4352711284807034
0.3740384880002239 0.45188080117244755 0.43429408891060084
0.37422505900030956 0.45188080117244755 0.4382022471910112
0.37441242600016267 0.45188080117244755 0.43917928676111373
0.37460653400012234 0.44894968246213973 0.44406448461162684
0.3747954190002929 0.44894968246213973 0.44211040547142155
0.3749915090002105 0.44992672203224227 0.4460185637518319
0.3751826349998737 0.44894968246213973 0.44406448461162684
0.37538127999960125 0.4479726428920372 0.441133365901319
0.37557070200000453 0.44992672203224227 0.43624816805080613
0.3757588839998789 0.44699560332193444 0.4303859306301905
0.375946565999584 0.44699560332193444 0.4264777723497801
0.3761340629998813 0.44699560332193444 0.42256961406936977
0.37632148600005166 0.44699560332193444 0.41475329750854906
0.3765109449996089 0.4450415241817294 0.4079140205178309
0.3766988859997582 0.44406448461162684 0.40889106008793363
0.3768877539996538 0.44699560332193444 0.4049829018075233
0.3770752869995704 0.4460185637518319 0.39912066438690763
0.3772647469995718 0.4450415241817294 0.39228138739618945
0.37745507700037706 0.441133365901319 0.3932584269662922
0.3776433889997861 0.44406448461162684 0.3913043478260869
0.37783155200031615 0.4430874450415241 0.38935026868588185
0.37801956699968287 0.44699560332193444 0.38935026868588185
0.378207527000086 0.44406448461162684 0.38641914997557403
0.37839576399983343 0.44211040547142155 0.3834880312652662
0.3785841689996232 0.43917928676111373 0.38153395212506114
0.3787728870001956 0.44211040547142155 0.38251099169516367
0.3789800690001357 0.44406448461162684 0.38739618954567656
0.37916812099956587 0.441133365901319 0.3913043478260869
0.3793555069996728 0.4401563263312165 0.39716658524670256
0.3795423000001392 0.44211040547142155 0.4040058622374205
0.37972927800001344 0.44211040547142155 0.4079140205178309
0.3799174790001416 0.44406448461162684 0.4157303370786516
0.38010506800037547 0.4430874450415241 0.42452369320957506
0.3803014909999547 0.43917928676111373 0.4352711284807034
0.3804964500004644 0.4430874450415241 0.4479726428920372
0.38070096499996 0.44406448461162684 0.46262823644357587
0.3809058870001536 0.44406448461162684 0.4782608695652173
0.38110558799962746 0.4430874450415241 0.4929164631167562
0.38129950999973516 0.44406448461162684 0.5007327796775769
0.38149908099967433 0.4450415241817294 0.5095261358085001
0.38172205800037773 0.4460185637518319 0.5114802149487054
0.38194875800036243 0.44699560332193444 0.5095261358085001
0.3822558450001452 0.44992672203224227 0.5036638983878847
0.3824883229999614 0.4479726428920372 0.49975574010747437
0.3827157449995866 0.4460185637518319 0.495847581827064
0.3829644810002719 0.44992672203224227 0.5085490962383976
0.3832316620000711 0.4509037616023448 0.522227650219834
0.38344193600005383 0.45188080117244755 0.5310210063507572
0.38365389499995217 0.4509037616023448 0.5388373229115779
0.3838529289996586 0.4538348803126526 0.5398143624816805
0.38408511000034196 0.4538348803126526 0.533952125061065
0.38429236600040895 0.4528578407425501 0.5212506106497312
0.38449721399956616 0.45481191988275516 0.5075720566682951
0.3846980810003515 0.45188080117244755 0.48998534440644836
0.38490287399963563 0.44992672203224227 0.47142159257449934
0.38511033299982955 0.4509037616023448 0.45969711773326827
0.3853298289996019 0.44894968246213973 0.44699560332193444
0.38564484200014704 0.44992672203224227 0.441133365901319
0.38592078199963 0.44894968246213973 0.4430874450415241
0.38621970300027897 0.44894968246213973 0.44211040547142155
0.38652914199974475 0.44992672203224227 0.44894968246213973
0.3868127289997574 0.4528578407425501 0.4587200781631655
0.387056057999871 0.4538348803126526 0.46458231558378116
0.38731784999981755 0.4509037616023448 0.46165119687347334
0.387675400000262 0.45188080117244755 0.4636052760136786
0.3879690240000855 0.4557889594528579 0.467513434294089
0.388195428000472 0.44894968246213973 0.467513434294089
0.3883942200000092 0.44992672203224227 0.4704445530043966
0.38861332800024684 0.44894968246213973 0.46946751343429405
0.388802417000079 0.4479726428920372 0.46262823644357587
0.3889897839999321 0.44699560332193444 0.4528578407425501
0.38917833600044105 0.4479726428920372 0.44406448461162684
0.3893663700000616 0.4479726428920372 0.431362970200293
0.3895884029998342 0.4479726428920372 0.4264777723497801
0.38977703000000474 0.44894968246213973 0.4206155349291647
0.3899648039996464 0.4479726428920372 0.4206155349291647
0.39015300499977457 0.45188080117244755 0.4157303370786516
0.3903405940000084 0.4538348803126526 0.40889106008793363
0.39053283100020053 0.4538348803126526 0.4010747435271129
0.3907254579999062 0.45188080117244755 0.38935026868588185
0.39091297300001315 0.4557889594528579 0.3805569125549584
0.3911430059997656 0.4587200781631655 0.37274059599413767
0.3913371509997887 0.4557889594528579 0.36492427943331696
0.39152531400031876 0.4557889594528579 0.3639472398632144
0.3917131440002777 0.45481191988275516 0.3659013190034197
0.3919016970003213 0.45676599902296044 0.3707865168539326
0.3920894530001533 0.4587200781631655 0.37957987298485585
0.3922775789997104 0.457743038593063 0.3903273082559844
0.392465390000325 0.457743038593063 0.41182217879824123
0.392654016999586 0.457743038593063 0.431362970200293
0.3928418280002006 0.457743038593063 0.46458231558378116
0.39302947299984226 0.45481191988275516 0.4909623839765511
0.3932178960003512 0.457743038593063 0.5192965315095261
0.3934060960000352 0.457743038593063 0.5515388373229115
0.39362044500012416 0.46262823644357587 0.5710796287249633
0.3938086819998716 0.4587200781631655 0.5828041035661944
0.3939966790003382 0.4587200781631655 0.5857352222765022
0.3941842309995991 0.45676599902296044 0.5749877870053737
0.394388171999708 0.45676599902296044 0.5544699560332194
0.3945780949998152 0.457743038593063 0.5290669272105519
0.39476638799987995 0.45188080117244755 0.5075720566682951
0.3949548840000716 0.45188080117244755 0.48216902784562765
0.3951427700003478 0.4557889594528579 0.4606741573033708
0.3953309150001587 0.4509037616023448 0.4401563263312165
0.3955189300004349 0.4557889594528579 0.42159257449926724
0.3957072049997805 0.45481191988275516 0.4059599413776258
0.3958952749999298 0.45188080117244755 0.39912066438690763
0.3960830870000791 0.45481191988275516 0.3932584269662922
0.396271546999742 0.4557889594528579 0.3961895456765998
0.3966544100003375 0.45676599902296044 0.3961895456765998
0.3969039060002615 0.4606741573033708 0.3961895456765998
0.39709268099977635 0.46165119687347334 0.3981436248168051
0.3972803810002006 0.4587200781631655 0.40009770395701016
0.3974774329999491 0.46262823644357587 0.4049829018075233
0.3976666890002889 0.46262823644357587 0.4059599413776258
0.3978568889997405 0.45969711773326827 0.4079140205178309
0.39804451599957247 0.45676599902296044 0.412799218368344
0.39823212400006014 0.45676599902296044 0.412799218368344
0.3984197689997018 0.4538348803126526 0.41670737664875435
0.39860722800040094 0.44992672203224227 0.4157303370786516
0.39879603999997926 0.44894968246213973 0.4206155349291647
0.39898481399995944 0.457743038593063 0.4235466536394723
0.3991723669996645 0.44992672203224227 0.4284318514899854
0.3993640480002796 0.44699560332193444 0.431362970200293
0.39956928599985986 0.4450415241817294 0.4333170493404983
0.3997751340002651 0.44211040547142155 0.43722520762090866
0.3999777790004373 0.44406448461162684 0.44406448461162684
0.4001680720002696 0.441133365901319 0.4450415241817294
0.40035651299967867 0.441133365901319 0.45188080117244755
0.40054624999993393 0.4430874450415241 0.45188080117244755
0.400780597999983 0.44406448461162684 0.4509037616023448
0.4009797979997529 0.44406448461162684 0.45188080117244755
0.4011687020001773 0.44992672203224227 0.44992672203224227
0.4013567359997978 0.4450415241817294 0.44894968246213973
0.40157752899995103 0.4430874450415241 0.4479726428920372
0.4017658399998254 0.4460185637518319 0.44894968246213973
0.40195433700046124 0.4479726428920372 0.44894968246213973
0.40214170400031435 0.4479726428920372 0.45188080117244755
0.4023299600003156 0.44699560332193444 0.45676599902296044
0.4025181050001265 0.44699560332193444 0.4636052760136786
0.4027062309996836 0.44992672203224227 0.46946751343429405
0.40289517200017144 0.44992672203224227 0.4802149487054226
0.4030836880001516 0.44894968246213973 0.48900830483634583
0.40327270299985685 0.4528578407425501 0.4948705422569615
0.4034601069997734 0.45481191988275516 0.4938935026868587
0.40364832599971123 0.457743038593063 0.4929164631167562
0.4038367860002836 0.4557889594528579 0.4763067904250122
0.40402513400022144 0.45481191988275516 0.46165119687347334
0.4042135199997574 0.4587200781631655 0.4460185637518319
0.40440096099973744 0.4587200781631655 0.4323400097703958
0.4045882540003731 0.45676599902296044 0.42452369320957506
0.4047762509999302 0.4557889594528579 0.4235466536394723
0.40496508100022766 0.457743038593063 0.41963849535906195
0.4051899839996622 0.457743038593063 0.41963849535906195
0.405413499000133 0.4538348803126526 0.42159257449926724
0.4056375689997367 0.45481191988275516 0.42159257449926724
0.40582497299965326 0.4557889594528579 0.4264777723497801
0.4060146550000354 0.45188080117244755 0.431362970200293
0.4062023369997405 0.4509037616023448 0.431362970200293
0.4063898889999109 0.45188080117244755 0.43722520762090866
0.406577126999764 0.4557889594528579 0.44406448461162684
0.4067646789999344 0.4557889594528579 0.4479726428920372
0.40695187999972404 0.4557889594528579 0.4557889594528579
0.40713906200016936 0.4557889594528579 0.4538348803126526
0.40732607700010703 0.45481191988275516 0.457743038593063
0.4075137589998121 0.45481191988275516 0.4538348803126526
0.40770042199983436 0.45481191988275516 0.457743038593063
0.40788725200036424 0.45676599902296044 0.45676599902296044
0.40807430499990005 0.45676599902296044 0.457743038593063
0.4082613199998377 0.45481191988275516 0.4528578407425501
0.40844883499994467 0.4538348803126526 0.45481191988275516
0.40863651699964976 0.457743038593063 0.4528578407425501
0.40882353199958743 0.4557889594528579 0.44992672203224227
0.4090116770003078 0.4538348803126526 0.44894968246213973
0.40921258100024716 0.4538348803126526 0.44406448461162684
0.40940085599959275 0.4528578407425501 0.44699560332193444
0.4095921489997636 0.4538348803126526 0.4382022471910112
0.4097810160001245 0.46165119687347334 0.44894968246213973
0.4099697350002316 0.4557889594528579 0.4509037616023448
0.410157008999704 0.45188080117244755 0.4587200781631655
0.4103447839997898 0.4528578407425501 0.46458231558378116
0.4105327059996853 0.45188080117244755 0.4684904738641915
0.41072025900029985 0.4557889594528579 0.4733756717147044
0.41091118100030144 0.45676599902296044 0.4811919882755251
0.4111445480002658 0.4528578407425501 0.4763067904250122
0.4113410259997181 0.45969711773326827 0.4733756717147044
0.4115295219999098 0.45481191988275516 0.467513434294089
0.41171687099995324 0.4528578407425501 0.4606741573033708
0.4119040160003351 0.44894968246213973 0.45969711773326827
0.412092475999998 0.4528578407425501 0.4538348803126526
0.4122802129995762 0.4538348803126526 0.4450415241817294
0.41246767299981 0.4509037616023448 0.44406448461162684
0.41265565100002277 0.4538348803126526 0.4401563263312165
0.41284333299972786 0.4538348803126526 0.43429408891060084
0.4130345330004275 0.4528578407425501 0.4323400097703958
0.41322301200034417 0.44894968246213973 0.43429408891060084
0.4134614699996746 0.44992672203224227 0.4206155349291647
0.41366468900014297 0.4509037616023448 0.41182217879824123
0.41386412999963795 0.44992672203224227 0.403028822667318
0.4140677189998314 0.4509037616023448 0.4010747435271129
0.4142725669998981 0.45188080117244755 0.4040058622374205
0.41447576799964736 0.4509037616023448 0.40889106008793363
0.4146734859996286 0.44894968246213973 0.41475329750854906
0.4148772790003932 0.4528578407425501 0.4264777723497801
0.4150765719996343 0.45188080117244755 0.4303859306301905
0.41528275400014536 0.4528578407425501 0.4333170493404983
0.4155028980003408 0.45188080117244755 0.43429408891060084
0.41573287499977596 0.4509037616023448 0.4333170493404983
0.4159779450001224 0.4509037616023448 0.43624816805080613
0.41624212599981547 0.45188080117244755 0.43624816805080613
0.4165343619997657 0.4538348803126526 0.4460185637518319
0.41677844999958324 0.4528578407425501 0.441133365901319
0.4169804650000515 0.45481191988275516 0.4382022471910112
0.4171844800002873 0.45481191988275516 0.4352711284807034
0.41741205000016635 0.4557889594528579 0.42745481191988266
0.4177545069996995 0.45481191988275516 0.4157303370786516
0.4180194649998157 0.45969711773326827 0.41475329750854906
0.4182593870000346 0.457743038593063 0.41670737664875435
0.41849780899974576 0.457743038593063 0.4206155349291647
0.41877969300003315 0.45676599902296044 0.4157303370786516
0.4191246680002223 0.4538348803126526 0.412799218368344
0.4194172190000245 0.4528578407425501 0.4186614557889594
0.4196328819998598 0.45188080117244755 0.42256961406936977
0.41983256399998936 0.4509037616023448 0.42452369320957506
0.4200471340000149 0.4528578407425501 0.4264777723497801
0.4202501489999122 0.44699560332193444 0.41963849535906195
0.4204684599999382 0.45481191988275516 0.41963849535906195
0.42067697499987844 0.44699560332193444 0.4157303370786516
0.42087148999962665 0.4450415241817294 0.41475329750854906
0.4210604500003683 0.4460185637518319 0.4206155349291647
0.42124933499962935 0.4430874450415241 0.4176844162188569
0.4214826830002494 0.4460185637518319 0.4206155349291647
0.42167321699980675 0.44699560332193444 0.4235466536394723
0.4218619539997235 0.4460185637518319 0.41963849535906195
0.4220493949997035 0.44699560332193444 0.4206155349291647
0.4222369660001277 0.4450415241817294 0.42745481191988266
0.422424499999579 0.4450415241817294 0.4323400097703958
0.4226319780000267 0.44406448461162684 0.4509037616023448
0.42285804800030746 0.4450415241817294 0.4684904738641915
0.4230494149996957 0.4430874450415241 0.48705422569614076
0.42323724499965465 0.44699560332193444 0.5007327796775769
0.4234260009998252 0.4479726428920372 0.5134342940889105
0.4236138309997841 0.44992672203224227 0.5192965315095261
0.4238013280000814 0.45188080117244755 0.5290669272105519
0.42399001000012504 0.4557889594528579 0.5319980459208598
0.42417750700042234 0.45188080117244755 0.5378602833414754
0.42436494800040236 0.4538348803126526 0.5446995603321934
0.42455175899976894 0.4557889594528579 0.5446995603321934
0.42473907099974895 0.4509037616023448 0.5466536394723986
0.42492656800004625 0.4538348803126526 0.5446995603321934
0.4251141570002801 0.44992672203224227 0.540791402051783
0.42530180199992174 0.44992672203224227 0.5329750854909623
0.4254910760000712 0.4479726428920372 0.5271128480703469
0.42568179499994585 0.44992672203224227 0.5192965315095261
0.4258693290003066 0.4450415241817294 0.512457254518808
0.4260584370003926 0.45481191988275516 0.5026868588177822
0.4262462670003515 0.4509037616023448 0.4938935026868587
0.42643489300007786 0.4479726428920372 0.48412310698583294
0.4266223530003117 0.44992672203224227 0.4782608695652173
0.4268099239998264 0.4460185637518319 0.4655593551538837
0.426997606000441 0.4479726428920372 0.4538348803126526
0.4271874910000406 0.44406448461162684 0.44406448461162684
0.4273770070003593 0.4460185637518319 0.4382022471910112
0.4275652630003606 0.4460185637518319 0.43624816805080613
0.4277532779997273 0.44699560332193444 0.4323400097703958
0.42794075599977077 0.44699560332193444 0.43624816805080613
0.42812854899966624 0.44894968246213973 0.43429408891060084
0.42831598999964626 0.4460185637518319 0.4303859306301905
0.4285039129999859 0.44894968246213973 0.4323400097703958
0.4286916689998179 0.4479726428920372 0.4264777723497801
0.4288790729997345 0.45188080117244755 0.4235466536394723
0.4290669769998203 0.44894968246213973 0.4235466536394723
0.42925462200037146 0.4538348803126526 0.42256961406936977
0.42945608199988783 0.4557889594528579 0.41475329750854906
0.4296445970003333 0.45676599902296044 0.4108451392281387
0.4298322599997846 0.4557889594528579 0.4108451392281387
0.43002064600023004 0.457743038593063 0.40986809965803617
0.43023901299966383 0.4587200781631655 0.4157303370786516
0.4304442310003651 0.45676599902296044 0.4333170493404983
0.43063337599960505 0.457743038593063 0.45969711773326827
0.4308376130002216 0.457743038593063 0.4802149487054226
0.4310276469996097 0.457743038593063 0.5017098192476794
0.43121490300018195 0.4606741573033708 0.5153883732291158
0.4314044550001199 0.4606741573033708 0.524181729360039
0.4315963039998678 0.4587200781631655 0.5192965315095261
0.4317911340003775 0.45676599902296044 0.5085490962383976
0.43200440800046636 0.457743038593063 0.495847581827064
0.4322055519996866 0.4557889594528579 0.47435271128480694
0.4324139379996268 0.4538348803126526 0.457743038593063
0.4326100270000097 0.45481191988275516 0.43917928676111373
0.4328002459997151 0.44894968246213973 0.4157303370786516
0.43299016800028767 0.44894968246213973 0.39912066438690763
0.4331776839999293 0.4509037616023448 0.3883732291157791
0.43336645799990947 0.44992672203224227 0.376648754274548
0.4336377680001533 0.44992672203224227 0.376648754274548
0.43382511700019677 0.44992672203224227 0.38251099169516367
0.43401285399977496 0.44992672203224227 0.3883732291157791
0.4342028700002629 0.44992672203224227 0.3903273082559844
0.4343902549999257 0.44992672203224227 0.39228138739618945
0.43457799299994804 0.44894968246213973 0.3932584269662922
0.4347661749998224 0.44894968246213973 0.3883732291157791
0.4349872630000391 0.44894968246213973 0.3854421104054715
0.43517481599974417 0.4528578407425501 0.38739618954567656
0.43536710900025355 0.45188080117244755 0.38935026868588185
0.4355545680000432 0.45188080117244755 0.3903273082559844
0.4357418059998963 0.44992672203224227 0.40009770395701016
0.435929414000384 0.45188080117244755 0.40693698094772834
0.43611681800030055 0.44992672203224227 0.41182217879824123
0.4363038700003017 0.45188080117244755 0.4206155349291647
0.43649197800004913 0.4538348803126526 0.4323400097703958
0.4366793079998388 0.4509037616023448 0.44992672203224227
0.4368933409996316 0.4479726428920372 0.47923790913532005
0.437085190000289 0.44894968246213973 0.5036638983878847
0.43727226099963445 0.44406448461162684 0.5261358085002443
0.4374612020001223 0.4450415241817294 0.5437225207620908
0.43764964300044085 0.4382022471910112 0.5456765999022961
0.4378372880000825 0.4382022471910112 0.5446995603321934
0.438024007000422 0.43624816805080613 0.5446995603321934
0.43821074399966164 0.43429408891060084 0.5359062042012701
0.438398481999684 0.4333170493404983 0.5280898876404494
0.43858568199993897 0.4333170493404983 0.5163654127992183
0.4387727350003843 0.43429408891060084 0.5085490962383976
0.43896230599966657 0.43429408891060084 0.495847581827064
0.43916296899988083 0.43429408891060084 0.48412310698583294
0.4393502989996705 0.4352711284807034 0.4538348803126526
0.4395384070003274 0.43624816805080613 0.4186614557889594
0.43972519999988435 0.4333170493404983 0.38641914997557403
0.43991243700020277 0.43722520762090866 0.3551538837322912
0.4400999520003097 0.4401563263312165 0.3287738153395212
0.44028883800001495 0.44211040547142155 0.30923302393746943
0.4404786499999318 0.4479726428920372 0.2906692721055202
0.4406673499997851 0.457743038593063 0.27992183683439187
0.4408575130000827 0.4587200781631655 0.2838299951148022
0.44104543600042234 0.4665363947239862 0.2984855886663409
0.44123306199981016 0.4733756717147044 0.31998045920859797
0.44147861399960675 0.47728382999511476 0.3629702002931119
0.44167207299960864 0.4782608695652173 0.40693698094772834
0.44186127400007535 0.47923790913532005 0.45188080117244755
0.4420509929996115 0.4753297508549097 0.49682462139716654
0.4422398039996551 0.4763067904250122 0.5378602833414754
0.4424277449998044 0.47435271128480694 0.578895945285784
0.4426162239997211 0.47142159257449934 0.6121152906692722
0.4428038870000819 0.4665363947239862 0.6287249633610161
0.4429917730003581 0.467513434294089 0.6384953590620419
0.4431799359999786 0.46458231558378116 0.6306790425012212
0.4433748769997692 0.46262823644357587 0.6130923302393747
0.44357517000025837 0.457743038593063 0.5876893014167073
0.44376718500006973 0.45481191988275516 0.5632633121641426
0.44396294099988154 0.44992672203224227 0.5378602833414754
0.4441539930003273 0.44699560332193444 0.512457254518808
0.44434748999992735 0.4460185637518319 0.4938935026868587
0.44455096799993044 0.4450415241817294 0.4802149487054226
0.444749297999806 0.4450415241817294 0.47142159257449934
0.4449451829996178 0.4430874450415241 0.46458231558378116
0.44513295799970365 0.44992672203224227 0.457743038593063
0.445321139999578 0.4450415241817294 0.4460185637518319
0.4455583580001985 0.4509037616023448 0.4352711284807034
0.44574729899977683 0.44894968246213973 0.42256961406936977
0.4459367210001801 0.44992672203224227 0.41475329750854906
0.4461272739999913 0.4509037616023448 0.4040058622374205
0.4463181959999929 0.44699560332193444 0.39912066438690763
0.4465053599997191 0.4509037616023448 0.39716658524670256
0.4466944120003973 0.4509037616023448 0.3981436248168051
0.4469160380003814 0.4460185637518319 0.39716658524670256
0.4471145710003839 0.45188080117244755 0.4079140205178309
0.44737791900024604 0.4479726428920372 0.41475329750854906
0.44761215499966056 0.44992672203224227 0.4235466536394723
0.44781550399966363 0.44992672203224227 0.43429408891060084
0.44801855599962437 0.45188080117244755 0.4460185637518319
0.4482166079997114 0.4509037616023448 0.45969711773326827
0.4484236039997995 0.4528578407425501 0.4684904738641915
0.4486431739996988 0.4509037616023448 0.4782608695652173
0.4488951700004691 0.4538348803126526 0.48412310698583294
0.44914531399990665 0.45188080117244755 0.4831460674157304
0.44939171700025327 0.45188080117244755 0.4802149487054226
0.4496544720004749 0.45188080117244755 0.4802149487054226
0.4498904860001858 0.4528578407425501 0.47923790913532005
0.45009537100031594 0.4538348803126526 0.4753297508549097
0.4503022750004675 0.4538348803126526 0.47435271128480694
0.4505012720001105 0.4538348803126526 0.4704445530043966
0.4507129720004741 0.45188080117244755 0.467513434294089
0.4509483199999522 0.4538348803126526 0.46262823644357587
0.4511960010004259 0.4509037616023448 0.4557889594528579
0.45149040300020715 0.4587200781631655 0.44699560332193444
0.4517751940002199 0.4528578407425501 0.4460185637518319
0.45207913299964275 0.45188080117244755 0.4401563263312165
0.4524369419996219 0.457743038593063 0.4382022471910112
0.45273912199991173 0.4528578407425501 0.43624816805080613
0.4529601000003822 0.45481191988275516 0.4382022471910112
0.45315118899998197 0.45481191988275516 0.44211040547142155
0.4533401300004698 0.45481191988275516 0.43722520762090866
0.45355664500038984 0.4528578407425501 0.4401563263312165
0.45374465999975655 0.45676599902296044 0.4401563263312165
0.45393293500001164 0.45676599902296044 0.43722520762090866
0.45412146800026676 0.45481191988275516 0.43429408891060084
0.4543110020003951 0.4538348803126526 0.4352711284807034
0.45449835100043856 0.4538348803126526 0.43429408891060084
0.4546863659998053 0.45188080117244755 0.4352711284807034
0.4548741959997642 0.4538348803126526 0.42940889106008795
0.45506295199993474 0.4528578407425501 0.4303859306301905
0.4552511339998091 0.4528578407425501 0.4284318514899854
0.45549825899979624 0.4509037616023448 0.4255007327796776
0.45568694099983986 0.4509037616023448 0.4255007327796776
0.45587495600011607 0.4538348803126526 0.42745481191988266
0.45606289799980004 0.45188080117244755 0.4284318514899854
0.4562511909998648 0.44699560332193444 0.4303859306301905
0.456448908999846 0.44894968246213973 0.42745481191988266
0.4566394430003129 0.44992672203224227 0.4284318514899854
0.45686734700029774 0.44699560332193444 0.4284318514899854
0.45705575099964335 0.44699560332193444 0.4303859306301905
0.45724356200025795 0.4479726428920372 0.4284318514899854
0.45745289200021944 0.4460185637518319 0.4352711284807034
0.4576526290002221 0.4479726428920372 0.4352711284807034
0.45784081100009644 0.4479726428920372 0.43624816805080613
0.4580282340002668 0.44699560332193444 0.4401563263312165
0.45821548999992956 0.45188080117244755 0.43917928676111373
0.4584028010003749 0.4460185637518319 0.43917928676111373
0.45859118699991086 0.4479726428920372 0.4401563263312165
0.45879803499974514 0.44992672203224227 0.4382022471910112
0.45898643900000025 0.44894968246213973 0.43722520762090866
0.45917380599985336 0.44894968246213973 0.43624816805080613
0.45936104399970645 0.44894968246213973 0.4323400097703958
0.4595539109996025 0.44699560332193444 0.431362970200293
0.45974311099962506 0.4479726428920372 0.43429408891060084
0.4599310339999647 0.4509037616023448 0.431362970200293
0.46011979000013525 0.44992672203224227 0.43624816805080613
0.4603076940002211 0.4509037616023448 0.43722520762090866
0.46049522799967235 0.44699560332193444 0.441133365901319
0.46068296500016004 0.4450415241817294 0.4401563263312165
0.4608839619995706 0.4460185637518319 0.4430874450415241
0.461072865999995 0.44406448461162684 0.4450415241817294
0.46126060400001734 0.44406448461162684 0.4479726428920372
0.46148302599976887 0.4460185637518319 0.4538348803126526
0.46167407800021465 0.44406448461162684 0.45969711773326827
0.4618629819997295 0.4430874450415241 0.46458231558378116
0.46205199700034427 0.4450415241817294 0.4733756717147044
0.4622398270003032 0.4430874450415241 0.47728382999511476
0.4624283060002199 0.4430874450415241 0.4802149487054226
0.4626157840002634 0.44406448461162684 0.48216902784562765
0.46280385499994736 0.44406448461162684 0.46946751343429405
0.4629922960002659 0.44699560332193444 0.46458231558378116
0.4631796260000556 0.4460185637518319 0.45969711773326827
0.4634052889996383 0.4450415241817294 0.45481191988275516
0.4635932299997876 0.44699560332193444 0.4430874450415241
0.46378091200040217 0.4509037616023448 0.43722520762090866
0.4639689269997689 0.4460185637518319 0.431362970200293
0.4641569610002989 0.45188080117244755 0.42159257449926724
0.4643449759996656 0.45188080117244755 0.41182217879824123
0.4645327690004706 0.44992672203224227 0.4137762579384465
0.4647221550003451 0.44699560332193444 0.40205178309721545
0.4649195219999456 0.44992672203224227 0.40205178309721545
0.4651337400000557 0.44699560332193444 0.40205178309721545
0.4653472919999331 0.44699560332193444 0.4010747435271129
0.4656023990000904 0.44699560332193444 0.3913043478260869
0.4658084510001572 0.44699560332193444 0.3903273082559844
0.4660073730001386 0.4460185637518319 0.3913043478260869
0.4661952590004148 0.44699560332193444 0.39423546653639474
0.4663826260002679 0.4509037616023448 0.4010747435271129
0.46661628800029575 0.4479726428920372 0.4137762579384465
0.4668073960001493 0.45188080117244755 0.42940889106008795
0.4669951519999813 0.45188080117244755 0.44992672203224227
