0.0 0.42452369320957506 0.4587200781631655
0.0002127659574468085 0.4214807861568709 0.4586249873177685
0.000425531914893617 0.4184378791041668 0.4585298964723715
0.0006382978723404255 0.41539497205146264 0.45843480562697453
0.000851063829787234 0.41235206499875854 0.45833971478157753
0.0010638297872340426 0.4093091579460544 0.45824462393618054
0.001276595744680851 0.4062662508933503 0.45814953309078355
0.0014893617021276596 0.4032233438406461 0.4580544422453865
0.001702127659574468 0.400180436787942 0.4579593513999895
0.0019148936170212765 0.39713752973523786 0.4578642605545925
0.002127659574468085 0.3940946226825337 0.4577691697091955
0.002340425531914894 0.39093159987756604 0.45741063472324495
0.002553191489361702 0.3877230612519124 0.4569522720624373
0.0027659574468085106 0.3865517446937731 0.4563682148683631
0.0029787234042553193 0.3867751139922621 0.4556981069728961
0.0031914893617021275 0.3869984832907511 0.4550279990774291
0.003404255319148936 0.3872218525892401 0.45435789118196207
0.003617021276595745 0.38744522188772906 0.45368778328649506
0.003829787234042553 0.38766859118621805 0.45301767539102805
0.004042553191489362 0.38789196048470703 0.45234756749556104
0.00425531914893617 0.3881153297831961 0.451677459600094
0.004468085106382979 0.38833869908168506 0.45100735170462697
0.004680851063829788 0.3939382602151478 0.45119285412698734
0.004893617021276595 0.4005208800782273 0.45153480840558885
0.005106382978723404 0.40710349994130685 0.4518767626841904
0.005319148936170213 0.4136861198043864 0.4522187169627919
0.005531914893617021 0.4202687396674659 0.4525606712413935
0.00574468085106383 0.4268513595305455 0.452902625519995
0.005957446808510639 0.43343397939362505 0.45324457979859656
0.006170212765957446 0.44001659925670455 0.45358653407719807
0.006382978723404255 0.4465992191197841 0.4539284883557996
0.006595744680851064 0.4531818389828637 0.45427044263440114
0.006808510638297872 0.45976445884594325 0.45461239691300265
0.007021276595744681 0.4647379334363989 0.4546501116795094
0.00723404255319149 0.46745725866775995 0.45426163664645786
0.007446808510638298 0.47017658389912104 0.4538731616134063
0.007659574468085106 0.4683448404587596 0.4543598084490618
0.007872340425531916 0.4669417954813086 0.45467678629698105
0.008085106382978723 0.4687549357247536 0.4540724062158328
0.008297872340425531 0.46946751343429405 0.45514904408014795
0.00851063829787234 0.46977662664525227 0.45676599902296044
0.008723404255319148 0.47099768052403235 0.45676599902296044
0.008936170212765958 0.4749006036782573 0.4572008754109302
0.009148936170212766 0.47893636646858 0.45819535259317307
0.009361702127659575 0.47731613974215165 0.46062569268281545
0.009574468085106383 0.4795572640191943 0.4606741573033708
0.00978723404255319 0.4807354643488716 0.4596331260164727
0.01 0.4811919882755251 0.45906022458580875
0.010212765957446808 0.48088811638371215 0.4584816301660164
0.010425531914893617 0.4809334395821236 0.45483097161725655
0.010638297872340425 0.483136725485707 0.4518932570791454
0.010851063829787235 0.48563158069143236 0.4477382790462772
0.011063829787234043 0.486077186126038 0.44775981375780327
0.01127659574468085 0.49346418135963005 0.44649524384531875
0.01148936170212766 0.495847581827064 0.4460185637518319
0.011702127659574468 0.4995659368503093 0.4467622347564809
0.011914893617021277 0.5014284890227093 0.44699560332193444
0.012127659574468085 0.5011144827844192 0.4475909397851948
0.012340425531914893 0.502771068794899 0.4479726428920372
0.012553191489361702 0.5046409379579873 0.4454551755572534
0.01276595744680851 0.5045268050657943 0.44090510011693296
0.01297872340425532 0.503807066121246 0.4394656222278363
0.013191489361702127 0.5051864157982908 0.44070180417152
0.013404255319148937 0.5049851451721948 0.4398677011895289
0.013617021276595745 0.5041710298073447 0.44011910306239876
0.013829787234042552 0.5027479929358591 0.44143866771866086
0.014042553191489362 0.5007327796775769 0.44225210923071767
0.01425531914893617 0.5007327796775769 0.44305717148296503
0.01446808510638298 0.5022410318069904 0.4408250668474041
0.014680851063829787 0.5004267902203774 0.44128636062991883
0.014893617021276596 0.4968018036135902 0.44408730239520305
0.015106382978723404 0.4918881619506339 0.4455632170817738
0.015319148936170212 0.48405827348099967 0.441838046179136
0.015531914893617021 0.47357718239450736 0.44187780445509306
0.01574468085106383 0.46424043071385934 0.4462626920116674
0.015957446808510637 0.4585112104687288 0.45245132183735653
0.016170212765957447 0.4522530485753171 0.4475887902234353
0.016382978723404256 0.4449466596157335 0.44992672203224227
0.016595744680851062 0.4398671230488381 0.44992672203224227
0.01680851063829787 0.43465557190877485 0.4454030071799034
0.01702127659574468 0.43259338723533 0.4462354709271319
0.01723404255319149 0.42938125887671635 0.45217341738587347
0.017446808510638297 0.42900979269116646 0.4538348803126526
0.017659574468085106 0.4306736165476911 0.4525701548250495
0.017872340425531916 0.43319084235518 0.45118737246393964
0.018085106382978722 0.43542360911579 0.45188080117244755
0.01829787234042553 0.43728301091987815 0.45193860447141704
0.01851063829787234 0.43827825909326135 0.4531618883515507
0.01872340425531915 0.4394224789371734 0.4565714452821127
0.018936170212765956 0.4429918846265435 0.4537159207306168
0.019148936170212766 0.44406448461162684 0.4534217082244443
0.019361702127659575 0.44191154392816745 0.45426546844934446
0.01957446808510638 0.43965073515140607 0.45457619568760904
0.01978723404255319 0.4408868477234096 0.45395813940160734
0.02 0.4387453642608883 0.4538348803126526
0.02021276595744681 0.4357624867634831 0.4538348803126526
0.020425531914893616 0.432779609266078 0.4538348803126526
0.020638297872340425 0.42979673176867284 0.4538348803126526
0.020851063829787235 0.42681385427126767 0.4538348803126526
0.02106382978723404 0.42383097677386256 0.4538348803126526
0.02127659574468085 0.4203500481308186 0.4545251727395685
0.02148936170212766 0.4153716367199067 0.4572909568567418
0.02170212765957447 0.41040739819684563 0.4575241680774163
0.021914893617021276 0.405458312916501 0.455049625437244
0.022127659574468085 0.4005129503529916 0.4554504843762598
0.022340425531914895 0.3966018174180401 0.4552750236532695
0.0225531914893617 0.3911382838916566 0.4543026421059001
0.02276595744680851 0.3869737587483304 0.4538348803126526
0.02297872340425532 0.3866432983424945 0.45495562214725505
0.023191489361702126 0.3873287581272174 0.45838292107086975
0.023404255319148935 0.38512664062000923 0.45493749662038674
0.023617021276595745 0.3858000217159926 0.45583730663358835
0.023829787234042554 0.38523549314115696 0.4555823421885434
0.02404255319148936 0.38446507083536874 0.4536866936550439
0.02425531914893617 0.38500203020142815 0.45446871884072815
0.02446808510638298 0.3854421104054715 0.4557889594528579
0.024680851063829785 0.3854421104054715 0.45502016598896994
0.024893617021276595 0.38691530780960126 0.452535555574283
0.025106382978723404 0.3936664984241445 0.4553622333686702
0.025319148936170214 0.39138100348790456 0.45312126455053015
0.02553191489361702 0.3995393372824509 0.454695610510618
0.02574468085106383 0.41078692495201247 0.4536678211682933
0.02595744680851064 0.42001105034003633 0.45199070746138
0.026170212765957445 0.4288761961889094 0.45188080117244755
0.026382978723404255 0.43802127779265193 0.451019562499191
0.026595744680851064 0.4481431591029733 0.45334845405921564
0.026808510638297874 0.4540033783786181 0.4505735552355519
0.02702127659574468 0.45481191988275516 0.45068760942180236
0.02723404255319149 0.4574373110185953 0.4514288398295129
0.0274468085106383 0.46136583456685726 0.45215892064471236
0.027659574468085105 0.46521884801670077 0.4528578407425501
0.027872340425531914 0.46271998085052796 0.4528578407425501
0.028085106382978724 0.46262823644357587 0.4553004919036178
0.028297872340425533 0.46479943978998806 0.45651269390166194
0.02851063829787234 0.4669282014579027 0.45676599902296044
0.02872340425531915 0.4681634422856654 0.4574160070145369
0.02893617021276596 0.4697359321216039 0.45961122597918175
0.029148936170212764 0.47252355248512334 0.45859515782264404
0.029361702127659574 0.47474599271663037 0.45676599902296044
0.029574468085106383 0.4756542615354138 0.45644148834245635
0.029787234042553193 0.4780477897339649 0.4555402452658646
0.03 0.48296535488655007 0.45487215739248194
0.03021276595744681 0.4803523952807066 0.4557889594528579
0.030425531914893618 0.4820794386790552 0.4557889594528579
0.030638297872340424 0.4840814777859283 0.45451399282599075
0.030851063829787233 0.48689779165561636 0.450689001388211
0.031063829787234043 0.4903677021110393 0.4466557540032611
0.03127659574468085 0.4931765744643945 0.44636537888201633
0.03148936170212766 0.49438837978707295 0.44798111931225426
0.03170212765957447 0.4956001851097514 0.44959685974249214
0.031914893617021274 0.49677800961008606 0.4494615081407312
0.03212765957446809 0.4978016609672691 0.4491717634690976
0.03234042553191489 0.4978294427358088 0.45084819806526527
0.0325531914893617 0.49876539143998794 0.4489763006569076
0.03276595744680851 0.49972250605346524 0.45178109901042013
0.03297872340425532 0.498820789159845 0.4537507030677062
0.033191489361702124 0.4978869159717944 0.4502677420503434
0.03340425531914894 0.501483013166679 0.44348435568327493
0.03361702127659574 0.499714450359395 0.43643621541390903
0.033829787234042556 0.5001958490429126 0.4329627622141131
0.03404255319148936 0.5026609804883968 0.4323011922763177
0.03425531914893617 0.5013935346709936 0.43040002355021284
0.03446808510638298 0.5014623223246701 0.42940889106008795
0.03468085106382979 0.502175797014359 0.4299199528635111
0.03489361702127659 0.49929528531008466 0.4325126803194169
0.035106382978723406 0.4926479137109564 0.43500544466908986
0.03531914893617021 0.48406774376946343 0.43763263241386047
0.03553191489361702 0.4756931074393912 0.4401450233128822
0.03574468085106383 0.46968356171725806 0.4420383893771002
0.03595744680851064 0.4642315081262299 0.4443446559130276
0.036170212765957444 0.4566362527226634 0.4484875224967913
0.036382978723404256 0.4517704168232975 0.4495237599806483
0.03659574468085106 0.4480037658767311 0.45071498585341613
0.03680851063829787 0.4454905334969446 0.45280934616990476
0.03702127659574468 0.4430653915941951 0.4548045687336455
0.03723404255319149 0.4425621823774172 0.45463683232805285
0.0374468085106383 0.4420589731606392 0.4544690959224602
0.03765957446808511 0.4415557639438612 0.45430135951686756
0.03787234042553191 0.44105255472708327 0.4541336231112749
0.038085106382978726 0.4405493455103053 0.4539658867056823
0.03829787234042553 0.4400461362935273 0.45379815030008963
0.03851063829787234 0.43954292707674936 0.45363041389449693
0.03872340425531915 0.43903971785997137 0.4534626774889043
0.03893617021276596 0.43853650864319343 0.45329494108331164
0.03914893617021276 0.43803329942641545 0.453127204677719
0.039361702127659576 0.43753009020963746 0.45295946827212635
0.03957446808510638 0.4367410121634879 0.4533420361999709
0.03978723404255319 0.43551247508153945 0.4545705732819193
0.04 0.434283937999591 0.4557991103638678
0.04021276595744681 0.4330042992406309 0.4570787491228278
0.04042553191489362 0.43153582069649665 0.4585472276669619
0.040638297872340426 0.4270554584224373 0.455848403644595
0.04085106382978723 0.4224440280853877 0.4566459426993291
0.041063829787234045 0.41808978358481275 0.457743038593063
0.04127659574468085 0.414059220987208 0.4575695194627277
0.04148936170212766 0.4108691777965965 0.4567720086650749
0.04170212765957447 0.40646653466658234 0.4543776692621115
0.041914893617021276 0.4020546846117106 0.4519712055958178
0.04212765957446808 0.39892885838023784 0.4509037616023448
0.042340425531914895 0.3968282287411784 0.4509037616023448
0.0425531914893617 0.394727599102119 0.4509037616023448
0.04276595744680851 0.3937237200432101 0.45039201510916016
0.04297872340425532 0.39393568711033494 0.44992672203224227
0.043191489361702126 0.39616508296283826 0.44992672203224227
0.04340425531914894 0.39099959929923483 0.4486292354379011
0.043617021276595745 0.38879090482440626 0.4479726428920372
0.04382978723404255 0.38935026868588185 0.44747152524092143
0.044042553191489364 0.38935026868588185 0.4461323780442701
0.04425531914893617 0.38939239587901936 0.44895570063258794
0.044468085106382976 0.39595334179619357 0.44989297862075567
0.04468085106382979 0.3930512167098988 0.45180971941226294
0.044893617021276595 0.39280181636117417 0.45398094214386553
0.0451063829787234 0.39615201836055614 0.4556010570020461
0.045319148936170214 0.39985126704198654 0.4548612072657599
0.04553191489361702 0.41114258991868324 0.4526029426904207
0.045744680851063826 0.42257302861842927 0.4509608328065792
0.04595744680851064 0.43276960545482 0.4494578436140666
0.046170212765957445 0.43919493286417705 0.44731606781094757
0.04638297872340425 0.44528238516279844 0.44679844721302747
0.046595744680851064 0.45131038745203744 0.44656660097113365
0.04680851063829787 0.4573383897412762 0.4463347547292399
0.047021276595744683 0.4633663920305152 0.4461029084873461
0.04723404255319149 0.466176737282948 0.44766491609600345
0.047446808510638296 0.4671471526363178 0.45025269037165616
0.04765957446808511 0.4681175679896876 0.4528404646473089
0.047872340425531915 0.46762916724396597 0.4551268402429909
0.04808510638297872 0.46668924186444766 0.4570716933038833
0.048297872340425534 0.46738779409027137 0.4584687977555304
0.04851063829787234 0.46703922701665856 0.46109111455031726
0.048723404255319146 0.46676633890329444 0.463681924073448
0.04893617021276596 0.4685303773588669 0.4642699368919721
0.049148936170212765 0.47001363301074967 0.46485537537200894
0.04936170212765957 0.4711786749278372 0.46543789633055266
0.049574468085106384 0.4726099204967049 0.46318269930947237
0.04978723404255319 0.4741051941488227 0.46000977139670723
0.05 0.47559411935563195 0.45665968968138637
0.05021276595744681 0.47708304456244116 0.4533096079660656
0.050425531914893615 0.4790818051485117 0.4517790556505119
0.05063829787234043 0.481160034996593 0.4505321177416631
0.050851063829787234 0.4843427527618206 0.4484775720881137
0.05106382978723404 0.4889438620711405 0.4455622653493833
0.05127659574468085 0.49613112361880624 0.4419686345755504
0.05148936170212766 0.4952682800130171 0.44012001351961816
0.051702127659574465 0.4932692824911037 0.4393556964482875
0.05191489361702128 0.4944967321974216 0.43996942130144645
0.052127659574468084 0.49572418190373935 0.44058314615460537
0.05234042553191489 0.4969516316100572 0.4411968710077643
0.0525531914893617 0.498179081316375 0.4418105958609232
0.05276595744680851 0.4994065310226928 0.4424243207140821
0.05297872340425532 0.5006339807290107 0.443038045567241
0.05319148936170213 0.5018614304353285 0.44365177042039994
0.053404255319148934 0.501927914241823 0.44435360635484933
0.05361702127659575 0.49961070806002483 0.44523635156696295
0.05382978723404255 0.49729350187822663 0.4461190967790766
0.05404255319148936 0.4949762956964284 0.44700184199119014
0.05425531914893617 0.49265908951463017 0.44788458720330376
0.05446808510638298 0.49034188333283196 0.4487673324154174
0.054680851063829784 0.48802467715103376 0.44965007762753095
0.0548936170212766 0.4857074709692355 0.4505328228396446
0.0551063829787234 0.4833902647874373 0.45141556805175814
0.05531914893617021 0.4797572585257938 0.4520616838714351
0.05553191489361702 0.4746580581348698 0.4524441239007544
0.05574468085106383 0.46955885774394585 0.45282656393007364
0.055957446808510634 0.4644596573530219 0.4532090039593929
0.05617021276595745 0.4593604569620978 0.4535914439887122
0.05638297872340425 0.4542612565711739 0.45397388401803146
0.056595744680851066 0.44916205618024985 0.45435632404735077
0.05680851063829787 0.4440628557893259 0.45473876407667
0.05702127659574468 0.4421976370510648 0.4551085225462417
0.05723404255319149 0.44109736044981646 0.45547528141332455
0.0574468085106383 0.4404779374450708 0.45562815389593075
0.057659574468085104 0.4427000905878142 0.454517077324559
0.05787234042553192 0.44482163666291397 0.4538348803126526
0.05808510638297872 0.4467831521667066 0.4538348803126526
0.05829787234042553 0.44774919108583633 0.45157411702094735
0.05851063829787234 0.44618566159548 0.4509037616023448
0.05872340425531915 0.4450415241817294 0.450090017379556
0.058936170212765954 0.44483998280593484 0.44854659971055066
0.05914893617021277 0.44406090184785446 0.44699560332193444
0.05936170212765957 0.4433040388067542 0.44699560332193444
0.059574468085106386 0.4425191305219089 0.44699560332193444
0.05978723404255319 0.4410445071822971 0.44770620218135077
0.06 0.4389632777726688 0.44927369594480715
0.06021276595744681 0.43750822303745823 0.45145627804762317
0.06042553191489362 0.43545290127565367 0.4512900323906958
0.06063829787234042 0.4312868018397847 0.45165558337004885
0.060851063829787236 0.42536488497775826 0.45322880319989073
0.06106382978723404 0.4207866690869521 0.45475487516349267
0.06127659574468085 0.41444370059275165 0.45558339917480695
0.06148936170212766 0.4076614915035595 0.4557889594528579
0.06170212765957447 0.40160376215334803 0.4558473969672754
0.06191489361702127 0.3992230324916548 0.4561579269231484
0.062127659574468086 0.3968423028299616 0.45646845687902143
0.06234042553191489 0.3944615731682684 0.45677898683489443
0.0625531914893617 0.3920808435065752 0.4570895167907674
0.0627659574468085 0.389700113844882 0.4574000467466404
0.06297872340425532 0.3873193841831887 0.45771057670251347
0.06319148936170213 0.3849386545214955 0.45802110665838647
0.06340425531914894 0.38255792485980233 0.45833163661425946
0.06361702127659574 0.3801771951981091 0.45864216657013246
0.06382978723404255 0.37921610474559814 0.4576287734453924
0.06404255319148935 0.37873049847657625 0.45617195463832677
0.06425531914893617 0.3786028334147533 0.46025926382585286
0.06446808510638298 0.3825089979069441 0.4609541659469228
0.06468085106382979 0.3818281302706548 0.45969711773326827
0.06489361702127659 0.38011315793791023 0.45919367622554924
0.0651063829787234 0.38345914499382594 0.45823877994597434
0.06531914893617022 0.3900194108703054 0.45682757850009625
0.06553191489361702 0.40041859754385756 0.4544874365935178
0.06574468085106383 0.4107364069463653 0.45308133638952874
0.06595744680851064 0.419882433702214 0.4536193379634022
0.06617021276595744 0.42902846045806264 0.45415733953727566
0.06638297872340425 0.43817448721391133 0.4546953411111491
0.06659574468085107 0.44732051396976064 0.45523334268502263
0.06680851063829787 0.45646654072560927 0.4557713442588961
0.06702127659574468 0.45918470577958975 0.4563936361420152
0.06723404255319149 0.4616329376005565 0.4570056940972569
0.06744680851063829 0.4640040567656965 0.4575984738885418
0.06765957446808511 0.4663751759308366 0.4581912536798268
0.06787234042553192 0.4684904738641915 0.45893334712309347
0.06808510638297872 0.4684904738641915 0.46091006389005645
0.06829787234042553 0.4684904738641915 0.46069384983406203
0.06851063829787234 0.4690998169583182 0.4590877746391415
0.06872340425531914 0.47089371721382034 0.457743038593063
0.06893617021276596 0.4728735806462335 0.457743038593063
0.06914893617021277 0.4758019843823424 0.45716332935404885
0.06936170212765957 0.4795896114783951 0.45614066179593293
0.06957446808510638 0.4802149487054226 0.45552667210660047
0.06978723404255319 0.48164646043707027 0.4538348803126526
0.06999999999999999 0.4839217717163693 0.4528282039653343
0.07021276595744681 0.4831460674157304 0.4481801177231311
0.07042553191489362 0.48373951875423604 0.4450415241817294
0.07063829787234042 0.48725148772835947 0.4445483691011826
0.07085106382978723 0.4890443617753026 0.4401563263312165
0.07106382978723404 0.4925996414873225 0.4401563263312165
0.07127659574468086 0.4936796071708007 0.4393931822771718
0.07148936170212766 0.4944835903212542 0.4409495496643
0.07170212765957447 0.4952906271718648 0.44085015072671163
0.07191489361702127 0.49635251442998884 0.4396842193640386
0.07212765957446808 0.4978016609672691 0.44094284603820266
0.07234042553191489 0.4978016609672691 0.43846638480578054
0.0725531914893617 0.4976778073494988 0.43857380804432217
0.07276595744680851 0.49753916638374857 0.4389897309415728
0.07297872340425532 0.49740052541799834 0.43940565383882346
0.07319148936170213 0.4972618844522481 0.43982157673607414
0.07340425531914893 0.49712324348649795 0.4402374996333248
0.07361702127659574 0.4969846025207477 0.44065342253057543
0.07382978723404256 0.4968459615549975 0.44106934542782616
0.07404255319148936 0.49767802852864795 0.4408488968574919
0.07425531914893617 0.49868669326834986 0.4405126752775913
0.07446808510638298 0.49969535800805176 0.4401764536976907
0.07468085106382978 0.49387472974268376 0.4399781138959198
0.0748936170212766 0.48761924478828345 0.4397885537457864
0.07510638297872341 0.4813637598338836 0.439598993595653
0.07531914893617021 0.47510827487948365 0.4394094334455197
0.07553191489361702 0.4688527899250837 0.4392198732953863
0.07574468085106383 0.4640099061821591 0.43987999238349973
0.07595744680851063 0.45955187305289336 0.4407715990093529
0.07617021276595745 0.45580223464939806 0.43880440116892105
0.07638297872340426 0.45270484681057066 0.4353731244353563
0.07659574468085106 0.4511509621669263 0.43640904753111925
0.07680851063829787 0.44946945419604234 0.43753005284504193
0.07702127659574468 0.44731397625119657 0.43896703814160565
0.0772340425531915 0.44621774150709703 0.4422907340204635
0.0774468085106383 0.44444187312039063 0.4438757903572449
0.07765957446808511 0.44406448461162684 0.44406448461162684
0.07787234042553191 0.4448003343355748 0.44627203378347075
0.07808510638297872 0.4472484840799688 0.4477312566213477
0.07829787234042553 0.4464030214055656 0.4471878321488013
0.07851063829787235 0.4468373592128252 0.44863319424392123
0.07872340425531915 0.44525735466017136 0.4515570554547846
0.07893617021276596 0.44413953632698444 0.45188080117244755
0.07914893617021276 0.44406448461162684 0.4575835581987435
0.07936170212765957 0.4381524200893772 0.4557142188004069
0.07957446808510638 0.43624816805080613 0.45293451321340417
0.0797872340425532 0.43624816805080613 0.45396321682593677
0.08 0.4358809462369823 0.4546283089758433
0.08021276595744681 0.43453308291591297 0.45431286832327694
0.08042553191489361 0.43408890923951204 0.4563800690734535
0.08063829787234042 0.42960659118534245 0.457743038593063
0.08085106382978724 0.4244560638805227 0.4573386968992115
0.08106382978723405 0.42069082076894576 0.4581186296184426
0.08127659574468085 0.41386621263327594 0.46065916485423253
0.08148936170212766 0.4063589974175984 0.4626878789402951
0.08170212765957446 0.4032771391526483 0.46246810091042856
0.08191489361702127 0.40029031330345877 0.46341266666723
0.08212765957446809 0.3960577846351084 0.46274458773270155
0.0823404255319149 0.39423546653639474 0.46032978868371716
0.0825531914893617 0.3928072212954667 0.45969711773326827
0.08276595744680851 0.39150888003526607 0.45737959565049796
0.08297872340425531 0.3904731448573774 0.45759720199167
0.08319148936170212 0.3929957755877675 0.4586325277036573
0.08340425531914894 0.3856813078677362 0.4558786585012072
0.08361702127659575 0.38637704517339494 0.457743038593063
0.08382978723404255 0.38446507083536874 0.457743038593063
0.08404255319148936 0.38459377563143055 0.45787174338912473
0.08425531914893616 0.3852570125264293 0.4583498824050812
0.08446808510638298 0.3851920176870728 0.4572506302574298
0.08468085106382979 0.38739618954567656 0.4587200781631655
0.0848936170212766 0.3884336737146965 0.4583742501068256
0.0851063829787234 0.3922897642857958 0.45735054738710074
0.08531914893617021 0.39785820669944105 0.4558840988253125
0.08553191489361701 0.4065289798889876 0.45382024054423253
0.08574468085106383 0.41825267405205546 0.4523219661380656
0.08595744680851064 0.42684033121272796 0.45078290864802895
0.08617021276595745 0.434838456207622 0.44992672203224227
0.08638297872340425 0.4428470982366893 0.44992672203224227
0.08659574468085106 0.44880902132972467 0.4489965695062781
0.08680851063829788 0.4537522473197902 0.44922027365693235
0.08702127659574468 0.4579287564961512 0.4524379548817122
0.08723404255319149 0.4599645148858197 0.4574087921523737
0.0874468085106383 0.4636640689249098 0.4529754265650124
0.0876595744680851 0.46462796938917345 0.45481191988275516
0.08787234042553191 0.4664993949586283 0.45481191988275516
0.08808510638297873 0.4626331443333695 0.45188325511734434
0.08829787234042553 0.46458231558378116 0.45274839772479836
0.08851063829787234 0.46469400907213 0.45101545509069363
0.08872340425531915 0.46539088466397893 0.45188080117244755
0.08893617021276595 0.4663602940568495 0.45188080117244755
0.08914893617021276 0.4721506378585371 0.4526247840306418
0.08936170212765958 0.47114140125011217 0.45565249385591655
0.08957446808510638 0.4711008802831862 0.4583993658718526
0.08978723404255319 0.4733556444299179 0.45969711773326827
0.09 0.4753297508549097 0.45921332321792013
0.0902127659574468 0.4762009930441115 0.4565813823407938
0.09042553191489362 0.4789435998837123 0.4531521499941577
0.09063829787234043 0.48100499537627456 0.4506957311661695
0.09085106382978723 0.48575366772820383 0.4480535224914956
0.09106382978723404 0.4914916043997959 0.44599142999303615
0.09127659574468085 0.4945821391537284 0.4467072002187016
0.09148936170212765 0.4975770642598634 0.4485491370363036
0.09170212765957447 0.5005055259798514 0.4495252909429663
0.09191489361702128 0.5027086554672869 0.44942730392243857
0.09212765957446808 0.5058376777953498 0.44894968246213973
0.09234042553191489 0.5076163483416684 0.44941605641050436
0.0925531914893617 0.5060820914309913 0.45095257336664474
0.0927659574468085 0.5056179775280898 0.4496310639160975
0.09297872340425532 0.5056179775280898 0.4498293890947441
0.09319148936170213 0.5056179775280898 0.4488754774880603
0.09340425531914893 0.5056179775280898 0.44870274079165146
0.09361702127659574 0.5056179775280898 0.44894968246213973
0.09382978723404255 0.5056179775280898 0.4497497482033721
0.09404255319148937 0.5063710386830464 0.44842059972232934
0.09425531914893617 0.5051717832612956 0.4479726428920372
0.09446808510638298 0.5059961933527556 0.4452621321025007
0.09468085106382979 0.5046810370240343 0.441512511179416
0.09489361702127659 0.5030699901923398 0.43896850994012654
0.0951063829787234 0.4973210341725883 0.43887297527166047
0.09531914893617022 0.48821059949504314 0.4400117796063537
0.09553191489361702 0.4805982952183402 0.43934933502149126
0.09574468085106383 0.47251596815701435 0.4414199337538823
0.09595744680851064 0.4655272905939831 0.44281287153005205
0.09617021276595744 0.4601799762870757 0.443576773573896
0.09638297872340426 0.4554507721423651 0.4443275299877459
0.09659574468085107 0.45099858180482244 0.4453944119287794
0.09680851063829787 0.4466250519586409 0.4471808790035812
0.09702127659574468 0.4425670885366228 0.4488629563779895
0.09723404255319149 0.4371982919939721 0.4479726428920372
0.09744680851063829 0.43625771891092563 0.4479726428920372
0.09765957446808511 0.43624816805080613 0.44531623379577273
0.09787234042553192 0.43759594665460044 0.4436937455779349
0.09808510638297872 0.44092132724765637 0.4430874450415241
0.09829787234042553 0.44202793149484604 0.44255768826818503
0.09851063829787234 0.44055765889807813 0.44268611247466244
0.09872340425531914 0.4401563263312165 0.4437215549851959
0.09893617021276596 0.43815130956698656 0.44272780676880685
0.09914893617021277 0.43580964659823784 0.44211040547142155
0.09936170212765957 0.4352711284807034 0.4436294464576382
0.09957446808510638 0.4352711284807034 0.4448736102277053
0.09978723404255319 0.43267442414925367 0.4459070922922126
0.1 0.4323400097703958 0.4460185637518319
0.10021276595744681 0.4323400097703958 0.44795221361442084
0.10042553191489362 0.4303441254550031 0.4479726428920372
0.10063829787234042 0.4292399842608709 0.44822600309086275
0.10085106382978723 0.4269271366460245 0.4510356804208094
0.10106382978723404 0.4228352879620681 0.45205864259179857
0.10127659574468086 0.4185018748994513 0.452630516650628
0.10148936170212766 0.41391443523934857 0.45244004268524785
0.10170212765957447 0.41057265396374215 0.4528977366867783
0.10191489361702127 0.4069291480560385 0.4509037616023448
0.10212765957446808 0.40307610787988696 0.45014104403129035
0.10234042553191489 0.3987853744886376 0.44938712561826394
0.1025531914893617 0.39618524687632156 0.4518893987730041
0.10276595744680851 0.39358221688485845 0.45057430186937514
0.10297872340425532 0.3916972005365139 0.44855682975171274
0.10319148936170212 0.3913043478260869 0.44955966968705524
0.10340425531914893 0.3893754518456922 0.45121265268583877
0.10361702127659575 0.3890666868073991 0.45049388578920774
0.10382978723404256 0.38935026868588185 0.45067736348566234
0.10404255319148936 0.38935026868588185 0.4509037616023448
0.10425531914893617 0.38935026868588185 0.4509037616023448
0.10446808510638297 0.391194032468717 0.4536694072765977
0.10468085106382978 0.39033615918247033 0.4538348803126526
0.1048936170212766 0.39242381634732487 0.45392983294674294
0.1051063829787234 0.39558768164553115 0.4557889594528579
0.10531914893617021 0.4005098488384203 0.4557889594528579
0.10553191489361702 0.4102175064099763 0.4554573478723472
0.10574468085106382 0.4190318331834244 0.4538348803126526
0.10595744680851064 0.42981190950545023 0.4541798948165188
0.10617021276595745 0.4382403213065578 0.45490355800585713
0.10638297872340426 0.446074944516522 0.45239751133984385
0.10659574468085106 0.4508565788207314 0.45264307008853283
0.10680851063829787 0.45699556375233535 0.44894968246213973
0.10702127659574467 0.460272440697981 0.44906474705508226
0.1072340425531915 0.4647510608537454 0.449757976762278
0.1074468085106383 0.4660075937332042 0.4493979210414602
0.1076595744680851 0.46833047862505145 0.4514484578229865
0.10787234042553191 0.46882449340730326 0.4522098169037127
0.10808510638297872 0.46519153440951055 0.4516394030910912
0.10829787234042552 0.46585808255372274 0.45455886336913887
0.10851063829787234 0.4660914458204602 0.45534401054933166
0.10872340425531915 0.465418569071075 0.4538348803126526
0.10893617021276596 0.46620167349033276 0.45350015907899915
0.10914893617021276 0.46594844907751953 0.45324693466618593
0.10936170212765957 0.46564196844464917 0.45204602775397834
0.10957446808510639 0.46609240588135936 0.4519401757623465
0.1097872340425532 0.4680722068767387 0.4527173351473532
0.11 0.47034298672918723 0.45126329688411554
0.1102127659574468 0.47277949434312283 0.4509037616023448
0.11042553191489361 0.47484789997041715 0.4509037616023448
0.11063829787234042 0.4800617923669968 0.4509037616023448
0.11085106382978724 0.4811919882755251 0.4492089747127553
0.11106382978723404 0.4857261142109132 0.44894968246213973
0.11127659574468085 0.4870324746953242 0.4499049710314257
0.11148936170212766 0.4920047357208648 0.44995937811934783
0.11170212765957446 0.4941536194805928 0.4509037616023448
0.11191489361702127 0.49682462139716654 0.4510391254145955
0.11212765957446809 0.4964419440077725 0.45188080117244755
0.1123404255319149 0.49561732665674085 0.45237865743896716
0.1125531914893617 0.4981104008611337 0.45445236010038176
0.1127659574468085 0.4984137560147453 0.45323434779447247
0.11297872340425531 0.4978016609672691 0.4472720411671288
0.11319148936170213 0.5001974773081823 0.44599985071809456
0.11340425531914894 0.5000175821837999 0.44699560332193444
0.11361702127659574 0.49897209759146105 0.4481660399461264
0.11382978723404255 0.49975574010747437 0.44605191420550705
0.11404255319148936 0.49856552516547986 0.44406448461162684
0.11425531914893616 0.5010511668142134 0.4460141881197932
0.11446808510638298 0.5033886635554987 0.4462937985842179
0.11468085106382979 0.5013901780644072 0.44526065697733946
0.1148936170212766 0.4999150368592162 0.4458592670000901
0.1151063829787234 0.4953468662052957 0.4486638880931392
0.11531914893617021 0.4835328146436969 0.45083930373101705
0.11553191489361703 0.480979309627364 0.45478153721873216
0.11574468085106383 0.47377395392303834 0.45422071855383167
0.11595744680851064 0.4678655493733977 0.4574305763476661
0.11617021276595745 0.4641783030541746 0.4559909657176611
0.11638297872340425 0.4628505161572166 0.45632143959567895
0.11659574468085106 0.4602596166099897 0.4542543099821404
0.11680851063829788 0.4515801360437062 0.45302964938754514
0.11702127659574468 0.4506571708924174 0.45355705804542445
0.11723404255319149 0.44973420574112855 0.45408446670330377
0.1174468085106383 0.4488112405898397 0.45461187536118314
0.1176595744680851 0.44788827543855086 0.45513928401906245
0.11787234042553191 0.446965310287262 0.4556666926769418
0.11808510638297873 0.4460423451359731 0.4561941013348212
0.11829787234042553 0.44511937998468426 0.4567215099927005
0.11851063829787234 0.44573128561773745 0.4533171918429198
0.11872340425531915 0.44338777383880135 0.45240695915505363
0.11893617021276595 0.441133365901319 0.45326975605768416
0.11914893617021277 0.441133365901319 0.4538348803126526
0.11936170212765958 0.440355864835337 0.45357571329065866
0.11957446808510638 0.4387063944147556 0.4529838775484862
0.11978723404255319 0.44181688013916387 0.45376149897958823
0.12 0.4376497064815222 0.4533392470915527
0.1202127659574468 0.43307118332674377 0.4528988184115092
0.12042553191489362 0.4310284637733748 0.453239271670404
0.12063829787234043 0.42898574422000585 0.45357972492929877
0.12085106382978723 0.42643319164496846 0.45400515035847167
0.12106382978723404 0.42235555255089047 0.4546847568741513
0.12127659574468085 0.4183835879053814 0.4542770887837742
0.12148936170212765 0.41371234823350045 0.4544114485541244
0.12170212765957447 0.4082745713292972 0.45563483726319876
0.12191489361702128 0.40542864402616274 0.454923355437415
0.12212765957446808 0.40004933008116383 0.45340232796093827
0.12234042553191489 0.3963082519367469 0.4526743034545443
0.1225531914893617 0.3935860631989616 0.45240208458076575
0.12276595744680852 0.39086387446117615 0.45212986570698727
0.12297872340425532 0.38805361736965804 0.45164109236285677
0.12319148936170213 0.38446507083536874 0.4489053107727274
0.12340425531914893 0.38435309641200327 0.44791665568035444
0.12361702127659574 0.3820812083650913 0.44688815748941635
0.12382978723404255 0.3788484927639521 0.44614139342643133
0.12404255319148937 0.38044357249377647 0.44693893329134354
0.12425531914893617 0.38203865222360067 0.4477364731562557
0.12446808510638298 0.3812941521033222 0.4491894824838785
0.12468085106382978 0.3811365926335954 0.44992672203224227
0.12489361702127659 0.3840493346109088 0.4511844132751662
0.1251063829787234 0.3868320943240174 0.4525757931317205
0.12531914893617022 0.3918665068623565 0.45509299940089004
0.125531914893617 0.40047264533505667 0.4525826401778515
0.12574468085106383 0.4149456984206199 0.45016161246266023
0.12595744680851065 0.425611570744186 0.448145883213156
0.12617021276595744 0.43402922067084426 0.44891657393217016
0.12638297872340426 0.44044341022073336 0.4479726428920372
0.12659574468085105 0.4485064072568923 0.4480793957650082
0.12680851063829787 0.4535576068794607 0.44947450706482267
0.1270212765957447 0.4575025482442852 0.45188080117244755
0.12723404255319148 0.4606486911128563 0.4521979922989769
0.1274468085106383 0.46727996829825025 0.45324548506377293
0.1276595744680851 0.4707099717549651 0.4538348803126526
0.12787234042553192 0.46601378583729436 0.45592531585942025
0.1280851063829787 0.4655593551538837 0.45598028164768795
0.12829787234042553 0.4649139165332435 0.45481191988275516
0.12851063829787235 0.46955819318873937 0.4562335991984576
0.12872340425531914 0.46907719617918425 0.4552030680927503
0.12893617021276596 0.47360087229235825 0.453108453740033
0.12914893617021275 0.4770844362484468 0.45376841573043
0.12936170212765957 0.478264567333065 0.4538348803126526
0.1295744680851064 0.4793991685501842 0.4539961397275168
0.12978723404255318 0.48147485409456603 0.45508179490525563
0.13 0.48287907921269524 0.4509037616023448
0.1302127659574468 0.4817683992069629 0.4510478643352043
0.13042553191489362 0.4884748521291639 0.4527244775657546
0.13063829787234044 0.48498179764458116 0.4520525393041972
0.13085106382978723 0.485755938416361 0.45106438545718336
0.13106382978723405 0.4911500392667729 0.4509037616023448
0.13127659574468084 0.49364218370862345 0.44664686119742014
0.13148936170212766 0.4970268864978132 0.4475852556573091
0.13170212765957448 0.5006212862082456 0.44938245551252537
0.13191489361702127 0.5017098192476794 0.446399206484432
0.1321276595744681 0.5009537100394374 0.4465537425982133
0.13234042553191488 0.5015498295045654 0.4461785534949459
0.1325531914893617 0.500828621528685 0.4451373660328375
0.1327659574468085 0.49979326737092034 0.44598103648838594
0.13297872340425532 0.4997910855807221 0.4470309487951822
0.13319148936170214 0.5014463286353179 0.4488618522580192
0.13340425531914893 0.49893478685408404 0.4481287292087494
0.13361702127659575 0.49975574010747437 0.44916973051637027
0.13382978723404254 0.49975574010747437 0.44935758477962934
0.13404255319148936 0.4991208549944676 0.44829008544854054
0.13425531914893618 0.4963138505302262 0.44906412941883533
0.13446808510638297 0.49166273798417304 0.4494219073069933
0.1346808510638298 0.4870116254381192 0.44977968519515127
0.13489361702127659 0.48236051289206605 0.4501374630833092
0.1351063829787234 0.4777094003460122 0.4504952409714672
0.13531914893617022 0.47305828779995845 0.4508530188596252
0.13553191489361702 0.46840717525390524 0.45121079674778314
0.13574468085106384 0.46375606270785147 0.45156857463594113
0.13595744680851063 0.4589637535472478 0.45188080117244755
0.13617021276595745 0.45320362832127675 0.45188080117244755
0.13638297872340424 0.4486655561262588 0.4512377521632097
0.13659574468085106 0.44397576372044595 0.4515077295226426
0.13680851063829788 0.44211040547142155 0.45315326798846395
0.13702127659574467 0.43866271915228333 0.4538348803126526
0.1372340425531915 0.43646884738952346 0.4515657996184968
0.13744680851063829 0.43624816805080613 0.4492703227290428
0.1376595744680851 0.43624816805080613 0.44894968246213973
0.13787234042553193 0.43905288139322257 0.44988458690961186
0.13808510638297872 0.4402152342594134 0.44992672203224227
0.13829787234042554 0.4429973943569644 0.44992672203224227
0.13851063829787233 0.4419477197026241 0.4494386647258498
0.13872340425531915 0.4415806021024219 0.4474428395230374
0.13893617021276597 0.44190265139105234 0.4495420792873756
0.13914893617021276 0.43917928676111373 0.44857442438107276
0.13936170212765958 0.4397722107616465 0.4446574086121596
0.13957446808510637 0.44067006062163855 0.4464818690315124
0.1397872340425532 0.438922445648645 0.44771580177956843
0.13999999999999999 0.4373142829476443 0.44610763907856754
0.1402127659574468 0.4379700239217485 0.4408048496459529
0.14042553191489363 0.4382022471910112 0.4424498151316307
0.14063829787234042 0.4362783995222517 0.44632408929423567
0.14085106382978724 0.43191537914978384 0.4492327695425476
0.14106382978723403 0.42755235877731645 0.4521414497908591
0.14127659574468085 0.42315730088514203 0.4549417041341986
0.14148936170212767 0.4184030843429668 0.45652644298159034
0.14170212765957446 0.41371991252576207 0.45751339748577696
0.14191489361702128 0.4092715207946305 0.45652486598997
0.14212765957446807 0.4055382430458522 0.4559295255634491
0.1423404255319149 0.4038881207268171 0.45647956633646075
0.1425531914893617 0.4019370371372185 0.4564020705129273
0.1427659574468085 0.3989431859195654 0.4555003299434967
0.14297872340425533 0.3929489094137807 0.45400176081705046
0.14319148936170212 0.391641224456112 0.45575536913288506
0.14340425531914894 0.39050645733932393 0.45676599902296044
0.14361702127659573 0.38903857102436706 0.4569218478537178
0.14382978723404255 0.38767489538908906 0.45760368567135673
0.14404255319148937 0.38778340225246155 0.457355825886278
0.14425531914893616 0.38827008173226973 0.4568691464064698
0.14446808510638298 0.38906226734048216 0.45745503724766334
0.14468085106382977 0.3873574685195417 0.45641450514883636
0.1448936170212766 0.38844031799532913 0.45713640479936124
0.1451063829787234 0.3907364769843914 0.457743038593063
0.1453191489361702 0.3956636941901159 0.4570164808657249
0.14553191489361703 0.40669032204259226 0.4574985941611058
0.14574468085106382 0.4156354674528475 0.45716630181358187
0.14595744680851064 0.4260689629107897 0.4559086033493967
0.14617021276595746 0.4350385868925933 0.4559286668557438
0.14638297872340425 0.43841535703703255 0.45810423675743406
0.14659574468085107 0.444352286690461 0.45839980941758846
0.14680851063829786 0.44991819133514444 0.45701665693830945
0.14702127659574468 0.45405108327772953 0.45481191988275516
0.14723404255319147 0.45903729729052883 0.45481191988275516
0.1474468085106383 0.46178422076903153 0.45481191988275516
0.14765957446808511 0.4645311442475343 0.45481191988275516
0.1478723404255319 0.46727806772603664 0.45481191988275516
0.14808510638297873 0.4692452523812545 0.4519255564041459
0.14829787234042552 0.4694685137891158 0.4496013756271487
0.14851063829787234 0.46774747792211985 0.4491837260901706
0.14872340425531916 0.46896251849683157 0.44992672203224227
0.14893617021276595 0.47178067062941553 0.44992672203224227
0.14914893617021277 0.47315339032927434 0.45103812895939255
0.14936170212765956 0.47322838710066367 0.45425874991204734
0.14957446808510638 0.47598237325502646 0.45318415194260847
0.1497872340425532 0.4782569449938618 0.45448362364515066
0.15 0.4799646413357829 0.4550380373439389
0.15021276595744681 0.47973978786769 0.45310878010873507
0.1504255319148936 0.4803180411411541 0.4538348803126526
0.15063829787234043 0.4796308480167894 0.4538348803126526
0.15085106382978725 0.4829613676354997 0.4518540308379726
0.15106382978723404 0.4850104315001315 0.44806235794784105
0.15127659574468086 0.4875319162234722 0.4460257832569784
0.15148936170212765 0.4900775901732655 0.44236831083943035
0.15170212765957447 0.49155045017991317 0.4413324587379406
0.15191489361702126 0.49322964054579077 0.4382397544740101
0.15212765957446808 0.4945958106794245 0.44046201600620005
0.1523404255319149 0.49411929223975515 0.436100405333772
0.1525531914893617 0.4962050441975546 0.43429408891060084
0.15276595744680851 0.4960169755591597 0.43429408891060084
0.1529787234042553 0.4966997777933285 0.43599848084313003
0.15319148936170213 0.49591632649019424 0.4344315782368613
0.15340425531914895 0.4939077482342285 0.43623392250343634
0.15361702127659574 0.5033916327001451 0.43740671807940174
0.15382978723404256 0.49773979070352614 0.44112099184857045
0.15404255319148935 0.4929164631167562 0.44026890608573344
0.15425531914893617 0.49268321242016877 0.44222703081971526
0.154468085106383 0.4914762306820009 0.44325872727667404
0.15468085106382978 0.4934361292456296 0.4442931713322414
0.1548936170212766 0.491653053050616 0.4456142651738047
0.1551063829787234 0.48821994007079517 0.44699560332193444
0.15531914893617021 0.48038000376833745 0.4466004513723069
0.155531914893617 0.47407361310847984 0.4460185637518319
0.15574468085106383 0.4674704770991021 0.4470063426206813
0.15595744680851065 0.45979327187126556 0.4479726428920372
0.15617021276595744 0.4545061093899869 0.45079750493325405
0.15638297872340426 0.4522668840109624 0.4516759272793746
0.15659574468085105 0.4493234814774605 0.4553790710685722
0.15680851063829787 0.4493512806441929 0.45567508196482925
0.1570212765957447 0.44992672203224227 0.4555501780985546
0.15723404255319148 0.44992672203224227 0.45815317563581986
0.1574468085106383 0.44992672203224227 0.46045637805156747
0.1576595744680851 0.44992672203224227 0.4625840802450387
0.15787234042553192 0.45076248771028443 0.45928517373140704
0.15808510638297874 0.4492296317983573 0.45788301326117176
0.15829787234042553 0.45072675317004285 0.45596596788515986
0.15851063829787235 0.4499591105126023 0.4510657040041449
0.15872340425531914 0.4470133502043338 0.4518453074076488
0.15893617021276596 0.44778175027403105 0.44986309115957357
0.15914893617021275 0.4449283828382077 0.4490628238056614
0.15936170212765957 0.4437436428173452 0.44960588023796066
0.1595744680851064 0.4414809208988872 0.44839229927372676
0.15978723404255318 0.4386640225625848 0.45044198623077125
0.16 0.43692286926107665 0.45188080117244755
0.1602127659574468 0.4358932542739132 0.4515258873955546
0.16042553191489362 0.4344642074594183 0.4521141431342725
0.16063829787234044 0.43058305273168335 0.454746212515591
0.16085106382978723 0.42437648917188653 0.45630201324419056
0.16106382978723405 0.4198844024337029 0.4584741710885248
0.16127659574468084 0.41615353189714227 0.45781617481440534
0.16148936170212766 0.4099607198019425 0.45676599902296044
0.16170212765957448 0.4034442018764005 0.45602102924938875
0.16191489361702127 0.4052613603649013 0.4533817765020935
0.1621276595744681 0.3982760625225708 0.4511503121080933
0.16234042553191488 0.396253312994053 0.4518170338549944
0.1625531914893617 0.39232878376317293 0.4509156106940907
0.1627659574468085 0.39037661061805884 0.4500253267563911
0.16297872340425532 0.39108534577237264 0.45209980322616183
0.16319148936170214 0.38935026868588185 0.45315548570377284
0.16340425531914893 0.38889672732350655 0.4492464099886794
0.16361702127659575 0.38739618954567656 0.44670793848805257
0.16382978723404254 0.3870469126355571 0.4456692868417125
0.16404255319148936 0.3868240517396984 0.4450415241817294
0.16425531914893618 0.3892201409513767 0.4459534998845794
0.16446808510638297 0.3892479482479837 0.44648150342740867
0.1646808510638298 0.38739618954567656 0.4483094160666932
0.16489361702127658 0.38865380144571415 0.44992672203224227
0.1651063829787234 0.3913951731833214 0.45128999169720213
0.16531914893617022 0.39670777823635595 0.45114306936575305
0.16553191489361702 0.4069112453402839 0.4509037616023448
0.16574468085106384 0.41397670193284053 0.4517513685764961
0.16595744680851063 0.42460721429907755 0.4500891799378059
0.16617021276595745 0.43981829947421675 0.4518357309248476
0.16638297872340424 0.4393772861766092 0.45096976140750994
0.16659574468085106 0.4456906654685795 0.45257963733390005
0.16680851063829788 0.4531075088320619 0.45008006048969407
0.16702127659574467 0.4601097957979149 0.4509037616023448
0.1672340425531915 0.4627002086514346 0.4509037616023448
0.16744680851063828 0.4661933676930195 0.4509037616023448
0.1676595744680851 0.4682571880413069 0.4512756384759538
0.16787234042553192 0.4682030190207164 0.45145930303458826
0.16808510638297872 0.46699828204181004 0.45182753623799227
0.16829787234042554 0.467513434294089 0.45386549167523504
0.16851063829787233 0.467513434294089 0.45481191988275516
0.16872340425531915 0.46813245437403345 0.4554309399626998
0.16893617021276597 0.46916856814684693 0.45714514801816875
0.16914893617021276 0.46946751343429405 0.4584790273012855
0.16936170212765958 0.47264917347474245 0.4555384181227171
0.16957446808510637 0.47423170299473466 0.45309985732269464
0.1697872340425532 0.47863643374248765 0.45371458523408614
0.17 0.47835922554936455 0.4511988295547866
0.1702127659574468 0.4782608695652173 0.4518352284720528
0.17042553191489362 0.4802726335831154 0.451869264196909
0.17063829787234042 0.4851001465559355 0.4509037616023448
0.17085106382978724 0.4849988645278821 0.4504986334901313
0.17106382978723403 0.48491800069060487 0.44683662458098006
0.17127659574468085 0.48900830483634583 0.44623194563357393
0.17148936170212767 0.48955214975660155 0.4459079134814231
0.17170212765957446 0.49292254701170135 0.4440675265590992
0.17191489361702128 0.49682462139716654 0.444107963220051
0.17212765957446807 0.49814612992235313 0.4424548744265056
0.1723404255319149 0.498756006841742 0.44406448461162684
0.1725531914893617 0.49836063104924355 0.44406448461162684
0.1727659574468085 0.4969269046865825 0.44468174989522324
0.17297872340425532 0.4978405583199992 0.4457058496793744
0.17319148936170212 0.49877870053737183 0.4445853828301592
0.17340425531914894 0.49877870053737183 0.44483845066723604
0.17361702127659576 0.49795121849793084 0.44752397030005203
0.17382978723404255 0.4969311186809735 0.44623155831944583
0.17404255319148937 0.49589953610394566 0.4497189049247157
0.17425531914893616 0.495847581827064 0.44994959851855876
0.17446808510638298 0.4959705132944731 0.45279637500884556
0.17468085106382977 0.4978016609672691 0.45215974265807457
0.1748936170212766 0.49743872779944925 0.4557889594528579
0.1751063829787234 0.49291429163896106 0.4555091848677443
0.1753191489361702 0.48485883645423805 0.4540344611528256
0.17553191489361702 0.47421916694217653 0.45559477868881854
0.17574468085106382 0.465930325176492 0.45742302000710056
0.17595744680851064 0.45878209577366924 0.45752282363484104
0.17617021276595746 0.4532199320442746 0.45829190692840166
0.17638297872340425 0.44756041841892874 0.4572697778704003
0.17659574468085107 0.4450415241817294 0.45835912095075504
0.17680851063829786 0.44150569669318146 0.4585185085704189
0.17702127659574468 0.43853044215019743 0.457743038593063
0.1772340425531915 0.4374939892158441 0.45632652264272877
0.1774468085106383 0.43722520762090866 0.4557889594528579
0.1776595744680851 0.43886666543894487 0.45414750163482154
0.1778723404255319 0.4423683411297338 0.4554294074969627
0.17808510638297873 0.4455920789478131 0.4516145696090428
0.17829787234042552 0.44691378246982144 0.45358941775631356
0.17851063829787234 0.44603774417922654 0.45096130288452874
0.17872340425531916 0.44807280329791843 0.45390165391657344
0.17893617021276595 0.4506294717854283 0.45542323969696924
0.17914893617021277 0.4479726428920372 0.45218147163402406
0.17936170212765956 0.447554247812659 0.4534164852332745
0.17957446808510638 0.44469474560930244 0.45188080117244755
0.1797872340425532 0.441133365901319 0.4512373822025621
0.18 0.441133365901319 0.44992672203224227
0.1802127659574468 0.4389483607393736 0.44992672203224227
0.1804255319148936 0.4337726684228062 0.44992672203224227
0.18063829787234043 0.4302600471392462 0.4510296450932892
0.18085106382978725 0.42455363975900057 0.44945317552190384
0.18106382978723404 0.42092670501306934 0.44730677340583913
0.18127659574468086 0.41482691523927795 0.449166335705642
0.18148936170212765 0.4089051573564605 0.44992672203224227
0.18170212765957447 0.40464870562413124 0.4515593794790922
0.18191489361702126 0.4005882581247389 0.45102640014427703
0.18212765957446808 0.39738273417027037 0.4509037616023448
0.1823404255319149 0.3981279919718731 0.4528265750526861
0.1825531914893617 0.39330225134264934 0.4517931524197333
0.1827659574468085 0.3941419903331094 0.4504875792519541
0.1829787234042553 0.3926586185214664 0.4550391988968256
0.18319148936170213 0.38935026868588185 0.4509037616023448
0.18340425531914895 0.39010964379074314 0.45166313670720615
0.18361702127659574 0.3910598921096466 0.4532241326693812
0.18382978723404256 0.3883732291157791 0.4526060331337949
0.18404255319148935 0.3887957521959206 0.45552497263321845
0.18425531914893617 0.38935026868588185 0.45438484193404743
0.184468085106383 0.38935026868588185 0.45305399534320273
0.18468085106382978 0.3887540206701365 0.4554081678985005
0.1848936170212766 0.3896869353818122 0.45644581258587436
0.1851063829787234 0.39319895534332683 0.45676599902296044
0.1853191489361702 0.39967270184809267 0.45754274692463154
0.185531914893617 0.40771683383128887 0.457743038593063
0.18574468085106383 0.4168757784551417 0.4559686567336835
0.18595744680851065 0.426727079688478 0.4569192923865605
0.18617021276595744 0.4361071767711254 0.45681299611618725
0.18638297872340426 0.44441691797113286 0.4556768620701469
0.18659574468085105 0.4519736524791646 0.45808419366755
0.18680851063829787 0.4581793476628752 0.4587200781631655
0.1870212765957447 0.46300347245399937 0.4564662855289555
0.18723404255319148 0.4655616069977606 0.4533452346056629
0.1874468085106383 0.46761124841218815 0.4523204138984492
0.1876595744680851 0.4702771939036479 0.45247637451893297
0.18787234042553191 0.47142159257449934 0.4515532652363948
0.18808510638297873 0.4742615327997287 0.4551636719401889
0.18829787234042553 0.47225667248519543 0.4536929206532462
0.18851063829787235 0.4705947589930034 0.45368467432404586
0.18872340425531914 0.4704445530043966 0.45117501125001735
0.18893617021276596 0.47328672843924746 0.4499563697907279
0.18914893617021278 0.4752745038423581 0.4480555134108646
0.18936170212765957 0.47344987664209615 0.4506811468201695
0.1895744680851064 0.4746249633157905 0.4478365168765454
0.18978723404255318 0.47690049234431586 0.4471935039617023
0.19 0.4794860289879853 0.4484688825973678
0.1902127659574468 0.4805158455322702 0.4487231347248517
0.19042553191489361 0.4819045630045628 0.4467311384808696
0.19063829787234043 0.48396825680050365 0.4479726428920372
0.19085106382978723 0.4865012258343321 0.4465715636136406
0.19106382978723405 0.49064304725352686 0.4450415241817294
0.19127659574468084 0.4958160746884945 0.4427218349243387
0.19148936170212766 0.49652825993811833 0.43922326435759274
0.19170212765957448 0.49932631017825835 0.44028948420172787
0.19191489361702127 0.5007327796775769 0.4388654980926646
0.1921276595744681 0.5022933375883135 0.43742196823564294
0.19234042553191488 0.5026868588177822 0.438863812234836
0.1925531914893617 0.5026868588177822 0.4348408579781265
0.19276595744680852 0.5091448982783298 0.4370618201079785
0.19297872340425531 0.5017053484904699 0.43722520762090866
0.19319148936170213 0.49877870053737183 0.43734385702167866
0.19340425531914893 0.4992518472990345 0.43917928676111373
0.19361702127659575 0.5019681679747247 0.43917928676111373
0.19382978723404254 0.49877870053737183 0.43960732617013293
0.19404255319148936 0.49842520167471716 0.441133365901319
0.19425531914893618 0.49727665853820485 0.4409073473307999
0.19446808510638297 0.4999247350491797 0.43986981770326444
0.1946808510638298 0.5009569474896933 0.440217233557967
0.19489361702127658 0.49657223423007946 0.44211040547142155
0.1951063829787234 0.49061491782699995 0.4435289469480754
0.19531914893617022 0.48286872567320843 0.4461110109993392
0.19553191489361701 0.47604286153875003 0.4505716780362252
0.19574468085106383 0.46680248213907694 0.45022856491229907
0.19595744680851063 0.4600289592372396 0.45109547252800314
0.19617021276595745 0.45484236272391043 0.45420743043600054
0.19638297872340427 0.45222190112345306 0.45481191988275516
0.19659574468085106 0.4476390351374915 0.4565086262967376
0.19680851063829788 0.4442934953121706 0.4576667016928817
0.19702127659574467 0.44127163702234246 0.46146683537877536
0.1972340425531915 0.4391841233236763 0.4616560334360359
0.19744680851063828 0.4399799359720493 0.46262823644357587
0.1976595744680851 0.4383019602314559 0.4622693189067268
0.19787234042553192 0.4458427355410665 0.4595212895225028
0.19808510638297872 0.44480609791839143 0.4582492256364897
0.19829787234042554 0.44436162154875253 0.45706313596008613
0.19851063829787233 0.44433667425879525 0.457743038593063
0.19872340425531915 0.4434929827478116 0.45693196318048807
0.19893617021276597 0.44406448461162684 0.4557889594528579
0.19914893617021276 0.4425792357314743 0.455293876492807
0.19936170212765958 0.44279677013642155 0.4570297921962252
0.19957446808510637 0.4428351859310644 0.45503218212147845
0.1997872340425532 0.43942354581573206 0.4562164153121619
0.2 0.43527618447703065 0.452622428843597
0.2002127659574468 0.43105629789609456 0.45122754070379545
0.20042553191489362 0.42681584114120114 0.45165158637928476
0.20063829787234042 0.42257538438630826 0.4520756320547741
0.20085106382978724 0.41833492763141483 0.45249967773026345
0.20106382978723403 0.41409447087652196 0.4529237234057527
0.20127659574468085 0.4098540141216286 0.4533477690812421
0.20148936170212767 0.40561355736673516 0.45377181475673145
0.20170212765957446 0.40228391518672396 0.4538348803126526
0.20191489361702128 0.39911558429100247 0.4538365736779543
0.20212765957446807 0.396898946138563 0.4545754530621008
0.2023404255319149 0.3936942455464393 0.4543128598567231
0.2025531914893617 0.3918041943943401 0.453584957028526
0.2027659574468085 0.39323741989589356 0.4528683442777494
0.20297872340425532 0.38818480265926114 0.45358264421498307
0.20319148936170212 0.3872693072815205 0.4546850376185992
0.20340425531914894 0.3884847487660587 0.45556592015229874
0.20361702127659576 0.38924458296902104 0.4540462517463742
0.20382978723404255 0.3885104741163389 0.45425477759742405
0.20404255319148937 0.38753500042655975 0.45474251444231356
0.20425531914893616 0.3879286116746484 0.45463444583976453
0.20446808510638298 0.38854936805720314 0.45442752704557965
0.20468085106382977 0.3891701244397578 0.45422060825139476
0.2048936170212766 0.38979088082231256 0.4540136894572099
0.2051063829787234 0.3909738162532512 0.4540503829784083
0.2053191489361702 0.3957328458746605 0.4556367261855448
0.20553191489361702 0.40252344365045634 0.4549972222061257
0.20574468085106382 0.41135300057166824 0.4557303121745362
0.20595744680851064 0.4203826811386374 0.4566729758005135
0.20617021276595746 0.4270936535759689 0.45583410424584714
0.20638297872340425 0.43385098215966716 0.4565884807328309
0.20659574468085107 0.442097485440677 0.45676599902296044
0.20680851063829786 0.4504931347240814 0.458373161551074
0.20702127659574468 0.45531413282153815 0.4595784110754383
0.2072340425531915 0.4585519689408171 0.458776114570615
0.2074468085106383 0.46490203032519056 0.45695380611687275
0.2076595744680851 0.4646522251546718 0.45858025902138416
0.2078723404255319 0.4694147381897318 0.45485414007840497
0.20808510638297872 0.47142159257449934 0.4606137619537193
0.20829787234042554 0.47165643919537753 0.45660943460904163
0.20851063829787234 0.4750656329705165 0.4549545042198971
0.20872340425531916 0.4796605794489678 0.455577624296034
0.20893617021276595 0.4814676236145581 0.4545362845437222
0.20914893617021277 0.48351447370207584 0.45316215738442855
0.20936170212765956 0.48648332888791823 0.45188080117244755
0.20957446808510638 0.4880048413104094 0.45045487775104454
0.2097872340425532 0.49060564948366164 0.44894968246213973
0.21 0.49193942354665365 0.4495332906990487
0.2102127659574468 0.48872703703864445 0.4473568128258349
0.2104255319148936 0.48635114523588513 0.4460185637518319
0.21063829787234042 0.48761773592396396 0.4444780139539061
0.21085106382978724 0.4880312652662433 0.44323114093484206
0.21106382978723404 0.4925192075435182 0.43949709121970415
0.21127659574468086 0.49387174571056747 0.4420451345425478
0.21148936170212765 0.4969172922164904 0.44010999092155456
0.21170212765957447 0.4992330138601168 0.43917928676111373
0.2119148936170213 0.5026868588177822 0.43917928676111373
0.21212765957446808 0.5024339339081265 0.4412026860383592
0.2123404255319149 0.5023580281090491 0.4456991855991953
0.2125531914893617 0.504059127153217 0.4434826738068564
0.2127659574468085 0.5032510632982435 0.44360119305837886
0.2129787234042553 0.5017098192476794 0.4457512071215521
0.21319148936170212 0.5017098192476794 0.4455558979491003
0.21340425531914894 0.5010366023211889 0.44406448461162684
0.21361702127659574 0.5014722960932035 0.44628303385850665
0.21382978723404256 0.5000988969022951 0.444579219803858
0.21404255319148935 0.49888438829147397 0.44406448461162684
0.21425531914893617 0.4959523674889206 0.4431223735954763
0.214468085106383 0.49962383777043434 0.4390473844240737
0.21468085106382978 0.4961207510757066 0.4349069028158466
0.2148936170212766 0.4984998979847165 0.43119568866869984
0.2151063829787234 0.4942509473585342 0.42864631829299066
0.2153191489361702 0.4865228485245614 0.42776179202068554
0.21553191489361703 0.47828476175450274 0.42833868567646954
0.21574468085106382 0.470170162147777 0.4303993221697879
0.21595744680851064 0.46278236082049756 0.4343228345766085
0.21617021276595744 0.45616471768265554 0.4424110650784153
0.21638297872340426 0.45043398696160275 0.4478951759176351
0.21659574468085105 0.44593390816672424 0.45302715191276516
0.21680851063829787 0.443103942881447 0.4586870824833197
0.2170212765957447 0.44038671484240544 0.4587200781631655
0.21723404255319148 0.4401563263312165 0.4596363924152642
0.2174468085106383 0.4382054012179337 0.45969396370634574
0.2176595744680851 0.43924179004167224 0.4587200781631655
0.2178723404255319 0.44017904846163863 0.45868599496753226
0.21808510638297873 0.4421244971004932 0.4557466845656431
0.21829787234042553 0.44269587121847664 0.4540325622116925
0.21851063829787234 0.4439284553161175 0.4534185142589457
0.21872340425531914 0.4460185637518319 0.45373762775802967
0.21893617021276596 0.44454338430526796 0.44992672203224227
0.21914893617021278 0.4390335535320574 0.4500724552612986
0.21936170212765957 0.43820101868634004 0.45090499010701596
0.2195744680851064 0.43736848384062255 0.4517375249527335
0.21978723404255318 0.43653594899490517 0.45257005979845094
0.22 0.4357034141491877 0.45340259464416843
0.2202127659574468 0.4348708793034703 0.45423512948988587
0.2204255319148936 0.4340383444577528 0.4550676643356034
0.22063829787234043 0.43276738321281943 0.4557455647585675
0.22085106382978723 0.4286535993055223 0.45542079234483346
0.22106382978723405 0.42453981539822466 0.45509601993109944
0.22127659574468084 0.42042603149092755 0.4547712475173655
0.22148936170212766 0.4163122475836299 0.45444647510363145
0.22170212765957448 0.4121984636763322 0.45412170268989743
0.22191489361702127 0.4080846797690351 0.4537969302761634
0.2221276595744681 0.4039708958617375 0.4534721578624294
0.22234042553191488 0.3998571119544404 0.45314738544869543
0.2225531914893617 0.3957416933283446 0.4527938618356565
0.22276595744680852 0.3916128385689763 0.45220402544146104
0.2229787234042553 0.38862258009476863 0.4526084897635607
0.22319148936170213 0.38739618954567656 0.4538348803126526
0.22340425531914893 0.3867137321625414 0.4526974513407607
0.22361702127659575 0.3855931562140569 0.44894968246213973
0.22382978723404254 0.38769863069286026 0.44894968246213973
0.22404255319148936 0.38682568827370706 0.45057583565467185
0.22425531914893618 0.3869179680161153 0.4528578407425501
0.22446808510638297 0.38641914997557403 0.45450478686887935
0.2246808510638298 0.38703983227340194 0.4557889594528579
0.22489361702127658 0.38878294542029007 0.4557889594528579
0.2251063829787234 0.39087765317275724 0.4557889594528579
0.22531914893617022 0.3963104774881571 0.4599607341712496
0.225531914893617 0.4098653484270429 0.4561388847389635
0.22574468085106383 0.41767725507583575 0.4557889594528579
0.22595744680851063 0.425112043591753 0.4548605060312457
0.22617021276595745 0.4334503848253444 0.45389414052813976
0.22638297872340427 0.442644834146635 0.45738675280958735
0.22659574468085106 0.4487770682398216 0.4543175355213233
0.22680851063829788 0.4537878758665159 0.4569985078039519
0.22702127659574467 0.4573875754248664 0.45743225039211
0.2272340425531915 0.4606748690095018 0.45715695719222765
0.22744680851063828 0.4649067123444414 0.4573092264828087
0.2276595744680851 0.4661141076722797 0.45803286017808026
0.22787234042553192 0.4655593551538837 0.4592864501162978
0.22808510638297871 0.4642218590436941 0.4582742461264357
0.22829787234042553 0.46416803734112483 0.45671650466136376
0.22851063829787233 0.46614121374027284 0.45287966652091194
0.22872340425531915 0.46719108241073914 0.4509037616023448
0.22893617021276597 0.467513434294089 0.4479738352886562
0.22914893617021276 0.46832417390032693 0.4478063429281726
0.22936170212765958 0.47026644768930914 0.44708465597947816
0.22957446808510637 0.47139899511790984 0.4479500454354477
0.2297872340425532 0.4725476627964603 0.4490987131139982
0.23 0.4752185306086486 0.45176958092618646
0.2302127659574468 0.4747312247416936 0.4509037616023448
0.23042553191489362 0.47760318708039307 0.4504716293838845
0.23063829787234041 0.4830482657230203 0.44875429626716357
0.23085106382978723 0.4904859960447747 0.44711470030487854
0.23106382978723405 0.4878011069570093 0.4479726428920372
0.23127659574468085 0.4914817340437821 0.44745329282480617
0.23148936170212767 0.4929164631167562 0.4460185637518319
0.23170212765957446 0.4937085027595381 0.4452265241090501
0.23191489361702128 0.4962036521222677 0.44273137474632057
0.23212765957446807 0.49881114395994913 0.44163810739765896
0.2323404255319149 0.5032245792509247 0.44095412575693815
0.2325531914893617 0.5036478574818719 0.4401563263312165
0.2327659574468085 0.5048897953556647 0.4394220141519221
0.23297872340425532 0.5039970573621206 0.440800206927083
0.23319148936170211 0.5063282325756016 0.4437977000890358
0.23340425531914893 0.50306342702274 0.44671317716821607
0.23361702127659575 0.5017465739253097 0.44699560332193444
0.23382978723404255 0.5044885876728469 0.44699560332193444
0.23404255319148937 0.5036818034085556 0.4460364687725028
0.23425531914893616 0.5006924187658419 0.4478919210685673
0.23446808510638298 0.49984845753182816 0.4458331289031244
0.2346808510638298 0.5009812614653616 0.44369176192994986
0.2348936170212766 0.5015928666956703 0.44095103388096707
0.2351063829787234 0.4951224379648066 0.43918365008415367
0.2353191489361702 0.48725699401684225 0.43776391826725397
0.23553191489361702 0.47905072531647513 0.441133365901319
0.23574468085106381 0.4728528642256342 0.44195899477774414
0.23595744680851063 0.4657117020948243 0.4430874450415241
0.23617021276595745 0.45929247111710336 0.44355919019279816
0.23638297872340425 0.4545993089703187 0.4449311606326835
0.23659574468085107 0.45100310561596063 0.44689625930831883
0.23680851063829786 0.447986602906743 0.44845767267341197
0.23702127659574468 0.44393754256526663 0.44894968246213973
0.2372340425531915 0.44044486353728074 0.45061522439628054
0.2374468085106383 0.43917928676111373 0.4498319517021278
0.2376595744680851 0.43917928676111373 0.4484575756565785
0.2378723404255319 0.44352451034061097 0.4478633765672654
0.23808510638297872 0.4463867890655943 0.44699560332193444
0.23829787234042554 0.44670409365840374 0.44699560332193444
0.23851063829787233 0.44699560332193444 0.4523163034262339
0.23872340425531915 0.44783566148976445 0.45047464764133316
0.23893617021276595 0.4470518578939697 0.44900593703417496
0.23914893617021277 0.44406448461162684 0.448925208679369
0.23936170212765956 0.4437668010708404 0.44807187073896604
0.23957446808510638 0.441133365901319 0.44894968246213973
0.2397872340425532 0.44189122869122216 0.4497075452520429
0.24 0.44210397338103075 0.45188080117244755
0.2402127659574468 0.4374093835538229 0.45188080117244755
0.2404255319148936 0.4353202702180601 0.45373659683793954
0.24063829787234042 0.43105445631745637 0.45632889821838196
0.24085106382978724 0.4290473004430104 0.4579968969290105
0.24106382978723404 0.423873670744277 0.459411980702642
0.24127659574468086 0.41777043246564893 0.46275483136016293
0.24148936170212765 0.4141819996105469 0.46023810662940207
0.24170212765957447 0.4101583651087569 0.45969711773326827
0.2419148936170213 0.40521051576151046 0.45969711773326827
0.24212765957446808 0.4020246228726034 0.45969711773326827
0.2423404255319149 0.4008752108905174 0.45949758509667277
0.2425531914893617 0.3985988733862772 0.457743038593063
0.2427659574468085 0.39520119235006607 0.4579901269246964
0.2429787234042553 0.39195598684609056 0.45904547871326445
0.24319148936170212 0.39049620220938897 0.4584848993082213
0.24340425531914894 0.38982802547006684 0.45676599902296044
0.24361702127659574 0.39418791331934744 0.45566296900485664
0.24382978723404256 0.3927792552855118 0.4554386813057825
0.24404255319148935 0.3889237529009236 0.45438540409779715
0.24425531914893617 0.38914608569093534 0.4530620237374966
0.244468085106383 0.39019992643735696 0.452008182991075
0.24468085106382978 0.39125767374356196 0.45188080117244755
0.2448936170212766 0.3904229060636847 0.44904528026984003
0.2451063829787234 0.39348538408439204 0.45119992981814805
0.2453191489361702 0.39674846412507314 0.44582656899950995
0.24553191489361703 0.40655649380935005 0.4453128835003472
0.24574468085106382 0.417474497740804 0.44636739588426233
0.24595744680851064 0.4243938265101055 0.44573617279495426
0.24617021276595744 0.431876798534387 0.4455452290962062
0.24638297872340426 0.43715152742181473 0.4481385787264201
0.24659574468085105 0.4424306983602672 0.4482994001423091
0.24680851063829787 0.4462494260762885 0.45015758435669884
0.2470212765957447 0.4526388935835682 0.45170994592543545
0.24723404255319148 0.4538348803126526 0.45188080117244755
0.2474468085106383 0.454671492142735 0.45188080117244755
0.2476595744680851 0.4575532009487359 0.4527945615277744
0.2478723404255319 0.4557889594528579 0.4538348803126526
0.24808510638297873 0.45569628323251316 0.4540202327533421
0.24829787234042552 0.4549809568315655 0.45612703335047844
0.24851063829787234 0.4555418238558993 0.45749590299610443
0.24872340425531914 0.45643156831588166 0.4570899287095857
0.24893617021276596 0.4609042528729159 0.4569382818332979
0.24914893617021278 0.4650441354342586 0.4543394200584483
0.24936170212765957 0.46921457723973614 0.4528578407425501
0.2495744680851064 0.4736879664885 0.4522091580457295
0.24978723404255318 0.4767352702973981 0.4525835608936917
0.25 0.47877483163483286 0.45360334156240906
0.2502127659574468 0.48273105536961664 0.45243762181893404
0.25042553191489364 0.48412310698583294 0.45188080117244755
0.25063829787234043 0.48636854261269485 0.4511323226301601
0.2508510638297872 0.48865559563979116 0.45010307663051957
0.251063829787234 0.4941482449629381 0.45078337872000757
0.25127659574468086 0.4921363826545685 0.44634682893169
0.25148936170212766 0.49290901055829445 0.44892732478675457
0.25170212765957445 0.4933147723848417 0.44704539198044513
0.2519148936170213 0.5002056387935977 0.4478672147152413
0.2521276595744681 0.4960083155795471 0.44683486956945134
0.2523404255319149 0.49682462139716654 0.44623878084900565
0.2525531914893617 0.4965508933633971 0.446721875288165
0.2527659574468085 0.4968155737378299 0.4460185637518319
0.2529787234042553 0.49877870053737183 0.4452597356882238
0.2531914893617021 0.4996613527939956 0.44406448461162684
0.25340425531914895 0.5017381129710196 0.44356181796490546
0.25361702127659574 0.501556861933399 0.4442174419259073
0.25382978723404254 0.5013119149703203 0.4450415241817294
0.2540425531914894 0.5005665949904926 0.4467563605675098
0.2542553191489362 0.49975574010747437 0.4455150856747336
0.25446808510638297 0.5004452770435343 0.4468226323558664
0.25468085106382976 0.5007327796775769 0.44567183007281663
0.2548936170212766 0.5007327796775769 0.44420164209644203
0.2551063829787234 0.49523965232752476 0.44406448461162684
0.2553191489361702 0.48691987760986005 0.44412419487219607
0.25553191489361704 0.4778876148055347 0.44787932920211654
0.25574468085106383 0.47247279398120245 0.4468247017488795
0.2559574468085106 0.46260025034460295 0.44652107658636975
0.2561702127659574 0.45704636134804844 0.4483039874401897
0.25638297872340426 0.44988907889122726 0.44894968246213973
0.25659574468085106 0.44468507657938056 0.44894968246213973
0.25680851063829785 0.4394118257120981 0.45218797817332784
0.2570212765957447 0.43722520762090866 0.4535974002031639
0.2572340425531915 0.4358691180453301 0.4515017511669715
0.2574468085106383 0.4360277196981226 0.4509037616023448
0.25765957446808513 0.4345760530344005 0.4500677040941421
0.2578723404255319 0.43853014554612074 0.4490795107051383
0.2580851063829787 0.4364700820511054 0.4525619554088178
0.2582978723404255 0.43821462358139635 0.4538307548491909
0.25851063829787235 0.44099166299192366 0.45299954365194545
0.25872340425531914 0.43917928676111373 0.45495669914135983
0.25893617021276594 0.43895781774136317 0.4560104284726085
0.2591489361702128 0.4379235635211985 0.45676599902296044
0.2593617021276596 0.43722520762090866 0.4564540734118243
0.25957446808510637 0.43722520762090866 0.4565684278134599
0.2597872340425532 0.4386257687217133 0.457743038593063
0.26 0.4379891693038881 0.45665946007939884
0.2602127659574468 0.43624816805080613 0.4545533778109923
0.2604255319148936 0.43556158901303643 0.4538348803126526
0.26063829787234044 0.43603229022293183 0.4538348803126526
0.26085106382978723 0.43119944183115005 0.4538348803126526
0.261063829787234 0.4276303892489497 0.45291636651890577
0.2612765957446809 0.4224047946541428 0.45477529334603806
0.26148936170212767 0.4135821600693551 0.45324603648073297
0.26170212765957446 0.41094060216432726 0.45658968369617764
0.26191489361702125 0.4059615677926038 0.45627666603042016
0.2621276595744681 0.40334652490909706 0.45678993186772576
0.2623404255319149 0.40164249075231173 0.45481191988275516
0.2625531914893617 0.3976723872254833 0.45528315747407705
0.26276595744680853 0.39663013015419224 0.45686186963787834
0.2629787234042553 0.3949879752404109 0.4565414681568741
0.2631914893617021 0.39288521144222033 0.45511383190577065
0.26340425531914896 0.3937849811367345 0.45556371675302776
0.26361702127659575 0.39174146165815904 0.4574516293716816
0.26382978723404255 0.39039349934445555 0.45501049314816866
0.26404255319148934 0.38933813000677037 0.44991458335313084
0.2642553191489362 0.3882802611948572 0.44876374662029594
0.264468085106383 0.3868993740003229 0.44666439295836535
0.26468085106382977 0.3846803979145651 0.445472178340122
0.2648936170212766 0.385806313200396 0.44681350192447217
0.2651063829787234 0.38840603538512963 0.4455136408321054
0.2653191489361702 0.3944457889371992 0.44312205227829315
0.265531914893617 0.4041594955145462 0.4407477719028899
0.26574468085106384 0.41254670351190725 0.4401563263312165
0.26595744680851063 0.42146865354445656 0.4401563263312165
0.2661702127659574 0.4315735159415214 0.439549048015032
0.2663829787234043 0.4428220569662402 0.43849283871697403
0.26659574468085107 0.44831128070202025 0.43896648617440726
0.26680851063829786 0.4565205045313768 0.44170289411752617
0.2670212765957447 0.460516391425371 0.44488375830372956
0.2672340425531915 0.46553204309374396 0.44707753950235357
0.2674468085106383 0.46524029169844855 0.450255710089576
0.2676595744680851 0.4700628167664775 0.4528578407425501
0.26787234042553193 0.4684904738641915 0.4533958086832249
0.2680851063829787 0.4678478252159778 0.4551332442068621
0.2682978723404255 0.46761584321317845 0.45722822410511416
0.26851063829787236 0.46903415284883176 0.45969711773326827
0.26872340425531915 0.4689986477111588 0.45969711773326827
0.26893617021276595 0.46946751343429405 0.4608710615996828
0.26914893617021274 0.4714651253480289 0.4603194555976502
0.2693617021276596 0.4731371184990284 0.4611740904421214
0.2695744680851064 0.47500942650922284 0.46246807427073244
0.26978723404255317 0.47691942816062444 0.4610385591378611
0.27 0.4789180349170865 0.4606741573033708
0.2702127659574468 0.48095155981629156 0.45981733196288505
0.2704255319148936 0.4811919882755251 0.45784371087749204
0.27063829787234045 0.48702663671870794 0.4575775047284662
0.27085106382978724 0.48625115702282695 0.4516198448272641
0.27106382978723403 0.48851822831397423 0.4484627194144088
0.2712765957446808 0.49145135889255426 0.4460185637518319
0.2714893617021277 0.49381451692553446 0.44631791502142465
0.27170212765957447 0.49670516199514586 0.4447087228737162
0.27191489361702126 0.49877870053737183 0.4394384225455252
0.2721276595744681 0.49877870053737183 0.4394548912528194
0.2723404255319149 0.4989352375627489 0.4373817446462857
0.2725531914893617 0.4999688912192712 0.43813119682041224
0.2727659574468085 0.5026868588177822 0.4371595757583911
0.27297872340425533 0.5025388168811703 0.4352711284807034
0.2731914893617021 0.4998308522749783 0.4352711284807034
0.2734042553191489 0.5017098192476794 0.43529908721980504
0.27361702127659576 0.5017098192476794 0.436199811070554
0.27382978723404255 0.5009481433976728 0.43853319560082615
0.27404255319148935 0.5007327796775769 0.44122136622742036
0.2742553191489362 0.5007327796775769 0.44339418387919927
0.274468085106383 0.4991417260414589 0.44618588945978416
0.2746808510638298 0.49954726308566183 0.4492818444808317
0.27489361702127657 0.49737542497133264 0.45220407988524886
0.2751063829787234 0.48966990150976836 0.45655830675691506
0.2753191489361702 0.4829416810154272 0.4610679659601727
0.275531914893617 0.473306036969669 0.46397955442418
0.27574468085106385 0.4632307232106519 0.4660352119409322
0.27595744680851064 0.45713837777923405 0.4654819278013652
0.27617021276595743 0.4507626563307904 0.4634653593344328
0.2763829787234042 0.44758724495498714 0.46085331154441816
0.2765957446808511 0.44665852257787175 0.4583829974191028
0.27680851063829787 0.4460185637518319 0.45336076872298087
0.27702127659574466 0.44200824580760856 0.44787048322822404
0.2772340425531915 0.44200870752518134 0.4583750444321454
0.2774468085106383 0.4411561362562992 0.44729161793667643
0.2776595744680851 0.4441951843691777 0.4481469092354383
0.27787234042553194 0.4467891436278703 0.451605521580362
0.27808510638297873 0.45165061658631 0.4500187958666973
0.2782978723404255 0.4528869230043558 0.44894968246213973
0.2785106382978723 0.4544733781975152 0.44894968246213973
0.27872340425531916 0.4560598333906751 0.44894968246213973
0.27893617021276595 0.45676599902296044 0.44894968246213973
0.27914893617021275 0.4553237111501606 0.44894968246213973
0.2793617021276596 0.45111668202736216 0.4484060428050817
0.2795744680851064 0.4477145282209184 0.4479726428920372
0.2797872340425532 0.4435197247148364 0.4479726428920372
0.27999999999999997 0.4382749884950578 0.44567139270621886
0.2802127659574468 0.4380635041693086 0.4450415241817294
0.2804255319148936 0.4327566344437521 0.4441339220571862
0.2806382978723404 0.4274149731736964 0.4450415241817294
0.28085106382978725 0.4232099588793237 0.44546239263191506
0.28106382978723404 0.41884649400974017 0.44960992149251355
0.28127659574468084 0.41383430287954215 0.4475131455775337
0.2814893617021277 0.409322977985927 0.44662742824871665
0.2817021276595745 0.4038698770338638 0.4465792666628625
0.28191489361702127 0.40009770395701016 0.4450873366102189
0.28212765957446806 0.39789756837482626 0.44699560332193444
0.2823404255319149 0.3946674365432309 0.4474275733287707
0.2825531914893617 0.39318068764056224 0.44898855212500466
0.2827659574468085 0.3895492144154396 0.4516818554428896
0.28297872340425534 0.3870480112296908 0.45617088545777107
0.28319148936170213 0.38788742047330516 0.4592113090907943
0.2834042553191489 0.3859577282108442 0.46130745166989157
0.2836170212765957 0.3849078914691757 0.46111697793717765
0.28382978723404256 0.38386928905045964 0.4603762664109162
0.28404255319148936 0.3828115456102155 0.4608993333934757
0.28425531914893615 0.3834880312652662 0.4636052760136786
0.284468085106383 0.38379981620087095 0.46235813627125955
0.2846808510638298 0.38478400347291286 0.45937818509572415
0.2848936170212766 0.38609693948811163 0.4600297363284459
0.2851063829787234 0.38805151538792243 0.4616452476802072
0.2853191489361702 0.3919617514516584 0.4585364587262565
0.285531914893617 0.4011294241488985 0.4547226025485388
0.2857446808510638 0.4132078939367015 0.4512007005605863
0.28595744680851065 0.4221101655542317 0.4531083301929142
0.28617021276595744 0.4308470944123939 0.45223097182283767
0.28638297872340424 0.4392801315420304 0.45045831681775295
0.2865957446808511 0.44558413635756955 0.44978425468106015
0.2868085106382979 0.4492196050818376 0.44944342948816
0.28702127659574467 0.4528550738061056 0.4491026042952599
0.28723404255319146 0.45649054253037363 0.4487617791023597
0.2874468085106383 0.4601260112546426 0.4484209539094595
0.2876595744680851 0.46376147997891065 0.4480801287165594
0.2878723404255319 0.46739694870317866 0.44773930352365926
0.28808510638297874 0.4710324174274476 0.447398478330759
0.28829787234042553 0.4746678861517157 0.4470576531378589
0.2885106382978723 0.4737652514601263 0.44699560332193444
0.28872340425531917 0.4731331803244388 0.44773015150177137
0.28893617021276596 0.47519623127240046 0.4497932024497331
0.28914893617021276 0.47435271128480694 0.44887679329408753
0.28936170212765955 0.4748047419851026 0.4482739966922343
0.2895744680851064 0.48310124923375086 0.4538079894034649
0.2897872340425532 0.47833164473993905 0.4509037616023448
0.29 0.4803534574370068 0.4509037616023448
0.2902127659574468 0.48411899248909046 0.4532453649731971
0.2904255319148936 0.4835546457093124 0.4541812847785738
0.2906382978723404 0.4849577826659621 0.45244050290248544
0.2908510638297872 0.48759261302369333 0.45188080117244755
0.29106382978723405 0.4921612333349915 0.44940282033119855
0.29127659574468084 0.4929164631167562 0.44627002276530675
0.29148936170212764 0.4957973437509138 0.4450582702071128
0.2917021276595745 0.49574737790867834 0.4441646885300125
0.2919148936170213 0.4929164631167562 0.4467933093241626
0.29212765957446807 0.49357526623394754 0.4445474218438359
0.2923404255319149 0.4970340582415408 0.44315758969329294
0.2925531914893617 0.4998900796795929 0.4464734986438535
0.2927659574468085 0.5020135271065189 0.44536920149278125
0.2929787234042553 0.4956522643682715 0.4460185637518319
0.29319148936170214 0.49590027505754813 0.44694291009145043
0.29340425531914893 0.4948705422569615 0.44583399012325087
0.2936170212765957 0.492457117435494 0.4446678408169937
0.29382978723404257 0.4915714843032792 0.4450415241817294
0.29404255319148936 0.4913108713108475 0.44378441971011695
0.29425531914893616 0.49232002948886633 0.4424086222853665
0.29446808510638295 0.4929164631167562 0.439145494803473
0.2946808510638298 0.4929164631167562 0.4422445720083644
0.2948936170212766 0.4920355350803272 0.4439683730779533
0.2951063829787234 0.48908264351264774 0.4421599645889561
0.29531914893617023 0.4812965289365376 0.4478942373962778
0.295531914893617 0.4774436731986455 0.4479726428920372
0.2957446808510638 0.46652415418428494 0.44798138613468097
0.29595744680851066 0.46273239993425264 0.4506897820275612
0.29617021276595745 0.4590763382133232 0.45304042295429864
0.29638297872340424 0.45596473166282375 0.4539556013515043
0.29659574468085104 0.45285312511232434 0.45487077974871004
0.2968085106382979 0.4497415185618241 0.45578595814591594
0.2970212765957447 0.4466299120113247 0.45670113654312167
0.29723404255319147 0.4435183054608252 0.45761631494032734
0.2974468085106383 0.4438943765598423 0.45828099293860847
0.2976595744680851 0.4448310013931234 0.4589054094941293
0.2978723404255319 0.4457676262264046 0.45952982604965004
0.29808510638297875 0.4479557830678261 0.45969711773326827
0.29829787234042554 0.44973768200672515 0.45969711773326827
0.29851063829787233 0.4489968540861622 0.45969711773326827
0.2987234042553191 0.450426356668096 0.4574821064243337
0.298936170212766 0.45041784658889167 0.4572519140364136
0.29914893617021276 0.4494559707517612 0.4569584531255945
0.29936170212765956 0.44786147930187115 0.45430096737577785
0.2995744680851064 0.44530903201129557 0.4525767455241103
0.2997872340425532 0.44161816399470766 0.451961600854679
0.3 0.441133365901319 0.4512102895804765
0.3002127659574468 0.44170372824223736 0.45033339926142646
0.30042553191489363 0.4388891314261165 0.44885296401714064
0.3006382978723404 0.43319864003235176 0.44746438822229473
0.3008510638297872 0.4308648774388431 0.4465166565132818
0.30106382978723406 0.4265642458450402 0.44470982074585386
0.30127659574468085 0.4178729514767429 0.4450464332218254
0.30148936170212765 0.41172772956024156 0.4500211712702421
0.3017021276595745 0.4055590166540055 0.4554048828885362
0.3019148936170213 0.3987736678333683 0.46021761256357724
0.3021276595744681 0.39636815397910324 0.4625141748339188
0.30234042553191487 0.39071961435129937 0.46178196557191165
0.3025531914893617 0.39231978911344423 0.4616895985907279
0.3027659574468085 0.3876051784526799 0.4582550723684625
0.3029787234042553 0.3841641541619183 0.4580996724288267
0.30319148936170215 0.3818746871098142 0.454130449913249
0.30340425531914894 0.38281624855150403 0.4522473270298692
0.30361702127659573 0.3832431556839351 0.45163838834633824
0.3038297872340425 0.3828028381095248 0.4535430338982915
0.3040425531914894 0.38446507083536874 0.45283504807197583
0.30425531914893617 0.3839582733394476 0.45752619526684224
0.30446808510638296 0.38283126029287007 0.45841604334244257
0.3046808510638298 0.38426698229000994 0.4569573859899734
0.3048936170212766 0.38680341957646686 0.4582663084395004
0.3051063829787234 0.3894061708611545 0.457743038593063
0.30531914893617024 0.3932288157781397 0.45832334009749404
0.30553191489361703 0.40299535128098146 0.4567743668695446
0.3057446808510638 0.4119609306178399 0.45453297203532994
0.3059574468085106 0.42273969701841885 0.4519918650411442
0.30617021276595746 0.4320840139432786 0.450242447027574
0.30638297872340425 0.43720237451715827 0.44847257922896366
0.30659574468085105 0.44612459885821015 0.44401146705843764
0.3068085106382979 0.4540094067699967 0.4430874450415241
0.3070212765957447 0.4557438835334547 0.4449513723429229
0.3072340425531915 0.4597521679304748 0.43915176166251046
0.30744680851063827 0.46165119687347334 0.4386802475268251
0.3076595744680851 0.46181559961992197 0.4430874450415241
0.3078723404255319 0.4635452315362558 0.4430874450415241
0.3080851063829787 0.4662382580352519 0.4433855817302585
0.30829787234042555 0.4644698601784678 0.4462434745624585
0.30851063829787234 0.4643499811773776 0.45035715821569267
0.30872340425531913 0.46753649766518957 0.4509037616023448
0.308936170212766 0.46792085080942125 0.4526126307666558
0.3091489361702128 0.4687928941941272 0.451275960512576
0.30936170212765957 0.47230591311640296 0.44992672203224227
0.30957446808510636 0.4756922602935854 0.4506989182252025
0.3097872340425532 0.47870783878371226 0.4493030626965449
0.31 0.48009381609833307 0.4480937754991267
0.3102127659574468 0.47836500434616885 0.4479726428920372
0.31042553191489364 0.4871010898046282 0.4479257787835498
0.31063829787234043 0.48998534440644836 0.4450415241817294
0.3108510638297872 0.49045515973127285 0.4445717088569049
0.311063829787234 0.4936030151480502 0.44211040547142155
0.31127659574468086 0.4952478955020201 0.44241024863394346
0.31148936170212765 0.4983314842412627 0.44271761324532377
0.31170212765957445 0.503435717420693 0.4403645973855041
0.3119148936170213 0.5012350806575757 0.43669534425101475
0.3121276595744681 0.5019827621007207 0.4363628998928682
0.3123404255319149 0.502483108114223 0.4383642839468774
0.3125531914893617 0.5021470780105164 0.4402588483756452
0.3127659574468085 0.5011739364714641 0.44166924867753427
0.3129787234042553 0.5007327796775769 0.4432888654311215
0.3131914893617021 0.4994284474416547 0.44341231849366564
0.31340425531914895 0.5002262311227329 0.44236367974884355
0.31361702127659574 0.49994141411390536 0.4429017710350931
0.31382978723404253 0.5006049370108617 0.4447858388482991
0.3140425531914894 0.5016363831161765 0.4450415241817294
0.3142553191489362 0.49686127364898264 0.4421323968225112
0.31446808510638297 0.49877870053737183 0.4458617025581733
0.31468085106382976 0.49870209516857716 0.44312574772592145
0.3148936170212766 0.4970825689986935 0.44393551081086335
0.3151063829787234 0.4954924451716045 0.4520575419649993
0.3153191489361702 0.4871582174866685 0.44972927570477056
0.31553191489361704 0.47898484641028444 0.44835223697959037
0.31574468085106383 0.46989483632710305 0.4515195110746792
0.3159574468085106 0.4607919128004679 0.45119973797910234
0.31617021276595747 0.4572198490447517 0.4501536470431379
0.31638297872340426 0.4527562613035866 0.44992672203224227
0.31659574468085105 0.4475990842457573 0.44992672203224227
0.31680851063829785 0.44519858652134636 0.45172373883283057
0.3170212765957447 0.4479481660212444 0.4538185623987907
0.3172340425531915 0.44572570644213844 0.44803121435397586
0.3174468085106383 0.44148698475357173 0.44883180951138885
0.3176595744680851 0.44423168365509536 0.4488086381093798
0.3178723404255319 0.44490870397822485 0.45232655992853205
0.3180851063829787 0.44406448461162684 0.44913901066255385
0.3182978723404255 0.4450998634931617 0.44966787731185853
0.31851063829787235 0.446682643983444 0.4483046830078431
0.31872340425531914 0.4459999610797626 0.44854398449644306
0.31893617021276593 0.4475791529614035 0.451817447936169
0.3191489361702128 0.44445305155902454 0.4512923285497427
0.3193617021276596 0.44366655912045205 0.4510849501900981
0.31957446808510637 0.4421731470467801 0.4506199094625497
0.3197872340425532 0.4397396758611145 0.44992672203224227
0.32 0.4384151088705176 0.44839836625105006
0.3202127659574468 0.43485425962934154 0.4496466366728719
0.3204255319148936 0.4306708606364909 0.45173833616929737
0.32063829787234044 0.43135521091054047 0.4586657631348975
0.32085106382978723 0.42505806508442684 0.45370840382829525
0.321063829787234 0.4178442592003096 0.4521532000353308
0.32127659574468087 0.4115522282591263 0.45425054368239187
0.32148936170212766 0.40638140743431794 0.4563445329662683
0.32170212765957445 0.4039914903329803 0.457743038593063
0.32191489361702125 0.3995254436754658 0.45882575548809856
0.3221276595744681 0.3947901512477574 0.46025180244463093
0.3223404255319149 0.39423546653639474 0.4587257165235639
0.3225531914893617 0.39149687070006095 0.4593861960948633
0.3227659574468085 0.3887401294457292 0.45884373958291325
0.3229787234042553 0.385032326903499 0.4597475799204311
0.3231914893617021 0.3820327502846838 0.45485303338104094
0.32340425531914896 0.383129549359975 0.4528578407425501
0.32361702127659575 0.3817544251315512 0.4528578407425501
0.32382978723404254 0.38431767293664654 0.45656946849133084
0.32404255319148934 0.38259631741699424 0.45672333616204513
0.3242553191489362 0.3865978158374724 0.454722586951806
0.324468085106383 0.38822147665292345 0.4535313753869414
0.32468085106382977 0.38784297706839965 0.45188080117244755
0.3248936170212766 0.38993784800117126 0.4512932218571581
0.3251063829787234 0.39531204020030547 0.45101972904339277
0.3253191489361702 0.4016281563504872 0.45243421399582184
0.325531914893617 0.4062719226064944 0.44999091787085427
0.32574468085106384 0.4154938808645297 0.4484971717586498
0.32595744680851063 0.4248951206217624 0.4483829856591577
0.3261702127659574 0.4342732213146094 0.45344501442837376
0.32638297872340427 0.44050754007202625 0.45348366657184286
0.32659574468085106 0.44849677708886215 0.4504616074796829
0.32680851063829786 0.45551523962238943 0.45607535939230165
0.3270212765957447 0.45841881636134607 0.457743038593063
0.3272340425531915 0.46137109933430315 0.457743038593063
0.3274468085106383 0.4663840022823588 0.4530102331841775
0.3276595744680851 0.470392997733063 0.4595682295549342
0.3278723404255319 0.468625356033541 0.4549468020521047
0.3280851063829787 0.4704445530043966 0.4564018290483326
0.3282978723404255 0.4704445530043966 0.4536618239508517
0.32851063829787236 0.47066084498313693 0.4532904247000306
0.32872340425531915 0.47115499379049136 0.45294572839469954
0.32893617021276594 0.4714133964217328 0.44926443411515216
0.32914893617021274 0.4733756717147044 0.4515010368404253
0.3293617021276596 0.4755451007709302 0.4530731906585707
0.3295744680851064 0.4787549082895503 0.45381280455552625
0.32978723404255317 0.47868779362246716 0.4491302236081836
0.33 0.4794737314954148 0.44881489621723064
0.3302127659574468 0.48088186216287615 0.45126054894714956
0.3304255319148936 0.4804617819739588 0.45042038856931477
0.33063829787234045 0.4833706839674136 0.44913778821674455
0.33085106382978724 0.48159572070781437 0.44894968246213973
0.33106382978723403 0.4901057045012201 0.45162379732984825
0.3312765957446808 0.4919089180368005 0.44904119899169925
0.33148936170212767 0.4948896093076108 0.44990765498159296
0.33170212765957446 0.4959220805771837 0.4493221762127382
0.33191489361702126 0.4969553242437991 0.45370417746602004
0.3321276595744681 0.49797057659216254 0.4526889251176567
0.3323404255319149 0.498618161001824 0.45107810349470834
0.3325531914893617 0.49801468542447513 0.44848677452237645
0.3327659574468085 0.49877870053737183 0.45249586250301244
0.33297872340425533 0.4981318601406221 0.44830284206539
0.3331914893617021 0.49757939403864826 0.44699560332193444
0.3334042553191489 0.49963809949997356 0.44699560332193444
0.33361702127659576 0.4988034970357199 0.446030962001006
0.33382978723404255 0.4983981794118466 0.44661508219640944
0.33404255319148934 0.4986173881994152 0.445695939075919
0.3342553191489362 0.4971810355428132 0.44468511003608274
0.334468085106383 0.49948847900544535 0.44304363097552024
0.3346808510638298 0.5043063727249346 0.44211040547142155
0.33489361702127657 0.5048527404957635 0.44440611656840084
0.3351063829787234 0.49894830443211824 0.4450415241817294
0.3353191489361702 0.49003117200334073 0.4467682995070467
0.335531914893617 0.4816695760383315 0.4497476266211899
0.33574468085106385 0.4724241394244916 0.45284933831592017
0.33595744680851064 0.46236237106026856 0.4560548248361652
0.33617021276595743 0.4576350603589809 0.4606741573033708
0.3363829787234042 0.45589418931929276 0.4609647605379267
0.33659574468085107 0.4503935496341919 0.46296837775567784
0.33680851063829786 0.44754186303289134 0.46479770551335403
0.33702127659574466 0.4460185637518319 0.46503607637702704
0.3372340425531915 0.4444655830308027 0.4636052760136786
0.3374468085106383 0.441133365901319 0.46213137236254076
0.3376595744680851 0.441133365901319 0.45969711773326827
0.33787234042553194 0.44258972535390767 0.45872621143154246
0.33808510638297873 0.4446030353197483 0.45558883576057707
0.3382978723404255 0.4438743867074318 0.4515006053640576
0.3385106382978723 0.4430874450415241 0.44992672203224227
0.33872340425531916 0.4417069044897557 0.44992672203224227
0.33893617021276595 0.4426323369615152 0.44842775097204607
0.33914893617021274 0.4398737885501638 0.4479726428920372
0.3393617021276596 0.43917928676111373 0.4445411842800115
0.3395744680851064 0.43826900118251955 0.44224391345443825
0.3397872340425532 0.4382022471910112 0.44114306510455387
0.34 0.4353106882655766 0.4382022471910112
0.3402127659574468 0.436150084586231 0.4382022471910112
0.3404255319148936 0.43465208933918165 0.4383570069763916
0.3406382978723404 0.4305280158949177 0.43917928676111373
0.34085106382978725 0.426579634429501 0.43961687550630457
0.34106382978723404 0.4231986348397293 0.4413073753011904
0.34127659574468083 0.4198176352499576 0.44299787509607624
0.3414893617021277 0.41549062245639085 0.44557616878312684
0.3417021276595745 0.41220735173374184 0.44177532079382
0.34191489361702126 0.40647139573109053 0.4447005546127529
0.34212765957446806 0.4050127213459545 0.4412526440550439
0.3423404255319149 0.3999658664777946 0.4372105590121069
0.3425531914893617 0.3910130226830561 0.43618990302219995
0.3427659574468085 0.38606652188547946 0.43562375657079794
0.34297872340425534 0.3826255204194832 0.4376847406835414
0.34319148936170213 0.378151335010387 0.4363998744916192
0.3434042553191489 0.3769296557444251 0.4395945233914623
0.34361702127659577 0.3776257938446508 0.43854363651371475
0.34382978723404256 0.3800287379465606 0.4407812494957203
0.34404255319148935 0.3821183939572019 0.44491362811894314
0.34425531914893615 0.3810718525207434 0.44751054328771944
0.344468085106383 0.3838229845174696 0.4496894171863434
0.3446808510638298 0.3873312603327207 0.4502740449599284
0.3448936170212766 0.38906222452347033 0.4519937082553157
0.3451063829787234 0.39009839325172996 0.4595909618351836
0.3453191489361702 0.39594366689984783 0.45844184907698
0.345531914893617 0.4057302299158125 0.45517394519232995
0.3457446808510638 0.41790686208101563 0.457554390166077
0.34595744680851065 0.4244442277606309 0.4538878572786154
0.34617021276595744 0.43548911294017606 0.45969711773326827
0.34638297872340423 0.4419820212467585 0.45913134750297524
0.3465957446808511 0.45128708501763015 0.4542883346411153
0.3468085106382979 0.4595541768791306 0.4569745237019517
0.34702127659574467 0.4634371431654205 0.457743038593063
0.3472340425531915 0.4665542620732965 0.45641649603384593
0.3474468085106383 0.47204387042063134 0.45422970215225705
0.3476595744680851 0.47546843737561195 0.45481191988275516
0.3478723404255319 0.47286718434474195 0.4553204072527177
0.34808510638297874 0.47126629803875125 0.45409045829408207
0.34829787234042553 0.4704445530043966 0.4547296043208519
0.3485106382978723 0.4697643410196959 0.453068111514055
0.34872340425531917 0.46506447655481714 0.45334848013227314
0.34893617021276596 0.4675125594224135 0.4553977936761467
0.34914893617021275 0.46765608517052293 0.4557889594528579
0.34936170212765955 0.46840123186790417 0.4531255667314122
0.3495744680851064 0.4722521436788583 0.4537982581962167
0.3497872340425532 0.47343495762658383 0.4528578407425501
0.35 0.47623929370888973 0.4528578407425501
0.3502127659574468 0.4799956865707806 0.45194344749663096
0.3504255319148936 0.4737405500729943 0.4535612215439352
0.3506382978723404 0.47743211871792124 0.45045889543392537
0.35085106382978726 0.4798462330018483 0.44975617675824703
0.35106382978723405 0.4872988455250983 0.4548113439844641
0.35127659574468084 0.4909623839765511 0.4483472656521302
0.35148936170212763 0.49203097263829765 0.4462832108807701
0.3517021276595745 0.4947168115574848 0.4438065608757903
0.3519148936170213 0.4972361463291421 0.4416475506373956
0.35212765957446807 0.49981838363204595 0.441133365901319
0.3523404255319149 0.5013106098776262 0.4417111961013683
0.3525531914893617 0.5029838014443785 0.44147341437307214
0.3527659574468085 0.5016426155559414 0.43911208306937566
0.3529787234042553 0.5050117704487035 0.4403417425765745
0.35319148936170214 0.5020176824484062 0.4434220332262122
0.35340425531914893 0.5015540387572406 0.44242196645229936
0.3536170212765957 0.5034625113738205 0.44386309759756254
0.35382978723404257 0.4999397785130267 0.44406448461162684
0.35404255319148936 0.5036358036805145 0.4402218806484136
0.35425531914893615 0.5007327796775769 0.44708765312394666
0.354468085106383 0.500330924574381 0.4485478273589439
0.3546808510638298 0.4972914581926984 0.44519713644690667
0.3548936170212766 0.49894333760856413 0.446424765001287
0.3551063829787234 0.49402116761551323 0.4469289776282939
0.3553191489361702 0.4867592713204339 0.44502835611844616
0.355531914893617 0.4798862494614104 0.4481369925140431
0.3557446808510638 0.4732188660980471 0.4508089861256609
0.35595744680851066 0.46746575571835336 0.44987904345650687
0.35617021276595745 0.4622327946000706 0.4512992034458503
0.35638297872340424 0.4560375620975526 0.45322495437336674
0.35659574468085103 0.4544973774724844 0.4521953435827183
0.3568085106382979 0.4490957904087191 0.45188080117244755
0.3570212765957447 0.4500740032944668 0.4488024011999152
0.35723404255319147 0.4459461001609252 0.4521040274265536
0.3574468085106383 0.440611232750186 0.4519717824562414
0.3576595744680851 0.4392085093772738 0.44808953335667734
0.3578723404255319 0.43728555595112295 0.4480329912222515
0.35808510638297875 0.43917928676111373 0.4498402259234246
0.35829787234042554 0.43861806897865563 0.44894968246213973
0.35851063829787233 0.43585473798828045 0.44894968246213973
0.3587234042553191 0.4384539710137872 0.44894968246213973
0.35893617021276597 0.4388728840200081 0.44894968246213973
0.35914893617021276 0.4371153964474639 0.44894968246213973
0.35936170212765955 0.435689790910498 0.4493683448919342
0.3595744680851064 0.4357739632198659 0.44992672203224227
0.3597872340425532 0.4342126033684187 0.44992672203224227
0.36 0.4333170493404983 0.4510978524310843
0.3602127659574468 0.4339602358660612 0.4505944281213216
0.3604255319148936 0.43289274925362325 0.45132806168921996
0.3606382978723404 0.43083088423851884 0.451126238406509
0.3608510638297872 0.4271522217595593 0.4557543249082916
0.36106382978723406 0.41868360981411185 0.45503396290392295
0.36127659574468085 0.41221987951689343 0.45390116376576134
0.36148936170212764 0.41182217879824123 0.4528655987196012
0.3617021276595745 0.4065587114670207 0.45295240811272697
0.3619148936170213 0.3991495807432605 0.4548046907936669
0.3621276595744681 0.39609922152530286 0.4547215957314582
0.36234042553191487 0.39403431316684384 0.453058994112101
0.3625531914893617 0.3927579253571421 0.454653073895771
0.3627659574468085 0.39369140036678546 0.4531829778527761
0.3629787234042553 0.38809875723376813 0.4509037616023448
0.36319148936170215 0.38639925585535223 0.45156838406256106
0.36340425531914894 0.38485405182621235 0.4520798787608629
0.36361702127659573 0.3845543402563987 0.4509037616023448
0.3638297872340425 0.3849846054669617 0.4519014777368085
0.36404255319148937 0.38475058003118684 0.4528578407425501
0.36425531914893616 0.3859488849713811 0.45162741388949257
0.36446808510638296 0.38874120180438193 0.4509037616023448
0.3646808510638298 0.38789194204512456 0.4494454349615877
0.3648936170212766 0.3889606912040696 0.4505141841205326
0.3651063829787234 0.39438017940346914 0.4509037616023448
0.36531914893617023 0.3960906154588361 0.4561724177163783
0.365531914893617 0.405052839115506 0.4611976457424134
0.3657446808510638 0.4127724159926012 0.4573934002391138
0.3659574468085106 0.42376796153860197 0.45759864098964004
0.36617021276595746 0.4320000206691857 0.456118216620686
0.36638297872340425 0.44125339372405226 0.45658259389121325
0.36659574468085104 0.4463656842676231 0.45594643921643574
0.3668085106382979 0.45332637298615447 0.4536787028981179
0.3670212765957447 0.4557889594528579 0.4548154953925918
0.3672340425531915 0.46093659788420654 0.45385859504110215
0.36744680851063827 0.4642487554073022 0.44899696438080844
0.3676595744680851 0.46458231558378116 0.4463491456399702
0.3678723404255319 0.4670937938582012 0.4453906941832269
0.3680851063829787 0.4691059866918117 0.4481190883198305
0.36829787234042555 0.4707068059608066 0.44744813697921726
0.36851063829787234 0.4708136542113202 0.45149000902044295
0.36872340425531913 0.4704445530043966 0.452187201395785
0.368936170212766 0.4713317494513064 0.4494831238087874
0.36914893617021277 0.4736109050040226 0.4505660462747007
0.36936170212765956 0.47496325804052825 0.45249134792816875
0.36957446808510636 0.476374728752334 0.45053278952742953
0.3697872340425532 0.47929483014769675 0.4484327021709001
0.37 0.47646218481753694 0.44984902483597994
0.3702127659574468 0.478064565843284 0.4495751669485879
0.37042553191489364 0.47992436697736707 0.44920320672177133
0.3706382978723404 0.4822406600351048 0.4486875145222448
0.3708510638297872 0.4855341205844696 0.44786414938490354
0.371063829787234 0.48882758113383445 0.4470407842475623
0.37127659574468086 0.49132249077863316 0.44930978926422177
0.37148936170212765 0.49193942354665365 0.44647416046509547
0.37170212765957444 0.49516873214670076 0.44310393902170103
0.3719148936170213 0.5000680862106059 0.44470517732217313
0.3721276595744681 0.49963447530323685 0.4467103450666461
0.3723404255319149 0.4957913856114681 0.44176780220160305
0.3725531914893617 0.5012627951906087 0.44095535794792234
0.3727659574468085 0.5001286780007184 0.43686973120621286
0.3729787234042553 0.4988475777975412 0.44078897960047214
0.3731914893617021 0.49974681998466663 0.4353246492175499
0.37340425531914895 0.5006810969113337 0.44005296079872996
0.37361702127659574 0.49975574010747437 0.43809272988630665
0.37382978723404253 0.49975574010747437 0.43777318540634963
0.3740425531914894 0.4997115439122981 0.44111863383626027
0.37425531914893617 0.4971613575143684 0.44029102077809723
0.37446808510638296 0.5014612188793194 0.4422347056556016
0.37468085106382976 0.49993418265132417 0.4429090024976743
0.3748936170212766 0.5004989826587936 0.44234420249020495
0.3751063829787234 0.49774452288152715 0.44423671202777965
0.3753191489361702 0.4894753092303218 0.4463073725446476
0.37553191489361704 0.47896710259015574 0.4442817123952612
0.37574468085106383 0.4702671325617615 0.44415319483294424
0.3759574468085106 0.46563940203361415 0.4460185637518319
0.37617021276595747 0.462348998537448 0.44626981924707804
0.37638297872340426 0.4583772156665773 0.4471670345702286
0.37659574468085105 0.4559484564690492 0.4480894346854531
0.37680851063829784 0.4498433851413218 0.44894968246213973
0.3770212765957447 0.44868921336482903 0.44888456518781206
0.3772340425531915 0.44518226063856503 0.44800782700624614
0.3774468085106383 0.4450415241817294 0.44708797220041196
0.3776595744680851 0.44464223958271737 0.44619703412391043
0.3778723404255319 0.4441984813565605 0.4453095176715967
0.3780851063829787 0.44471383626144856 0.44698957913119464
0.37829787234042556 0.4456440847066042 0.4497803244666617
0.37851063829787235 0.44642163743716967 0.4509037616023448
0.37872340425531914 0.4465428763567852 0.4512433068262068
0.37893617021276593 0.4435097148056483 0.4535181779895594
0.3791489361702128 0.442431530380716 0.45252305099103635
0.3793617021276596 0.4409065190636745 0.4538872785186926
0.37957446808510636 0.43880660857711995 0.45648649038496514
0.3797872340425532 0.43661322405389275 0.45484145199254467
0.38 0.4364922366398018 0.45414015735242724
0.3802127659574468 0.4389153082996543 0.4552078875749443
0.3804255319148936 0.43673795241458363 0.45756031789069107
0.38063829787234044 0.4293564389776213 0.45489059800645515
0.38085106382978723 0.4255185753935398 0.46064739338257743
0.381063829787234 0.4231577902379146 0.46043111767739725
0.38127659574468087 0.415012097361561 0.4561993821483382
0.38148936170212766 0.4083073469235248 0.45998897431547264
0.38170212765957445 0.40408500714917317 0.46147161794180336
0.3819148936170213 0.40031217846472206 0.46110310631879453
0.3821276595744681 0.3987030151371223 0.46262823644357587
0.3823404255319149 0.3917083475370162 0.46205519658440264
0.3825531914893617 0.38876823327569693 0.46129778729548576
0.3827659574468085 0.38651826292537966 0.4615520839236677
0.3829787234042553 0.38756070989948316 0.46010337734141626
0.3831914893617021 0.38505513289379045 0.4593101402215872
0.38340425531914896 0.38301111392474896 0.4591737906146147
0.38361702127659575 0.38351566675620524 0.4596694822423291
0.38382978723404254 0.3867062074424804 0.4581597940113876
0.38404255319148933 0.3865115266817607 0.4571224711150568
0.3842553191489362 0.38612199600935315 0.4588056558346056
0.384468085106383 0.3856937689205339 0.458971736678228
0.38468085106382977 0.38700344974026335 0.4587200781631655
0.3848936170212766 0.38739618954567656 0.4562128320115578
0.3851063829787234 0.39007221895029265 0.45668096925439655
0.3853191489361702 0.39498858815073346 0.4539692310861109
0.38553191489361704 0.40486688431440554 0.4538348803126526
0.38574468085106384 0.4171763552979293 0.4536217081993913
0.38595744680851063 0.428107479067395 0.44890617131897226
0.3861702127659574 0.4392803399417415 0.4481613139273492
0.38638297872340427 0.44749787390873 0.4491698581003279
0.38659574468085106 0.45346317202826225 0.4483910757766918
0.38680851063829785 0.45846107666250896 0.4485988736477251
0.3870212765957447 0.4635970448513414 0.4505112995418364
0.3872340425531915 0.4661976668610883 0.44898882648073096
0.3874468085106383 0.4692670530443767 0.4486553074721348
0.3876595744680851 0.4704445530043966 0.4504173468136331
0.3878723404255319 0.46967658707308224 0.4524396934649737
0.3880851063829787 0.47028316330478104 0.45612044022449827
0.3882978723404255 0.4678411243977087 0.4602372371652112
0.38851063829787236 0.4684363700425311 0.4597512215549287
0.38872340425531915 0.4665527632662478 0.45873099052467325
0.38893617021276594 0.4725558930621453 0.4625758161377281
0.3891489361702128 0.47573152054661416 0.46175163929639945
0.3893617021276596 0.47892394728813525 0.46262823644357587
0.3895744680851064 0.4777113963966807 0.46134553723887817
0.38978723404255317 0.48003522236809115 0.45676599902296044
0.39 0.482480189945217 0.457388323222139
0.3902127659574468 0.4824161271185067 0.45762516771733003
0.3904255319148936 0.4828630703229123 0.45495341842916426
0.39063829787234045 0.48415234070133195 0.4528870744580491
0.39085106382978724 0.4863335499982758 0.4502870598811748
0.39106382978723403 0.49193734253104776 0.4471922598453185
0.3912765957446808 0.4938935026868587 0.4421858495500506
0.39148936170212767 0.4958706747714023 0.44147444105424544
0.39170212765957446 0.4982067646311666 0.4414193338544216
0.39191489361702125 0.49877870053737183 0.43816402773461854
0.3921276595744681 0.49957182750608664 0.4356389536834789
0.3923404255319149 0.5006056507794406 0.4318714857928382
0.3925531914893617 0.5007327796775769 0.43394734243998545
0.39276595744680853 0.5015974271676074 0.4308354989504787
0.3929787234042553 0.4989481638617743 0.4313064824254922
0.3931914893617021 0.5007310560185979 0.4352676811627454
0.3934042553191489 0.5014191409955273 0.43716707197047827
0.39361702127659576 0.49693667325727436 0.4364722717710217
0.39382978723404255 0.49794671894916925 0.4380571892091111
0.39404255319148934 0.49862988866900243 0.43722520762090866
0.3942553191489362 0.49721120951245595 0.43683861950561925
0.394468085106383 0.4995885571604601 0.43362535712254363
0.3946808510638298 0.497912549597993 0.4306024683650352
0.39489361702127657 0.4948705422569615 0.4324334121189379
0.3951063829787234 0.49231160878729824 0.4362307285318271
0.3953191489361702 0.48445830261505896 0.43894393949989174
0.395531914893617 0.47678346112061354 0.441872070123621
0.39574468085106385 0.46996356407260387 0.445038511840426
0.39595744680851064 0.4631661483671567 0.4460185637518319
0.39617021276595743 0.4579016203075366 0.4460185637518319
0.3963829787234043 0.45418416406456114 0.4460185637518319
0.39659574468085107 0.44937480588244566 0.4481083846678946
0.39680851063829786 0.44496244541108426 0.4504547812026161
0.39702127659574465 0.44487219650130744 0.44767291404362225
0.3972340425531915 0.44245530591022864 0.4538921853792696
0.3974468085106383 0.43843729604944986 0.45481191988275516
0.3976595744680851 0.4382022471910112 0.45481191988275516
0.39787234042553193 0.4450748271249096 0.4606741573033708
0.3980851063829787 0.44601628305202373 0.46067301695346674
0.3982978723404255 0.4444220565427083 0.459875903698809
0.3985106382978723 0.4433919534682053 0.4583520554464254
0.39872340425531916 0.44374528890999776 0.4597165701984837
0.39893617021276595 0.440627520507675 0.4565498003786287
0.39914893617021274 0.4413776936416544 0.45627752446978237
0.3993617021276596 0.4405515143147553 0.45676599902296044
0.3995744680851064 0.43932302747562413 0.4584325967341448
0.3997872340425532 0.43828786861795793 0.45515440559054204
0.4 0.4382022471910112 0.4538644962518271
0.4002127659574468 0.437142660261013 0.4576958686731226
0.4004255319148936 0.43052237625069073 0.4537666575024025
0.4006382978723404 0.43183611095971547 0.45361368895857057
0.40085106382978725 0.42737575689306506 0.4581440265648453
0.40106382978723404 0.42147620901582056 0.4549260913590757
0.40127659574468083 0.41575990565563914 0.45349934426362265
0.4014893617021277 0.4110094523836023 0.4550828286876349
0.40170212765957447 0.40645157186840597 0.4563988315077398
0.40191489361702126 0.4014258526538408 0.4573919294663351
0.40212765957446805 0.4000370913748511 0.4559601223340146
0.4023404255319149 0.3967107216866216 0.45481191988275516
0.4025531914893617 0.3951719929821431 0.4553206962299836
0.4027659574468085 0.39313012264843533 0.4546836155648985
0.40297872340425533 0.39288304528976703 0.45443653820623003
0.4031914893617021 0.38997091997116057 0.45283941568567637
0.4034042553191489 0.3905085336441214 0.45188080117244755
0.40361702127659577 0.3897646961708429 0.45342045282769156
0.40382978723404256 0.3885289782662449 0.45054971863410526
0.40404255319148935 0.3901306373448698 0.45344153849042346
0.40425531914893614 0.3875281309690123 0.45570099850396745
0.404468085106383 0.3883732291157791 0.4538737321429823
0.4046808510638298 0.3882269680278896 0.4564003463032366
0.4048936170212766 0.3871988915869327 0.45240062891335336
0.4051063829787234 0.39264548046690334 0.45615305252357174
0.4053191489361702 0.39617525029421097 0.45628820077470084
0.405531914893617 0.4044599190431744 0.4524828351589373
0.4057446808510638 0.4127283929804922 0.4541924169779596
0.40595744680851065 0.4230228631224473 0.45316932083549655
0.40617021276595744 0.43224416240132835 0.4485809718884225
0.40638297872340423 0.44363362945984647 0.44653742711567884
0.4065957446808511 0.4507300983380636 0.4458449004875506
0.40680851063829787 0.4524725772662853 0.443132132756197
0.40702127659574466 0.4587141581870955 0.4414133657750726
0.4072340425531915 0.4621749299853476 0.4433845249242844
0.4074468085106383 0.46262823644357587 0.4432561794755729
0.4076595744680851 0.46866321935001215 0.4448117258719345
0.4078723404255319 0.46304862202572067 0.45146041559030275
0.40808510638297874 0.4704165064679944 0.45674846993770907
0.4082978723404255 0.462872493669204 0.45012212781274474
0.4085106382978723 0.46740527067741633 0.45340222584596196
0.40872340425531917 0.4667041808416761 0.45059786650300165
0.40893617021276596 0.46728475488388804 0.452920162671849
0.40914893617021275 0.4668219208442286 0.4502122481524845
0.40936170212765954 0.46886647816256843 0.4512420225694647
0.4095744680851064 0.47142159257449934 0.4506925561551787
0.4097872340425532 0.4726544667980417 0.4501825566856822
0.41 0.47517863399879295 0.45188080117244755
0.4102127659574468 0.4763067904250122 0.45140838370221337
0.4104255319148936 0.47894661834146596 0.45195969276892634
0.4106382978723404 0.4823621361508022 0.45227276680491163
0.41085106382978726 0.4831460674157304 0.45124033935985164
0.41106382978723405 0.4873293386384255 0.4516009734727941
0.41127659574468084 0.49127093773496266 0.4488639573076252
0.41148936170212763 0.49518526962615933 0.4463497198522843
0.4117021276595745 0.4967099438620028 0.4468809257867707
0.41191489361702127 0.49682462139716654 0.44333585012821425
0.41212765957446806 0.49584967581061723 0.44211249945497477
0.4123404255319149 0.49872079890597326 0.44095966100712325
0.4125531914893617 0.49839098967877976 0.4387915759025219
0.4127659574468085 0.5023335664526888 0.44291079885897744
0.4129787234042553 0.4997890115228993 0.4414025793554133
0.41319148936170214 0.4982773937483705 0.44063205911231773
0.41340425531914893 0.5017098192476794 0.44267658031997315
0.4136170212765957 0.5021146232680734 0.4413707383923983
0.41382978723404257 0.5017704515320376 0.44537846325588565
0.41404255319148936 0.5007327796775769 0.44544836525552906
0.41425531914893615 0.5007327796775769 0.44419646638271904
0.414468085106383 0.501344132939164 0.4450415241817294
0.4146808510638298 0.500369566975028 0.4457116503180551
0.4148936170212766 0.49975574010747437 0.44674431204027465
0.4151063829787234 0.49373146756287695 0.44699560332193444
0.4153191489361702 0.48467945570129445 0.44860892950979214
0.415531914893617 0.47530800993555505 0.44546610135983966
0.4157446808510638 0.46874980620197165 0.4450415241817294
0.41595744680851066 0.4644424315296724 0.44704805984222523
0.41617021276595745 0.45646864816179017 0.4498672518600082
0.41638297872340424 0.45170264986565883 0.44921690942232284
0.4165957446808511 0.4496608393347922 0.45161491847499746
0.4168085106382979 0.44740813057706974 0.4506794051188655
0.41702127659574467 0.4450415241817294 0.4538348803126526
0.41723404255319146 0.4441284494479508 0.455052313291024
0.4174468085106383 0.4417473244195774 0.4562907143856864
0.4176595744680851 0.43988195780047057 0.45508628841350107
0.4178723404255319 0.43958504005842375 0.4563050680671563
0.41808510638297874 0.441133365901319 0.4578286249524812
0.41829787234042554 0.4400035152038003 0.46026204308202756
0.41851063829787233 0.4385603031680198 0.4594361901171828
0.4187234042553191 0.4368500765204798 0.4614244195042284
0.41893617021276597 0.4420961833179149 0.4597042288100215
0.41914893617021276 0.4377722266042125 0.4579335459122388
0.41936170212765955 0.43624816805080613 0.4535434743530897
0.4195744680851064 0.43534773832367507 0.45195741101541925
0.4197872340425532 0.4352711284807034 0.44998925361358943
0.42 0.4362481443677472 0.44992672203224227
0.42021276595744683 0.43315478806460767 0.4479726428920372
0.4204255319148936 0.43016421954511447 0.4480834984345752
0.4206382978723404 0.42775174787585524 0.4491197083656723
0.4208510638297872 0.4229350061234659 0.4494728114362111
0.42106382978723406 0.4165564469487313 0.4485366275271
0.42127659574468085 0.41069878531750253 0.44992672203224227
0.42148936170212764 0.4037863490501406 0.4507244238704974
0.4217021276595745 0.4004122700512783 0.4522906794339318
0.4219148936170213 0.3977409880759204 0.45487102444697375
0.4221276595744681 0.3962603902106666 0.45683684355702714
0.42234042553191486 0.3947043066086093 0.4547725604570818
0.4225531914893617 0.392545579216352 0.45552476763269534
0.4227659574468085 0.3925425812040023 0.4561468823340028
0.4229787234042553 0.3925858295819626 0.4557889594528579
0.42319148936170214 0.39155562729961735 0.4572404796460022
0.42340425531914894 0.3913043478260869 0.4561706908299595
0.42361702127659573 0.3896137017934433 0.45747960548550154
0.4238297872340426 0.38391616995498135 0.4550259892276127
0.42404255319148937 0.3844505419443383 0.46347451599440465
0.42425531914893616 0.3876203758865212 0.454901594419093
0.42446808510638295 0.39189619451061913 0.4564771043587827
0.4246808510638298 0.3885254788275667 0.45398713002444024
0.4248936170212766 0.390410642495018 0.45481191988275516
0.4251063829787234 0.39585736806045285 0.4545416029620788
0.42531914893617023 0.401059207438351 0.45415538147309953
0.425531914893617 0.40717862542452554 0.4559436842710845
0.4257446808510638 0.41849146313066093 0.45731438357558896
0.4259574468085106 0.42644057047620015 0.45676599902296044
0.42617021276595746 0.4321855622173185 0.4551572658541033
0.42638297872340425 0.4412467764498962 0.4556275747034105
0.42659574468085104 0.44767234236040704 0.45742370356762985
0.4268085106382979 0.4511009789527075 0.4563088409326846
0.4270212765957447 0.4580661852579216 0.45810847848491054
0.4272340425531915 0.4669314183697001 0.4571124557995141
0.4274468085106383 0.470835807474366 0.4552024432828441
0.4276595744680851 0.47142159257449934 0.4556116717009454
0.4278723404255319 0.4722650722267164 0.4532585204962066
0.4280851063829787 0.4732987505253408 0.45375795912328903
0.42829787234042555 0.4743340424692306 0.45191813880360027
0.42851063829787234 0.4743919337690873 0.44828642276627984
0.42872340425531913 0.47493420683961557 0.4551956434299167
0.428936170212766 0.4721565237145032 0.4506616531722461
0.42914893617021277 0.47682613091719145 0.454292579390576
0.42936170212765956 0.4790991666627194 0.4520195436450482
0.42957446808510635 0.47847954079869803 0.4526391695090694
0.4297872340425532 0.4782608695652173 0.45519920599723546
0.43 0.4804094999061655 0.45676599902296044
0.4302127659574468 0.48163557487540226 0.4546321871420588
0.43042553191489363 0.4834442404615133 0.4539839668355441
0.4306382978723404 0.4851001465559355 0.4530077841152816
0.4308510638297872 0.4890111689056266 0.45253263823072937
0.43106382978723407 0.49375379854340595 0.45215998710083644
0.43127659574468086 0.4948705422569615 0.4504004600949099
0.43148936170212765 0.49643916284891243 0.44992672203224227
0.43170212765957444 0.49934059972857064 0.4465720842570368
0.4319148936170213 0.5032907172361467 0.44425107518749585
0.4321276595744681 0.5027294661143966 0.4468677814320912
0.4323404255319149 0.5007438953841561 0.44303186650862825
0.4325531914893617 0.5017936742739572 0.4382301988664371
0.4327659574468085 0.5044191692252027 0.4387357492955447
0.4329787234042553 0.5013208725577531 0.43344669823714044
0.4331914893617021 0.5002510894311604 0.43392599168715373
0.43340425531914895 0.5055015747301538 0.4314652558759648
0.43361702127659574 0.50194605748904 0.4300855191795092
0.43382978723404253 0.502321246376091 0.4343570973764753
0.4340425531914894 0.5006922658398194 0.43054798598122057
0.43425531914893617 0.49975211078961324 0.4343086061820453
0.43446808510638296 0.49879778074212344 0.43812592637200465
0.4346808510638298 0.49786116296437416 0.4382022471910112
0.4348936170212766 0.4952610160737989 0.4415897737156383
0.4351063829787234 0.4908333495916988 0.4437252825375267
0.4353191489361702 0.480838420708312 0.4448267282531382
0.43553191489361703 0.47160762954579 0.448368144191443
0.4357446808510638 0.4617793978630878 0.4504429586477118
0.4359574468085106 0.45411810662065016 0.45190627330166944
0.43617021276595747 0.45027028128399027 0.45408827243999444
0.43638297872340426 0.44664696091267486 0.4555376005885207
0.43659574468085105 0.44350311586983204 0.45516009748235786
0.43680851063829784 0.440010232517486 0.45691209283669076
0.4370212765957447 0.4370186826056412 0.4578383925958612
0.4372340425531915 0.43628314436476534 0.45121854842797765
0.4374468085106383 0.43707764276494127 0.4558806098871561
0.4376595744680851 0.4388222719534077 0.4559674668567109
0.4378723404255319 0.44099271623740127 0.45639343594495374
0.4380851063829787 0.4430506256448654 0.4558257788495166
0.43829787234042555 0.4462218956805828 0.45481191988275516
0.43851063829787235 0.44775644651466234 0.4544141745669294
