0.0 0.3932584269662922 0.4557889594528579
0.0002127659574468085 0.39045338682998704 0.457573984994143
0.000425531914893617 0.38764834669368187 0.459359010535428
0.0006382978723404255 0.3848433065573767 0.46114403607671306
0.000851063829787234 0.3821099208175124 0.46262823644357587
0.0010638297872340426 0.3797300609475794 0.46262823644357587
0.001276595744680851 0.3749918257342722 0.46645160915239575
0.0014893617021276596 0.37205963620098925 0.47082943302059127
0.001702127659574468 0.36921518896091143 0.4737685036879597
0.0019148936170212765 0.3681929976860219 0.4766533297316813
0.002127659574468085 0.3705182590890992 0.481728503805192
0.002340425531914894 0.3690273965266262 0.4827550270371284
0.002553191489361702 0.36559134559182876 0.4811919882755251
0.0027659574468085106 0.36304863186263037 0.4809959093517289
0.0029787234042553193 0.364622419028311 0.4770614414375271
0.0031914893617021275 0.3680739355660607 0.4786690325245701
0.003404255319148936 0.3703727620018903 0.4784677469912385
0.003617021276595745 0.373886591397643 0.47748585092928975
0.003829787234042553 0.38036518142582915 0.4789039746498252
0.004042553191489362 0.380660720382428 0.476618213907421
0.00425531914893617 0.3830997033017103 0.48393516266526776
0.004468085106382979 0.39217905270129905 0.4842310444123322
0.004680851063829788 0.3960572065948204 0.4785255477287761
0.004893617021276595 0.40607560794784475 0.482972567560402
0.005106382978723404 0.41148802002131724 0.4768788499042945
0.005319148936170213 0.428551245132503 0.4718504155382917
0.005531914893617021 0.445664709388484 0.46270794151326483
0.00574468085106383 0.4586557091498578 0.45495818820900846
0.005957446808510639 0.4746340590597904 0.44942760570934587
0.006170212765957446 0.4857577117851022 0.4435134108294387
0.006382978723404255 0.49606083696218467 0.4401867913505193
0.006595744680851064 0.504985253158283 0.4417079644864442
0.006808510638297872 0.5051019823366204 0.44260808372527893
0.007021276595744681 0.5057482901776149 0.44600559354714636
0.00723404255319149 0.5094978372735214 0.45277294513761346
0.007446808510638298 0.5072784510834948 0.45632641350204256
0.007659574468085106 0.5029817162686776 0.4584252207122701
0.007872340425531916 0.502828528339419 0.45857840864152866
0.008085106382978723 0.5053714822465236 0.4583122332126092
0.008297872340425531 0.5099495547653267 0.4553655404960314
0.00851063829787234 0.5149842999278419 0.4505217840897924
0.008723404255319148 0.5170087050504757 0.4488161835346016
0.008936170212765958 0.5124618890281084 0.4470025550858851
0.009148936170212766 0.5140911762741827 0.4494464859549964
0.009361702127659575 0.5194237686797062 0.4490913161954601
0.009574468085106383 0.5161745725512601 0.44894968246213973
0.00978723404255319 0.5170727410596498 0.4506340502926737
0.01 0.5146405148811106 0.4509037616023448
0.010212765957446808 0.5220449497874016 0.452812165634442
0.010425531914893617 0.522227650219834 0.45366426610500954
0.010638297872340425 0.5219418383458649 0.4494503689089606
0.010851063829787235 0.5194060502949424 0.44531532114526995
0.011063829787234043 0.5212506106497312 0.44949053809290435
0.01127659574468085 0.5221250210222861 0.44584368167732097
0.01148936170212766 0.52566599963253 0.44339719314472925
0.011702127659574468 0.5230359068830389 0.4393480696680113
0.011914893617021277 0.519666797519729 0.43755960377217396
0.012127659574468085 0.5183194919394236 0.42609108330597156
0.012340425531914893 0.5166796417939773 0.4210868784213028
0.012553191489361702 0.5134496562047274 0.41624190003742806
0.01276595744680851 0.5097021961019543 0.4125492507750661
0.01297872340425532 0.5057129110876005 0.4139437151959629
0.013191489361702127 0.5018791945800509 0.4205633879900403
0.013404255319148937 0.5007327796775769 0.4301401481702242
0.013617021276595745 0.49825713828105084 0.43068958217271164
0.013829787234042552 0.49423047395681147 0.4312787273828048
0.014042553191489362 0.48617453228528007 0.431362970200293
0.01425531914893617 0.48605486906732487 0.4281194126680011
0.01446808510638298 0.48480499871902694 0.4142810609694954
0.014680851063829787 0.47935525274907415 0.40644572611552926
0.014893617021276596 0.47149211170906047 0.4028575899395322
0.015106382978723404 0.4599903273071042 0.40301102278320516
0.015319148936170212 0.44942025606887975 0.4078053502053016
0.015531914893617021 0.43916816015676174 0.4140820208543328
0.01574468085106383 0.4291514604687734 0.4216651337355922
0.015957446808510637 0.4244435521475711 0.43054621275419813
0.016170212765957447 0.4202583376154583 0.43891664181842377
0.016382978723404256 0.4147646299667467 0.4453577603232655
0.016595744680851062 0.41424394135398135 0.4506074107860281
0.01680851063829787 0.4109053135500765 0.452650397964142
0.01702127659574468 0.41732894170964324 0.4528578407425501
0.01723404255319149 0.42046387299902804 0.4528578407425501
0.017446808510638297 0.4225588985142838 0.45091447715743077
0.017659574468085106 0.4227597270620262 0.4510938745950012
0.017872340425531916 0.4247632718758539 0.45355833247371874
0.018085106382978722 0.4173630478709362 0.4505823932544241
0.01829787234042553 0.41485823692052903 0.44938573254120096
0.01851063829787234 0.4103819613055312 0.4500396311067188
0.01872340425531915 0.40693698094772834 0.44762343050520054
0.018936170212765956 0.4046525515001419 0.44661486508067005
0.019148936170212766 0.4006683250377627 0.4443928897944312
0.019361702127659575 0.3996284074630932 0.4407025159896705
0.01957446808510638 0.39966182708747466 0.43917928676111373
0.01978723404255319 0.4019404298980107 0.43856504478078023
0.02 0.3996004300356464 0.44025928277001425
0.02021276595744681 0.395878769942705 0.4486828821483192
0.020425531914893616 0.3935570751049735 0.4591809166099641
0.020638297872340425 0.38603291419475405 0.46699648097846674
0.020851063829787235 0.3815332169491895 0.4743540346013758
0.02106382978723404 0.3764321350511595 0.48379592508589603
0.02127659574468085 0.37342140228640525 0.4937168232136647
0.02148936170212766 0.37176355642403514 0.5045411425743422
0.02170212765957447 0.37117717228709857 0.5072788645998269
0.021914893617021276 0.3687168035040626 0.5069592416914483
0.022127659574468085 0.3664458122678345 0.5032465936114175
0.022340425531914895 0.36640425550532424 0.4942811054539373
0.0225531914893617 0.36687835857352225 0.48866190024296274
0.02276595744680851 0.36687835857352225 0.48325720961610025
0.02297872340425532 0.36552047630705226 0.4805130471422902
0.023191489361702126 0.3707163043025068 0.48093895181407126
0.023404255319148935 0.37196626586527787 0.4850636389198243
0.023617021276595745 0.3775388673424748 0.4926775414613976
0.023829787234042554 0.37685226531220833 0.4956440707894037
0.02404255319148936 0.3868431633134967 0.5023349330336677
0.02425531914893617 0.38739618954567656 0.5085475077269624
0.02446808510638298 0.3926724640570217 0.5114243468543008
0.024680851063829785 0.39989843667368963 0.5105031753786029
0.024893617021276595 0.40775511501538353 0.5091975945511428
0.025106382978723404 0.41907216861805935 0.5011819912009516
0.025319148936170214 0.4317582322941826 0.49235105277294533
0.02553191489361702 0.44694424430409024 0.47928926815316425
0.02574468085106383 0.46114665855018605 0.4669500123386658
0.02595744680851064 0.47652141120744695 0.4554472688724785
0.026170212765957445 0.4878029353992963 0.44573554084703293
0.026382978723404255 0.49740433046633653 0.4356481946962763
0.026595744680851064 0.5033575386453151 0.4292874510317668
0.026808510638297874 0.5057445045379437 0.4278800682000071
0.02702127659574468 0.5077036685401513 0.42856346336184153
0.02723404255319149 0.5073527182721151 0.42940889106008795
0.0274468085106383 0.5065950170981925 0.43135000154714537
0.027659574468085105 0.505897399605371 0.4295495397991097
0.027872340425531914 0.506362773489962 0.42470787168062496
0.028085106382978724 0.5073911779900993 0.42195433185565884
0.028297872340425533 0.5092761183271592 0.40966414288721753
0.02851063829787234 0.514081961764484 0.400624698988257
0.02872340425531915 0.5220754880614602 0.3953076074554809
0.02893617021276596 0.5203803507244867 0.39025612182607905
0.029148936170212764 0.5232046897899365 0.38889196893978
0.029361702127659574 0.5232046897899365 0.3949148421559451
0.029574468085106383 0.5232046897899365 0.40093771537211015
0.029787234042553193 0.5232046897899365 0.4061188269914867
0.03 0.5232046897899365 0.411593730248135
0.03021276595744681 0.5234701794212535 0.41936227296192463
0.030425531914893618 0.5244861435530327 0.42739101492876125
0.030638297872340424 0.5258761229996392 0.4312022762338317
0.030851063829787233 0.5271128480703469 0.43573593791303417
0.031063829787234043 0.5271128480703469 0.4388524009044307
0.03127659574468085 0.5278568896374519 0.4416444094654267
0.03148936170212766 0.5286427680913299 0.4432161663731827
0.03170212765957447 0.5280898876404494 0.440681142353138
0.031914893617021274 0.524394951309744 0.4407628309028446
0.03212765957446809 0.5206707226313415 0.44095062943464214
0.03234042553191489 0.5190072875819175 0.44268889332663897
0.0325531914893617 0.5141828723041528 0.4385489917645992
0.03276595744680851 0.512457254518808 0.4340129547032713
0.03297872340425532 0.5076654725877118 0.42932389773125146
0.033191489361702124 0.5057450514642705 0.4292818171239073
0.03340425531914894 0.49928130035273205 0.42940889106008795
0.03361702127659574 0.49494021949918726 0.4313281315791801
0.033829787234042556 0.48994942794658286 0.43425817245073534
0.03404255319148936 0.4888248251478872 0.4334087891847276
0.03425531914893617 0.4857847400029291 0.43471725080833806
0.03446808510638298 0.477971015384075 0.4378049159831933
0.03468085106382979 0.47532332911470493 0.44173857286150814
0.03489361702127659 0.46576258363989836 0.4476221085383122
0.035106382978723406 0.4526221817225123 0.44968188874821746
0.03531914893617021 0.44048452099449226 0.4513375822768503
0.03553191489361702 0.430864561905736 0.453152930315482
0.03574468085106383 0.42298161700402515 0.45439402967713477
0.03595744680851064 0.41461880913141175 0.45380798263722516
0.036170212765957444 0.4085319082610851 0.45374863500718404
0.036382978723404256 0.40494677728959133 0.4568021235408923
0.03659574468085106 0.40205178309721545 0.45969711773326827
0.03680851063829787 0.4042162797882614 0.46155240061130764
0.03702127659574468 0.409382061268255 0.4667868581046871
0.03723404255319149 0.41172108203923047 0.47073653394142717
0.0374468085106383 0.41670737664875435 0.47239863214460187
0.03765957446808511 0.4167083297686732 0.472397679024683
0.03787234042553191 0.41936029852794704 0.469745710265409
0.038085106382978726 0.4164328299171009 0.45985051710841096
0.03829787234042553 0.4142540455789441 0.449623435344671
0.03851063829787234 0.41447512203177866 0.43930809829528056
0.03872340425531915 0.412881083633806 0.43250374030132005
0.03893617021276596 0.4100715850792606 0.4282771406602098
0.03914893617021276 0.4067485766770138 0.4276125389797603
0.039361702127659576 0.40459161437705604 0.4308756294213069
0.03957446808510638 0.40460473144830594 0.43832870187924894
0.03978723404255319 0.4034201926166158 0.4431522115986932
0.04 0.4029743637516872 0.44590964592057053
0.04021276595744681 0.4003009781088122 0.45208918081271304
0.04042553191489362 0.3948547215937657 0.46096309920764716
0.040638297872340426 0.392533091695549 0.46702278753565646
0.04085106382978723 0.38736361768641997 0.4685447602962858
0.041063829787234045 0.38534010591801593 0.4719172799102925
0.04127659574468085 0.38357539886795244 0.47471017966582896
0.04148936170212766 0.38081371253517354 0.4740437515450254
0.04170212765957447 0.376648754274548 0.4673133517393513
0.041914893617021276 0.3765014414321662 0.46262823644357587
0.04212765957446808 0.37487368307532715 0.46222922062901667
0.042340425531914895 0.3686844070896564 0.4591345826361813
0.0425531914893617 0.36719751620703306 0.4580621962265738
0.04276595744680851 0.3671894795098141 0.4558763129753118
0.04297872340425532 0.3677260332188487 0.4526569907211039
0.043191489361702126 0.3697714436424463 0.4504437670483314
0.04340425531914894 0.3728814095625256 0.45099907988270554
0.043617021276595745 0.37781478309081523 0.45969711773326827
0.04382978723404255 0.37960098954418947 0.45990828332660444
0.044042553191489364 0.38050915046335615 0.4689898925182719
0.04425531914893617 0.3866288308369106 0.4746720148188246
0.044468085106382976 0.3919926455221243 0.4733598411507178
0.04468085106382979 0.39938039944454046 0.47286635331806964
0.044893617021276595 0.40874651086561015 0.4720070866026728
0.0451063829787234 0.4199860453580735 0.4671978023519357
0.045319148936170214 0.4348074336839087 0.46035075479885035
0.04553191489361702 0.4510281952875306 0.45510551997830323
0.045744680851063826 0.46606401046795826 0.4505972859743186
0.04595744680851064 0.47722096425901445 0.4547700093920217
0.046170212765957445 0.4901963248768137 0.4635192514739268
0.04638297872340425 0.49754498540189346 0.4693008833695093
0.046595744680851064 0.5047966417279001 0.47785474381812837
0.04680851063829787 0.5070617301956934 0.48616006820003715
0.047021276595744683 0.5075720566682951 0.48970799102011964
0.04723404255319149 0.5075720566682951 0.4913389638136661
0.047446808510638296 0.5066047614182304 0.4929067187967184
0.04765957446808511 0.5062164598307726 0.4939252291332903
0.047872340425531915 0.5087177487272516 0.49005318702374034
0.04808510638297872 0.5075649957877235 0.48393617212849827
0.048297872340425534 0.5127863770125658 0.47811834165201117
0.04851063829787234 0.518157429324068 0.47207917079186035
0.048723404255319146 0.5182226395116522 0.4648552054400187
0.04893617021276596 0.5220189307822741 0.46039888024811443
0.049148936170212765 0.5217182485430798 0.45438604577281233
0.04936170212765957 0.5223360620146881 0.44789992388999583
0.049574468085106384 0.5213125405253435 0.44100950615009443
0.04978723404255319 0.5236077529041314 0.4352098920499338
0.05 0.5251170104367816 0.42953416654016807
0.05021276595744681 0.5256237012891971 0.4254535579276859
0.050425531914893615 0.5268331410004302 0.42117494906899766
0.05063829787234043 0.5299329355025192 0.41989015436367266
0.050851063829787234 0.5274131519982178 0.418811607752895
0.05106382978723404 0.5264000925480411 0.41954640164570617
0.05127659574468085 0.5291492468875726 0.42129433453490656
0.05148936170212766 0.5285548164590776 0.4230817248208441
0.051702127659574465 0.5280898876404494 0.42516583471754643
0.05191489361702128 0.524595802276059 0.42375369009748226
0.052127659574468084 0.5232373540086878 0.42071352758541847
0.05234042553191489 0.512457254518808 0.4156077566304813
0.0525531914893617 0.5118411634534924 0.4117341657889104
0.05276595744680851 0.5049929634622319 0.41022012516228074
0.05297872340425532 0.5028244223737466 0.40671406032251495
0.05319148936170213 0.5034594756672847 0.4053898429356425
0.053404255319148934 0.4965352773985615 0.403318166665923
0.05361702127659575 0.49739366700548426 0.40164378913543064
0.05382978723404255 0.49492785864040373 0.4006005528379221
0.05404255319148936 0.49075899561426134 0.40117643770825767
0.05425531914893617 0.4914440613414866 0.400833904844645
0.05446808510638298 0.4861054849314718 0.40009770395701016
0.054680851063829784 0.47788608943103983 0.40460625651531645
0.0548936170212766 0.4722201822775373 0.40841190626611085
0.0551063829787234 0.4608712648237896 0.41592461192174013
0.05531914893617021 0.44931582722579405 0.42236989874374015
0.05553191489361702 0.43825939730807123 0.43228805511852303
0.05574468085106383 0.4272454042042466 0.43936775370518616
0.055957446808510634 0.41750467129248536 0.44855681390274466
0.05617021276595745 0.41373467378807993 0.46113158295740303
0.05638297872340425 0.4129183731240247 0.4701108902620116
0.056595744680851066 0.415361036685287 0.47825310808634774
0.05680851063829787 0.4089735852754908 0.48092709708611014
0.05702127659574468 0.4113703793705736 0.4881047059810105
0.05723404255319149 0.41355122352006796 0.48209212594903933
0.0574468085106383 0.41315407130471377 0.47994761500805955
0.057659574468085104 0.413854421786712 0.47536882993463714
0.05787234042553192 0.4154363751954467 0.467682078685378
0.05808510638297872 0.41296740192879366 0.46089240220208216
0.05829787234042553 0.4111587850436929 0.45531059482638564
0.05851063829787234 0.4099214658543863 0.4507737577989279
0.05872340425531915 0.40830423398929583 0.44712600912163175
0.058936170212765954 0.40479507937469433 0.4479058212582099
0.05914893617021277 0.4012859247600927 0.44868563339478806
0.05936170212765957 0.4006514113671591 0.45005709728243737
0.059574468085106386 0.3987113182095293 0.4509037616023448
0.05978723404255319 0.3957009989604038 0.452857948467129
0.06 0.39356377111435276 0.4581093898670442
0.06021276595744681 0.39104552645392227 0.46005622683223724
0.06042553191489362 0.3875663547118155 0.45969711773326827
0.06063829787234042 0.38413090346452683 0.4581716200592368
0.060851063829787236 0.3778350697667926 0.4569354726647097
0.06106382978723404 0.37404954646004784 0.45503319381329344
0.06127659574468085 0.3709098047577686 0.45867268724165394
0.06148936170212766 0.3677677490866042 0.46299301378950497
0.06170212765957447 0.3659013190034197 0.4652310055885661
0.06191489361702127 0.36491034398313793 0.46418592557566846
0.062127659574468086 0.3610161211529066 0.4621700894186816
0.06234042553191489 0.3604587619302878 0.4603954776920614
0.0625531914893617 0.36036341189812454 0.460022460204624
0.0627659574468085 0.36356604161354356 0.46335544324531347
0.06297872340425532 0.3656648338508791 0.4712448440364432
0.06319148936170213 0.3703934484765091 0.48372253011046784
0.06340425531914894 0.3750588440761455 0.4969845001295357
0.06361702127659574 0.38153395212506114 0.5105268434860671
0.06382978723404255 0.38473327898665916 0.5258723930874253
0.06404255319148935 0.39262632778703616 0.5372281841622193
0.06425531914893617 0.3982925767444001 0.5428944331195833
0.06446808510638298 0.401851588387028 0.5441149321888541
0.06468085106382979 0.4089141816831 0.5391450193053714
0.06489361702127659 0.4175492554778473 0.5282926287519636
0.0651063829787234 0.4266630314160487 0.5157927208541594
0.06531914893617022 0.44024320400981565 0.5024666096062109
0.06553191489361702 0.4530131537768609 0.4861957819369911
0.06574468085106383 0.46626519048272774 0.4650204147427372
0.06595744680851064 0.48251737683973384 0.44825298447392736
0.06617021276595744 0.4905778839404406 0.4337015493766086
0.06638297872340425 0.5024558409712394 0.42126407605313976
0.06659574468085107 0.5073441120480738 0.41449738385009155
0.06680851063829787 0.5118356698283039 0.41115593157339075
0.06702127659574468 0.5105031753786029 0.4114521752211196
0.06723404255319149 0.510942021232476 0.41172283093588496
0.06744680851063829 0.5104654886629713 0.413306581511211
0.06765957446808511 0.5106842877767505 0.416092561874947
0.06787234042553192 0.5114802149487054 0.4209257615768077
0.06808510638297872 0.5100473843418074 0.4268681058900636
0.06829787234042553 0.5142591737006923 0.4307983704360813
0.06851063829787234 0.5136685364427291 0.4373823989526462
0.06872340425531914 0.5181065995642218 0.4391367082860734
0.06893617021276596 0.5202735710796287 0.44611688336436317
0.06914893617021277 0.5202735710796287 0.44905574478694343
0.06936170212765957 0.5202735710796287 0.4501053050396582
0.06957446808510638 0.5207516664776233 0.4509037616023448
0.06978723404255319 0.5213189812923865 0.4536297683846872
0.06999999999999999 0.5189243611987077 0.4570919255575387
0.07021276595744681 0.5187653095742297 0.4533036583773562
0.07042553191489362 0.5192965315095261 0.4507216416067303
0.07063829787234042 0.518705821952609 0.4456098046643683
0.07085106382978723 0.5196143440312148 0.4427696325198356
0.07106382978723404 0.5209850096266648 0.43926465128327663
0.07127659574468086 0.5196854368128929 0.4421151817831071
0.07148936170212766 0.5167452911320356 0.44053620466403376
0.07170212765957447 0.5154453974198066 0.4401563263312165
0.07191489361702127 0.5114647469080319 0.4401253902498694
0.07212765957446808 0.5102660134746457 0.43851846306295406
0.07234042553191489 0.5078670902710481 0.44255295587555127
0.0725531914893617 0.507984841857154 0.4450415241817294
0.07276595744680851 0.5023945184599962 0.44621088561287314
0.07297872340425532 0.4998791664244974 0.44894968246213973
0.07319148936170213 0.4950723887886735 0.4498257987663862
0.07340425531914893 0.49240554147111515 0.45039283995670376
0.07361702127659574 0.4896136825886124 0.4528338982297938
0.07382978723404256 0.48675823618507885 0.454175405342173
0.07404255319148936 0.4847673422002022 0.4538348803126526
0.07425531914893617 0.48216055727108476 0.4525265138361539
0.07446808510638298 0.4784506051798947 0.4491394180768171
0.07468085106382978 0.4704079502588054 0.44453470302388237
0.0748936170212766 0.46397180349857 0.4416707927233166
0.07510638297872341 0.45881947703269776 0.44037161401914343
0.07531914893617021 0.44848625638749645 0.4378421307798248
0.07553191489361702 0.4403182351138761 0.4379377487006531
0.07574468085106383 0.4313217224547855 0.4369512426935157
0.07595744680851063 0.42380532416979944 0.4331200356935918
0.07617021276595745 0.4173823635823518 0.43281080914030023
0.07638297872340426 0.4110761612839942 0.4348122871471813
0.07659574468085106 0.4075324897175872 0.4295764438907164
0.07680851063829787 0.4103703139838834 0.42223480451880496
0.07702127659574468 0.4130637602490882 0.42035099304842044
0.0772340425531915 0.41475329750854906 0.41855790623542477
0.0774468085106383 0.41511946186483917 0.418050580575147
0.07765957446808511 0.41754615383769556 0.4210303220726487
0.07787234042553191 0.41654317112728817 0.4251887088541339
0.07808510638297872 0.4157303370786516 0.4350226929829101
0.07829787234042553 0.41547615319230724 0.4444377564237956
0.07851063829787235 0.41345291730719824 0.45669571675562454
0.07872340425531915 0.4102794641727314 0.4660220913852146
0.07893617021276596 0.4114896633206933 0.47146909478557764
0.07914893617021276 0.40497409705608134 0.47239276231030725
0.07936170212765957 0.402298531263304 0.47060905178178897
0.07957446808510638 0.40291920919138136 0.4695771269102307
0.0797872340425532 0.3997765730175051 0.4702805758467472
0.08 0.3976749489012073 0.47405884171864776
0.08021276595744681 0.39517178661249025 0.4753297508549097
0.08042553191489361 0.39296261786024234 0.47469332651683344
0.08063829787234042 0.3900131453681695 0.4726515297637921
0.08085106382978724 0.38535691598786737 0.4689079983012394
0.08106382978723405 0.37941565563107194 0.46609420385768746
0.08127659574468085 0.37413017512728275 0.4644032004710116
0.08148936170212766 0.37062350175564096 0.46405330477906864
0.08170212765957446 0.3677495615593462 0.4673017611255318
0.08191489361702127 0.3661430145275644 0.4640886670619681
0.08212765957446809 0.36426995728084394 0.46605231859754204
0.0823404255319149 0.36227519767418503 0.4631923103459273
0.0825531914893617 0.3628547319711647 0.46262823644357587
0.08276595744680851 0.36529993328101773 0.4564156151424938
0.08297872340425531 0.3651876442988486 0.45267089576904235
0.08319148936170212 0.3684400481972494 0.4483650324085151
0.08340425531914894 0.3725370956274302 0.4456317941501345
0.08361702127659575 0.37619402560203774 0.44256513414393206
0.08382978723404255 0.3787723598507188 0.4434264979134551
0.08404255319148936 0.3823373209921268 0.44614450338463774
0.08425531914893616 0.38446507083536874 0.44699560332193444
0.08446808510638298 0.3884538214903325 0.4493888537149127
0.08468085106382979 0.3972721930825002 0.4528578407425501
0.0848936170212766 0.40615659306007884 0.45207589814435983
0.0851063829787234 0.41682772860292416 0.4496962296884228
0.08531914893617021 0.4304292264660635 0.4481849521480741
0.08553191489361701 0.44667205723636655 0.4395037057530543
0.08574468085106383 0.460909687495831 0.4335024266849088
0.08595744680851064 0.47374567433719533 0.431362970200293
0.08617021276595745 0.48713404069122507 0.43177396919786576
0.08638297872340425 0.4970605405325253 0.43563427469170474
0.08659574468085106 0.5041960814235438 0.43839831462520135
0.08680851063829788 0.5057857561474532 0.4389839842603259
0.08702127659574468 0.5073754308713627 0.43956965389545044
0.08723404255319149 0.5089651055952722 0.440155323530575
0.0874468085106383 0.5105547803191816 0.44074099316569953
0.0876595744680851 0.512144455043091 0.44132666280082405
0.08787234042553191 0.5137341297670004 0.4419123324359486
0.08808510638297873 0.51532380449091 0.44249800207107315
0.08829787234042553 0.5169134792148193 0.44308367170619767
0.08851063829787234 0.5185031539387288 0.4436693413413222
0.08872340425531915 0.5200928286626382 0.4442550109764467
0.08893617021276595 0.5216825033865476 0.4448406806115713
0.08914893617021276 0.522227650219834 0.4429992919439653
0.08936170212765958 0.5224621617853116 0.4399804426571083
0.08957446808510638 0.5252113890701505 0.437918522193479
0.08978723404255319 0.5265066048454274 0.43722520762090866
0.09 0.5270652408829944 0.43722520762090866
0.0902127659574468 0.5286341240689909 0.4357039316222647
0.09042553191489362 0.5300439667806547 0.43429408891060084
0.09063829787234043 0.5300439667806547 0.43429408891060084
0.09085106382978723 0.5300439667806547 0.43600654325923716
0.09106382978723404 0.5298220048253299 0.4387789413081819
0.09127659574468085 0.529117663323622 0.4437093318201365
0.09148936170212765 0.5272651693933278 0.4488691721242248
0.09170212765957447 0.5255518138268314 0.454800774539512
0.09191489361702128 0.5241133231852645 0.46173328428320276
0.09212765957446808 0.5204254801949805 0.46615869587154374
0.09234042553191489 0.5175353176816508 0.4692746481219642
0.0925531914893617 0.5143657850147806 0.4748437341301597
0.0927659574468085 0.5105397567041763 0.48025153003099597
0.09297872340425532 0.5063047497818949 0.4760165231087145
0.09319148936170213 0.5023205025200156 0.4751261897641309
0.09340425531914893 0.49877870053737183 0.4758201358622189
0.09361702127659574 0.49877870053737183 0.4691815898006848
0.09382978723404255 0.4951948145371149 0.4625941201237037
0.09404255319148937 0.4892369630028164 0.45604048343597553
0.09425531914893617 0.48487924080439476 0.45165989542090684
0.09446808510638298 0.4801790514185612 0.44785347385004143
0.09468085106382979 0.4730089895636997 0.44700993716123416
0.09489361702127659 0.4658389277088381 0.44616640047242684
0.0951063829787234 0.45369450623936125 0.4453380756678057
0.09531914893617022 0.4404930299386547 0.4445129833990116
0.09553191489361702 0.4308178097001957 0.4443585128046036
0.09574468085106383 0.4253421352478382 0.4450027097989986
0.09595744680851064 0.41986646079548073 0.4456469067933935
0.09617021276595744 0.41503656474287076 0.44622741524006737
0.09638297872340426 0.41108730274108163 0.44672107299029096
0.09659574468085107 0.40889106008793363 0.44835136359430944
0.09680851063829787 0.40889106008793363 0.4514056667492499
0.09702127659574468 0.41116836625642067 0.4537785563128534
0.09723404255319149 0.4138651977314499 0.4560259158753777
0.09744680851063829 0.4165620292064791 0.45827327543790203
0.09765957446808511 0.4192588606815085 0.4605206350004265
0.09787234042553192 0.4194288948088374 0.4630751650178661
0.09808510638297872 0.4170409895984136 0.4659406512703746
0.09829787234042553 0.4146530843879898 0.4688061375228831
0.09851063829787234 0.41226517917756605 0.4716716237753916
0.09872340425531914 0.4098569836878988 0.4723875161744645
0.09893617021276596 0.40741901855128587 0.4699495510378516
0.09914893617021277 0.4049810534146731 0.4675115859012388
0.09936170212765957 0.40263575539237934 0.4655088145902054
0.09957446808510638 0.40035223598716246 0.46379617503629283
0.09978723404255319 0.3982227959745191 0.4612616410355647
0.1 0.39616951929174354 0.4587401045480218
0.10021276595744681 0.3956197214587383 0.4592899023810271
0.10042553191489362 0.3934820763627655 0.45996333769384234
0.10063829787234042 0.3868095418538102 0.4609898814644508
0.10085106382978723 0.38124037760558643 0.4608041208137552
0.10106382978723404 0.3776690750571234 0.4584232524481132
0.10127659574468086 0.37518381910041787 0.458231350317773
0.10148936170212766 0.372950587119315 0.4571859812733148
0.10170212765957447 0.37032420744317335 0.4527037376056304
0.10191489361702127 0.3679615502048465 0.4519161851928548
0.10212765957446808 0.3670445208855984 0.45025904665639466
0.10234042553191489 0.3682042672084325 0.4472749047624216
0.1025531914893617 0.3683012665695149 0.4449562214634071
0.10276595744680851 0.3688920385152444 0.44432364470453173
0.10297872340425532 0.37104970336547627 0.44486306091708966
0.10319148936170212 0.37226571483514714 0.44654799941506557
0.10340425531914893 0.37406507267463424 0.4482375382281365
0.10361702127659575 0.3776368313264648 0.4489938323893958
0.10382978723404256 0.37849664925247817 0.45243310409344945
0.10404255319148936 0.38401967577008 0.4548276015990325
0.10425531914893617 0.3898526199345798 0.45719658580755873
0.10446808510638297 0.39350735414340343 0.4603292151294075
0.10468085106382978 0.3988127535516706 0.46346289349473474
0.1048936170212766 0.4086705498192684 0.46659946503442495
0.1051063829787234 0.4190993118515221 0.4695333225334878
0.10531914893617021 0.43562645873357014 0.4703020270396296
0.10553191489361702 0.4521536056156182 0.4710707315457714
0.10574468085106382 0.46617901139704965 0.4725019081851295
0.10595744680851064 0.478039048653325 0.47428405504315146
0.10617021276595745 0.4887817681170825 0.4730942331456397
0.10638297872340426 0.49769825159947345 0.47013610804232836
0.10659574468085106 0.5073642013779335 0.4691140397352765
0.10680851063829787 0.507085038930483 0.47191161440678975
0.10702127659574467 0.5085490962383976 0.47361483204385985
0.1072340425531915 0.5085490962383976 0.4746463543284195
0.1074468085106383 0.5081955182696631 0.47426901694870605
0.1076595744680851 0.5067402524964837 0.46990321962916776
0.10787234042553191 0.5076805638612976 0.4652988429240617
0.10808510638297872 0.5118038308598613 0.4593781456995888
0.10829787234042552 0.5137782562775359 0.44984863263321595
0.10851063829787234 0.5116996553064839 0.4454333894644228
0.10872340425531915 0.5139132328800355 0.43953051593495185
0.10893617021276596 0.5167821644292985 0.4352387087281547
0.10914893617021276 0.518765115658534 0.4333170493404983
0.10936170212765957 0.5211771214141495 0.43557375722604635
0.10957446808510639 0.5255176489196077 0.43684142753186855
0.1097872340425532 0.5274995221906271 0.4320448270454846
0.11 0.5265946067765944 0.43067477278576793
0.1102127659574468 0.5279333690996451 0.4271797031635508
0.11042553191489361 0.5271257578161054 0.42071881289523294
0.11063829787234042 0.5291920886230267 0.41160549253421863
0.11085106382978724 0.5310135113567108 0.40452061450163435
0.11106382978723404 0.530803943297194 0.39749243565611575
0.11127659574468085 0.5294961407830451 0.3901353195337239
0.11148936170212766 0.5323371166677662 0.3869375595682543
0.11170212765957446 0.5299563208005216 0.388905571890897
0.11191489361702127 0.5229937571006752 0.39455186557028654
0.11212765957446809 0.5200708378489003 0.40011601724877993
0.1123404255319149 0.5160837886031624 0.40654962316612486
0.1125531914893617 0.510311673480612 0.4164071037483356
0.1127659574468085 0.5055955971183439 0.42923736749923674
0.11297872340425531 0.501537768056829 0.4408737269985808
0.11319148936170213 0.4966952497202448 0.4519700109476548
0.11340425531914894 0.4924253781248791 0.45725708401483756
0.11361702127659574 0.4901002252527376 0.46326063347481095
0.11382978723404255 0.48806613497352563 0.46456488073014
0.11404255319148936 0.48305187179100056 0.4644881199590513
0.11425531914893616 0.4799512004548675 0.4612995325393999
0.11446808510638298 0.47667713039868775 0.4566813142993157
0.11468085106382979 0.47220678628362284 0.4507089473638312
0.1148936170212766 0.4654419997427694 0.45009934157818554
0.1151063829787234 0.4543143095448009 0.4517230115512654
0.11531914893617021 0.44483267818525934 0.4560052519665254
0.11553191489361703 0.43563479283643236 0.45809134467669066
0.11574468085106383 0.42880181832219294 0.46101090890394836
0.11595744680851064 0.4216547191606569 0.45969711773326827
0.11617021276595745 0.41693036506326364 0.45969711773326827
0.11638297872340425 0.4152356187974088 0.4616264028887073
0.11659574468085106 0.4152019277748676 0.4609632294947583
0.11680851063829788 0.4164865680121602 0.4575645644940915
0.11702127659574468 0.42080667825337037 0.45364373698844696
0.11723404255319149 0.425537886170401 0.4500998379118288
0.1174468085106383 0.42976581383780454 0.4495274329416202
0.1176595744680851 0.4319827117107989 0.448067497500725
0.11787234042553191 0.43103161481443514 0.4463414058439542
0.11808510638297873 0.4303859306301905 0.44743967118144273
0.11829787234042553 0.42726330888476516 0.4479726428920372
0.11851063829787234 0.42306547456640425 0.4471195684461931
0.11872340425531915 0.4170590869538862 0.44515876095010665
0.11893617021276595 0.41058880134640596 0.44329335980962975
0.11914893617021277 0.4089701538418024 0.44398539085775807
0.11936170212765958 0.40417594258071343 0.4374633201015187
0.11957446808510638 0.40298747420182623 0.43033079934286816
0.11978723404255319 0.39991568733103083 0.426235083515141
0.12 0.3969590797121096 0.4220508502328874
0.1202127659574468 0.3944317630381747 0.41815286205985047
0.12042553191489362 0.3891527698246611 0.4206155349291647
0.12063829787234043 0.38378193559627444 0.4215263819146238
0.12085106382978723 0.3803102185593399 0.42525793334900774
0.12106382978723404 0.3757195414720605 0.42884863112361393
0.12127659574468085 0.37217718231951225 0.434725583527062
0.12148936170212765 0.36943659527500566 0.4392146883752064
0.12170212765957447 0.36649420823484535 0.44228581691734975
0.12191489361702128 0.366755473564397 0.44534571645309284
0.12212765957446808 0.3692894575346308 0.4493857023069446
0.12234042553191489 0.36757328714751103 0.4524163394568511
0.1225531914893617 0.36551596188558494 0.45404120564708583
0.12276595744680852 0.3678220486297646 0.4612143519705718
0.12297872340425532 0.3667644623563536 0.46802894117940413
0.12319148936170213 0.3688612739172035 0.47834737817564543
0.12340425531914893 0.37060252224786905 0.48991548287995434
0.12361702127659574 0.37586848167049924 0.5046443355880706
0.12382978723404255 0.3793506911000966 0.5174027644003867
0.12404255319148937 0.383105858632979 0.5236084704116083
0.12425531914893617 0.3826417024727426 0.5301060309077049
0.12446808510638298 0.38690942012706003 0.5292616349779986
0.12468085106382978 0.3967282287622012 0.530933335053857
0.12489361702127659 0.40506783744004404 0.5260414355752212
0.1251063829787234 0.4147125162370067 0.5157412406001782
0.12531914893617022 0.43044805546881665 0.5054090147577036
0.125531914893617 0.44728658524500886 0.49457956033388706
0.12574468085106383 0.46111768630576877 0.48054865859457685
0.12595744680851065 0.4734126054064099 0.4684658514030544
0.12617021276595744 0.48484369401115723 0.45965638514854307
0.12638297872340426 0.4934244587309285 0.4507474909530837
0.12659574468085105 0.4986090415543158 0.44497715185431774
0.12680851063829787 0.5006473357986169 0.4416646076258503
0.1270212765957447 0.5021945701399306 0.44064861500906793
0.12723404255319148 0.5032213355561973 0.43855289611597104
0.1274468085106383 0.5036638983878847 0.4378105720854819
0.1276595744680851 0.508137766950766 0.4382022471910112
0.12787234042553192 0.5132925518973532 0.4368075589316361
0.1280851063829787 0.511427336097261 0.43624816805080613
0.12829787234042553 0.5128874673164611 0.4338638761129478
0.12851063829787235 0.5125882859369773 0.4307790248846983
0.12872340425531914 0.5223673719368719 0.42768317133435485
0.12893617021276596 0.5175632334033762 0.42557432645769605
0.12914893617021275 0.5183529492614517 0.42927506177197544
0.12936170212765957 0.520201369372089 0.4220979864520445
0.1295744680851064 0.5195444095247432 0.42756427843672573
0.12978723404255318 0.5214286243859589 0.4226606569166331
0.13 0.522227650219834 0.4263042525106206
0.1302127659574468 0.5225119018787711 0.423138117387244
0.13042553191489362 0.5233870933833185 0.424888500396339
0.13063829787234044 0.5239446745597007 0.4260036627491035
0.13085106382978723 0.5252399682347498 0.4264777723497801
0.13106382978723405 0.5245652427870672 0.4270012942541725
0.13127659574468084 0.5232046897899365 0.4303126219362955
0.13148936170212766 0.521958599772078 0.43483218980611266
0.13170212765957448 0.5212506106497312 0.43828080871736363
0.13191489361702127 0.5197863123731502 0.4435721815908572
0.1321276595744681 0.520083943966118 0.4513408238344646
0.13234042553191488 0.5169530792242469 0.45534820963408645
0.1325531914893617 0.5111568102673678 0.4601294615627334
0.1327659574468085 0.5059057371205463 0.4597546696517596
0.13297872340425532 0.5036662942520344 0.4626246426473514
0.13319148936170214 0.5026444064169999 0.460546800101024
0.13340425531914893 0.5009308696770094 0.4576456698967292
0.13361702127659575 0.49374873056483465 0.456186910534864
0.13382978723404254 0.4919304264226501 0.4522662187260864
0.13404255319148936 0.48652365952231513 0.44967545440825424
0.13425531914893618 0.4812598211763888 0.44773740690315456
0.13446808510638297 0.47818875515676507 0.44609067816028436
0.1346808510638298 0.4733341651358246 0.44722948656974026
0.13489361702127659 0.46354410504121385 0.4475405233896712
0.1351063829787234 0.4519180149611913 0.4507869319192793
0.13531914893617022 0.44221057605728936 0.45331630935184103
0.13553191489361702 0.43513301460787607 0.45951935416207856
0.13574468085106384 0.4258993236165264 0.4636052760136786
0.13595744680851063 0.4175125087983816 0.46422588123983516
0.13617021276595745 0.41304272018405047 0.4652542198074314
0.13638297872340424 0.4103775653621643 0.4670039685899608
0.13659574468085106 0.40676467394019616 0.4667375778646288
0.13680851063829788 0.4084319657187984 0.4657123866102621
0.13702127659574467 0.4150360146372654 0.4673150564536929
0.1372340425531915 0.41480027212254794 0.45821278473305166
0.13744680851063829 0.41771512248172726 0.45675371651781227
0.1376595744680851 0.4223680863838421 0.45481191988275516
0.13787234042553193 0.4186614557889594 0.45472922294260965
0.13808510638297872 0.41852422125266486 0.45438381845783077
0.13829787234042554 0.41691178576759846 0.45909514188276523
0.13851063829787233 0.4135274346380577 0.4650799621845588
0.13872340425531915 0.41160689496600344 0.46772871812632677
0.13893617021276597 0.40824035352803295 0.4714206128442475
0.13914893617021276 0.4059695382140933 0.47402063353712776
0.13936170212765958 0.40344575845821806 0.4744895951861059
0.13957446808510637 0.40205178309721545 0.47223983499276784
0.1397872340425532 0.40155717678240477 0.47150402696030114
0.13999999999999999 0.3963811499060258 0.47239863214460187
0.1402127659574468 0.3990787979683884 0.47239863214460187
0.14042553191489363 0.39237367396115025 0.47721791102014277
0.14063829787234042 0.3856967089064824 0.479753084428755
0.14085106382978724 0.380737136920317 0.4787237751394018
0.14106382978723403 0.37498194496178305 0.47760402270477836
0.14127659574468085 0.3695609119485965 0.47501262710544245
0.14148936170212767 0.36551679485347144 0.4698992251699384
0.14170212765957446 0.3640824667380612 0.4605760924197723
0.14191489361702128 0.36260792188937796 0.4570184817855951
0.14212765957446807 0.3615672068922244 0.4528072826373637
0.1423404255319149 0.36121894658569376 0.44874685702935263
0.1425531914893617 0.36192668043506127 0.44750728087640057
0.1427659574468085 0.3612774507194972 0.44097656816136466
0.14297872340425533 0.3652823664800974 0.4385736187050046
0.14319148936170212 0.3673907841365111 0.43373385179173685
0.14340425531914894 0.37207703260346586 0.42952558679716846
0.14361702127659573 0.37566398261071726 0.42389037504820587
0.14382978723404255 0.3802831316749719 0.41847739387033245
0.14404255319148937 0.38611718911916454 0.4152921441030019
0.14425531914893616 0.39269469881440955 0.4133199703106086
0.14446808510638298 0.40034240746250155 0.41182217879824123
0.14468085106382977 0.4068447227181071 0.4129577229905159
0.1448936170212766 0.4138544069466589 0.41998044151185304
0.1451063829787234 0.4255374145357074 0.42898052310836654
0.1453191489361702 0.4405965415261884 0.43882140384436
0.14553191489361703 0.4529984165890688 0.44844294661013523
0.14574468085106382 0.4654051775431189 0.4534578079190302
0.14595744680851064 0.4826851952193874 0.4557347391944646
0.14617021276595746 0.489258087337379 0.4536267282284583
0.14638297872340425 0.4961181718787997 0.4491576207324461
0.14659574468085107 0.5065950170981925 0.45040337797819163
0.14680851063829786 0.5074806027363051 0.4481940393015653
0.14702127659574468 0.5100402964394859 0.44964400087081524
0.14723404255319147 0.5073627942264975 0.4530671031843477
0.1474468085106383 0.5053716290355659 0.4576156871468043
0.14765957446808511 0.5065950170981925 0.4615430071617691
0.1478723404255319 0.508102563218561 0.4651408133108567
0.14808510638297873 0.5129367261490153 0.46921872946434645
0.14829787234042552 0.5172764572728569 0.4691858303085693
0.14851063829787234 0.5204001160827921 0.4677969324830687
0.14872340425531916 0.5246964775404687 0.4633783940252041
0.14893617021276595 0.5301832716971182 0.45827831087607834
0.14914893617021277 0.5319980459208598 0.4521424995200373
0.14936170212765956 0.5353364855468161 0.44592059448109467
0.14957446808510638 0.5361658083246379 0.4419121782714224
0.1497872340425532 0.5351196139408708 0.43798700485972175
0.15 0.5332234955924675 0.43893087665960856
0.15021276595744681 0.5347769910909677 0.43557547556110326
0.1504255319148936 0.5329983418193943 0.43044407145127067
0.15063829787234043 0.5321614166072882 0.42642331545430395
0.15085106382978725 0.5348170710573095 0.4251644520581032
0.15106382978723404 0.5319096729476552 0.4164422577291409
0.15127659574468086 0.5311736119804485 0.41331844104937254
0.15148936170212765 0.5311163998736907 0.41040431620455425
0.15170212765957447 0.5275101428937181 0.4083113153412023
0.15191489361702126 0.5243561332004492 0.4062251108278103
0.15212765957446808 0.5204268832569807 0.4029235833256469
0.1523404255319149 0.517873387316104 0.3996233225592028
0.1525531914893617 0.5141939238604202 0.3980349199175086
0.15276595744680851 0.5087928027516674 0.3983880691690827
0.1529787234042553 0.5052401298211077 0.40047555166399257
0.15319148936170213 0.499473760253714 0.40402741650098334
0.15340425531914895 0.4954018820204869 0.40738268075430545
0.15361702127659574 0.48989740268130083 0.4128871600934915
0.15382978723404256 0.48732687170399236 0.41797984076933037
0.15404255319148935 0.485303792076474 0.423037539838126
0.15425531914893617 0.481322275047723 0.43110239665589717
0.154468085106383 0.4760764908108697 0.43947538626501126
0.15468085106382978 0.4686614271171864 0.4490810115780602
0.1548936170212766 0.45996613689832194 0.45963920178597534
0.1551063829787234 0.4487211408927591 0.46458231558378116
0.15531914893617021 0.43854244941998954 0.46487019519281775
0.155531914893617 0.4291450117540466 0.46484935559469504
0.15574468085106383 0.4214156082533367 0.4623266487819972
0.15595744680851065 0.4151616567341409 0.46117412859691626
0.15617021276595744 0.41068293211094065 0.4639296902480747
0.15638297872340426 0.4079520510528919 0.46811408662740933
0.15659574468085105 0.40693698094772834 0.46946751343429405
0.15680851063829787 0.4077066204595758 0.4725460714816839
0.1570212765957447 0.4121125959587415 0.47673453206743277
0.15723404255319148 0.41370837981259956 0.4763746685508592
0.1574468085106383 0.41759150199504375 0.4810758454957587
0.1576595744680851 0.4206882678345786 0.48010584934730177
0.15787234042553192 0.4225052660412467 0.47657600168576103
0.15808510638297874 0.4217286484790372 0.4651756549262868
0.15829787234042553 0.4212948632210466 0.45442895580103454
0.15851063829787235 0.4164222717674721 0.44174199053259905
0.15872340425531914 0.41469097166350183 0.42928423936999344
0.15893617021276596 0.41169433959021134 0.42365926814945654
0.15914893617021275 0.40835454491690404 0.42288586704086284
0.15936170212765957 0.40557006624565745 0.4276473977456852
0.1595744680851064 0.40360464096033194 0.43492193444885324
0.15978723404255318 0.39987237594102176 0.44879892288826423
0.16 0.39609455458178117 0.46060461463589114
0.1602127659574468 0.39207729498282606 0.4699924609825012
0.16042553191489362 0.38733891197366854 0.4720984089865712
0.16063829787234044 0.3821389362164855 0.47424797219678566
0.16085106382978723 0.3764271754528884 0.47641757983584204
0.16106382978723405 0.37331775981829834 0.477972287653137
0.16127659574468084 0.3691710942697417 0.47469136784082133
0.16148936170212766 0.3672142244555144 0.47105516861663316
0.16170212765957448 0.36766001299488366 0.4684513968344433
0.16191489361702127 0.36547855469597873 0.4680151051746623
0.1621276595744681 0.3632970963970736 0.4675788135148813
0.16234042553191488 0.3629702002931119 0.46940775165678195
0.1625531914893617 0.36339558308143866 0.4708260566708418
0.1627659574468085 0.36781692232544716 0.4646361817292298
0.16297872340425532 0.3653494388091894 0.46458231558378116
0.16319148936170214 0.3683453311638386 0.46458231558378116
0.16340425531914893 0.37154447683608355 0.46458231558378116
0.16361702127659575 0.3755844793706413 0.46458231558378116
0.16382978723404254 0.3767961230862188 0.46464126310844944
0.16404255319148936 0.3816918936657588 0.4663784531832886
0.16425531914893618 0.38414010804662296 0.46458231558378116
0.16446808510638297 0.38961300261099524 0.465113647081731
0.1646808510638298 0.39678162720916055 0.4679617546091356
0.16489361702127658 0.4047452531971005 0.4713529425042136
0.1651063829787234 0.41628809366553166 0.4743928269104592
0.16531914893617022 0.4302816081942816 0.4700767933571194
0.16553191489361702 0.4449671328630655 0.4673534866617771
0.16574468085106384 0.4610025103358394 0.46219310557605225
0.16595744680851063 0.4748650960447471 0.4559785881279442
0.16617021276595745 0.4866595028631112 0.4516861036229703
0.16638297872340424 0.49608864722393536 0.4470590641668067
0.16659574468085106 0.5022528935335213 0.44573636278095924
0.16680851063829788 0.5059058138287867 0.4452712586048646
0.16702127659574467 0.5050104845112071 0.4466260567687146
0.1672340425531915 0.5046409379579873 0.45037019278193074
0.16744680851063828 0.5028415811381703 0.46169990252124704
0.1676595744680851 0.5026868588177822 0.4767928780385895
0.16787234042553192 0.504662632577235 0.4960536807099174
0.16808510638297872 0.5066576727882317 0.514975234869366
0.16829787234042554 0.5079195426241333 0.5241313190055051
0.16851063829787233 0.5121880893737581 0.5311894977502727
0.16872340425531915 0.5196116002847875 0.5306741043311775
0.16893617021276597 0.5181589815793876 0.5247749264834666
0.16914893617021276 0.52188557259367 0.5180266076216486
0.16936170212765958 0.5240432484054856 0.5066462926751957
0.16957446808510637 0.5213834901531785 0.49118125993747314
0.1697872340425532 0.5217052879471505 0.4726016870703944
0.17 0.5232046897899365 0.4534998319122725
0.1702127659574468 0.5237900553553275 0.43333421287390933
0.17042553191489362 0.5260949427314758 0.4159346659224937
0.17063829787234042 0.525729378504714 0.40323605661715867
0.17085106382978724 0.5265755711415904 0.40151450616845896
0.17106382978723403 0.5263697083060688 0.39833608427582484
0.17127659574468085 0.525341783111759 0.4011367121891281
0.17148936170212767 0.5243128213251882 0.408819363936843
0.17170212765957446 0.5223984520794644 0.4152179314997603
0.17191489361702128 0.522227650219834 0.42044680697839676
0.17212765957446807 0.5182657302769698 0.426531534012234
0.1723404255319149 0.5151908293951857 0.4295405869493747
0.1725531914893617 0.5118720831480515 0.43124593592614174
0.1727659574468085 0.5080973906298739 0.4298605966686116
0.17297872340425532 0.5086628348723864 0.4263045991034974
0.17319148936170212 0.5015498725158726 0.4214326277674602
0.17340425531914894 0.49810986890335146 0.41565171343586793
0.17361702127659576 0.4949308409706626 0.40873183140213376
0.17382978723404255 0.49155197357729624 0.40577463103965605
0.17404255319148937 0.4892926460505617 0.4033379670670248
0.17425531914893616 0.484760309436343 0.40292970089034547
0.17446808510638298 0.47959061292794414 0.4059599413776258
0.17468085106382977 0.47470207973698825 0.40705836583398836
0.1748936170212766 0.4687609179501663 0.41402722204111303
0.1751063829787234 0.45667379619522935 0.4199403820189195
0.1753191489361702 0.44792120768617194 0.4256344413807933
0.17553191489361702 0.43839964116353763 0.43277793977574924
0.17574468085106382 0.4302077521345131 0.43683654547016054
0.17595744680851064 0.423731382728226 0.4371328430765319
0.17617021276595746 0.42012381023197665 0.438691835280108
0.17638297872340425 0.4149167490952248 0.43971424486021876
0.17659574468085107 0.4106689823365713 0.44130952279288643
0.17680851063829786 0.4104870379658907 0.4377778373164396
0.17702127659574468 0.4135257706918275 0.4359412863466257
0.1772340425531915 0.41547569014716723 0.4376929533280425
0.1774468085106383 0.41728044505620704 0.4428525711236774
0.1776595744680851 0.4185133860673421 0.4498672735510237
0.1778723404255319 0.4204013632444067 0.45003380787462127
0.17808510638297873 0.4196920117040043 0.4536208149328833
0.17829787234042552 0.4196328545386557 0.45384240140652765
0.17851063829787234 0.41637729178045885 0.4579080810272107
0.17872340425531916 0.4108451392281387 0.46077247067359406
0.17893617021276595 0.41078194807458795 0.4618407703341256
0.17914893617021277 0.40931302973579203 0.4648043435526788
0.17936170212765956 0.4044959289875396 0.46734801609062565
0.17957446808510638 0.4022654747836665 0.47142159257449934
0.1797872340425532 0.40329267198984925 0.47194929121956186
0.18 0.4018336475608103 0.47399630447945024
0.1802127659574468 0.3953540252857003 0.4753297508549097
0.1804255319148936 0.39019697464076747 0.47491286830382523
0.18063829787234043 0.3845812967310655 0.4748218600872422
0.18085106382978725 0.37841624848748284 0.4748101335819799
0.18106382978723404 0.3728235608051022 0.4737830805049383
0.18127659574468086 0.37203269144682494 0.47026023523247346
0.18148936170212765 0.36799598864449357 0.4684904738641915
0.18170212765957447 0.3651702091277453 0.4641038146101455
0.18191489361702126 0.36726911674380813 0.4610650115699152
0.18212765957446808 0.364547003677645 0.45653866422089606
0.1823404255319149 0.3648209929167026 0.45316770029239317
0.1825531914893617 0.36307105849854054 0.4528578407425501
0.1827659574468085 0.36394717925462494 0.45188086178103704
0.1829787234042553 0.3668308979678741 0.448035923699568
0.18319148936170213 0.3678996396433945 0.4479726428920372
0.18340425531914895 0.3700367233176917 0.4478968942140833
0.18361702127659574 0.3732460688904659 0.44636376220152413
0.18382978723404256 0.37700708479959644 0.4431853970465667
0.18404255319148935 0.37930824020295884 0.44703210050776315
0.18425531914893617 0.38298558332124044 0.44551611580780615
0.184468085106383 0.3884560424164276 0.45166553904994455
0.18468085106382978 0.3961514841641602 0.45947506676053995
0.1848936170212766 0.40556690802725875 0.4679991821762327
0.1851063829787234 0.416750883297352 0.4733756717147044
0.1853191489361702 0.43227719687400645 0.47283001276254605
0.185531914893617 0.4494090136443051 0.47300038078478956
0.18574468085106383 0.46291072418546153 0.4727821913203208
0.18595744680851065 0.4770788108238878 0.47127329372933136
0.18617021276595744 0.4899246563525931 0.4704445530043966
0.18638297872340426 0.49956060230848537 0.46981487526866034
0.18659574468085105 0.5068044551594059 0.4667224492065449
0.18680851063829787 0.5115062432163899 0.4618629214313933
0.1870212765957447 0.5100885649010745 0.4614637205092819
0.18723404255319148 0.5078533309526205 0.4583055871617138
0.1874468085106383 0.5102207482219493 0.4559772442239603
0.1876595744680851 0.5095786938092232 0.45209103317533944
0.18787234042553191 0.5095261358085001 0.4480115416343986
0.18808510638297873 0.50869046679876 0.44876118838165663
0.18829787234042553 0.5116758472112227 0.44484589191921203
0.18851063829787235 0.5143462683035274 0.44293544933908796
0.18872340425531914 0.5203220828364485 0.4414950746752681
0.18893617021276596 0.5236663340126259 0.43789079839258077
0.18914893617021278 0.5228466099788348 0.43336564927209953
0.18936170212765957 0.5238195446095134 0.42846549219608787
0.1895744680851064 0.5229788661976477 0.4210625941242944
0.18978723404255318 0.5224178844574878 0.41489179498253675
0.19 0.5227947651163724 0.4139334481614207
0.1902127659574468 0.5242495339453579 0.4137084533531277
0.19042553191489361 0.5240504243358395 0.412799218368344
0.19063829787234043 0.5261836402239992 0.412799218368344
0.19085106382978723 0.5255432858927152 0.41088926705754325
0.19106382978723405 0.5268709038584902 0.4091958060334234
0.19127659574468084 0.5252602650515641 0.4095984657351549
0.19148936170212766 0.5234303947529065 0.4128734380865662
0.19170212765957448 0.5224114908594149 0.4185354515215763
0.19191489361702127 0.5197082464198959 0.4238375016922922
0.1921276595744681 0.520182670335515 0.4324989426434751
0.19234042553191488 0.5118689431381616 0.43425089688955015
0.1925531914893617 0.5104648017961833 0.43632491521564537
0.19276595744680852 0.5073001783076325 0.4420424358812559
0.19297872340425531 0.5034199866572906 0.44101141003602196
0.19319148936170213 0.5013683605131591 0.43964413822943604
0.19340425531914893 0.4982228883269159 0.4381011229240849
0.19361702127659575 0.4923730244453458 0.4416768045727294
0.19382978723404254 0.49030845979995036 0.44537617965962667
0.19404255319148936 0.4863505521057533 0.4506860799552687
0.19425531914893618 0.4808846752692327 0.45230891869791257
0.19446808510638297 0.4782745804517304 0.4533395050843449
0.1946808510638298 0.47355619756036776 0.45223732355490387
0.19489361702127658 0.463829887182092 0.45192140249808405
0.1951063829787234 0.45377839778861917 0.4518666805414391
0.19531914893617022 0.44552080560566726 0.4509037616023448
0.19553191489361701 0.43483106117505044 0.4502971495776472
0.19574468085106383 0.4264102618167744 0.44992672203224227
0.19595744680851063 0.42020482680664234 0.45208615523370865
0.19617021276595745 0.4171016656709467 0.4489583654475181
0.19638297872340427 0.4134052289438739 0.44632156903959685
0.19659574468085106 0.4101755903147309 0.44164585032914355
0.19680851063829788 0.4117232006199503 0.4364956134965334
0.19702127659574467 0.41477722548619644 0.4332931213628509
0.1972340425531915 0.41872043067667153 0.42958581572322435
0.19744680851063828 0.41963849535906195 0.4322285018794404
0.1976595744680851 0.41947216266469556 0.4323609663664914
0.19787234042553192 0.4186614557889594 0.4385309688946743
0.19808510638297872 0.41812413224773487 0.4436247685827487
0.19829787234042554 0.41574079281441856 0.4450415241817294
0.19851063829787233 0.41155241873016424 0.4454121640497764
0.19872340425531915 0.4079140205178309 0.4447801888941625
0.19893617021276597 0.40608904773187177 0.441262472255565
0.19914893617021276 0.40299104022984367 0.4386718757573253
0.19936170212765958 0.40205178309721545 0.4327163032049935
0.19957446808510637 0.4008621247279872 0.4296215098592135
0.1997872340425532 0.39880267768672883 0.427148364954487
0.2 0.39744183909078334 0.4255007327796776
0.2002127659574468 0.39565444361148877 0.43230537013813924
0.20042553191489362 0.3912634240902302 0.44693115136265577
0.20063829787234042 0.38529235062717593 0.46419243531386595
0.20085106382978724 0.383578254400852 0.47895182480722137
0.20106382978723403 0.3834880312652662 0.4934231989514536
0.20127659574468085 0.3716942501566195 0.5088263213080602
0.20148936170212767 0.36867900148531246 0.5209640341074955
0.20170212765957446 0.3666234437707273 0.5294492994147444
0.20191489361702128 0.36542645688992664 0.5325002233774695
0.20212765957446807 0.3672017079763535 0.53449337118632
0.2023404255319149 0.36519582343038304 0.5329750854909623
0.2025531914893617 0.36719277105923087 0.53039218137934
0.2027659574468085 0.36980947728383007 0.5227781669667728
0.20297872340425532 0.3701425123876432 0.5156552111089188
0.20319148936170212 0.3715590399951621 0.5062542981018404
0.20340425531914894 0.37398581074208953 0.4972653106115706
0.20361702127659576 0.37606506023923386 0.49153342947812856
0.20382978723404255 0.376648754274548 0.48517716774770187
0.20404255319148937 0.3779731502448637 0.4792216517276858
0.20425531914893616 0.38213698859224965 0.4747557083354488
0.20446808510638298 0.3875375499475972 0.46797077090420425
0.20468085106382977 0.39420173158100513 0.4637593109331459
0.2048936170212766 0.401450187642857 0.46098561880034494
0.2051063829787234 0.41181018561167376 0.45802561938068304
0.2053191489361702 0.4250645642226604 0.4552899694221996
0.20553191489361702 0.4405783074841356 0.4489792551875316
0.20574468085106382 0.4561369651486126 0.44352827801978345
0.20595744680851064 0.47120031698451076 0.43439122170525224
0.20617021276595746 0.48222774552047204 0.42515477500128684
0.20638297872340425 0.49114168994061463 0.41921320107788135
0.20659574468085107 0.497875328360166 0.4183480538310747
0.20680851063829786 0.5005545155263814 0.42105778204568084
0.20702127659574468 0.5017768889072111 0.42452369320957506
0.2072340425531915 0.5052577542535829 0.42452369320957506
0.2074468085106383 0.5032765844420329 0.42608462193361296
0.2076595744680851 0.5040211569252399 0.4251434742423225
0.2078723404255319 0.5041307669950472 0.42146266743193483
0.20808510638297872 0.5057566579091959 0.4180635244971563
0.20829787234042554 0.5106399814802841 0.41670737664875435
0.20851063829787234 0.5128793197760113 0.41670737664875435
0.20872340425531916 0.5155011222902159 0.41670737664875435
0.20893617021276595 0.5195678694539642 0.4199098333035002
0.20914893617021277 0.5224003605461096 0.42274232439564546
0.20936170212765956 0.5256959045212565 0.4255396254245283
0.20957446808510638 0.5293839154405199 0.4287488397199532
0.2097872340425532 0.5317847237374175 0.43191336540351116
0.21 0.5336725440988941 0.43464281821456674
0.2102127659574468 0.5356275665615858 0.4352711284807034
0.2104255319148936 0.5380878616845567 0.43647574639388736
0.21063829787234042 0.5398143624816805 0.4382022471910112
0.21085106382978724 0.5387985231300939 0.4376943275152179
0.21106382978723404 0.5361914013511356 0.43722520762090866
0.21127659574468086 0.5343213475530412 0.43904865885528815
0.21148936170212765 0.530037897408344 0.4388515837803094
0.21170212765957447 0.526691114849657 0.43960101998180373
0.2119148936170213 0.5253870265333205 0.4431514541989116
0.21212765957446808 0.5211680973385291 0.4464588875665942
0.2123404255319149 0.5168648121029449 0.4486999828102764
0.2125531914893617 0.5127305214454206 0.4544020194928362
0.2127659574468085 0.5086355402575984 0.45672277701336006
0.2129787234042553 0.5044568957273816 0.457743038593063
0.21319148936170212 0.4985558656245107 0.4577876055756352
0.21340425531914894 0.49374510258460763 0.4584974780097889
0.21361702127659574 0.49156518929521714 0.4552899804509426
0.21382978723404256 0.48811242820381545 0.45062657388690497
0.21404255319148935 0.4838882632919535 0.44363246201845263
0.21425531914893617 0.48197781200329776 0.4383030952017893
0.214468085106383 0.4778683102840058 0.4335089703481776
0.21468085106382978 0.4735281389997008 0.4280715291189436
0.2148936170212766 0.4664810929209727 0.4267341828138056
0.2151063829787234 0.4544260969164087 0.4255007327796776
0.2153191489361702 0.443378767732846 0.4268570461255858
0.21553191489361703 0.4351077292644211 0.42944974086415855
0.21574468085106382 0.4262829553451877 0.43207926891522563
0.21595744680851064 0.41947775235742424 0.4339354216828874
0.21617021276595744 0.41431865984516447 0.4356403914600779
0.21638297872340426 0.4091437533385123 0.43697926105677243
0.21659574468085105 0.40634249167459285 0.4403682653073849
0.21680851063829787 0.40679609293201574 0.441133365901319
0.2170212765957447 0.41048508604937023 0.4446814710029609
0.21723404255319148 0.4108451392281387 0.4450415241817294
0.2174468085106383 0.413759096859997 0.447081408714182
0.2176595744680851 0.41291704374368815 0.4519986265477917
0.2178723404255319 0.4148321436890229 0.4540714188540741
0.21808510638297873 0.4161254431324332 0.4582147212201597
0.21829787234042553 0.4168294355809236 0.4682462423773033
0.21851063829787234 0.40865418033219547 0.4733166306204043
0.21872340425531914 0.40711663969986234 0.4810984643772467
0.21893617021276596 0.4044743858072799 0.48683996012640307
0.21914893617021278 0.4025376940128604 0.48933572393931757
0.21936170212765957 0.4008799350806134 0.4904408965608156
0.2195744680851064 0.39861563057829397 0.4889862861382628
0.21978723404255318 0.3956911460053935 0.4850869733743954
0.22 0.39423546653639474 0.48099985050621824
0.2202127659574468 0.39190087274951496 0.47631966690172023
0.2204255319148936 0.38842171696955746 0.4724471199983801
0.22063829787234043 0.38396007046617886 0.47210881639039887
0.22085106382978723 0.38102719370023724 0.47165673314713874
0.22106382978723405 0.3742394990043461 0.4690525624930197
0.22127659574468084 0.37022043250993125 0.46429020139051397
0.22148936170212766 0.3680423387476834 0.4609545682094587
0.22170212765957448 0.36692626048151333 0.4541701936685903
0.22191489361702127 0.3649303016835484 0.4469775365712402
0.2221276595744681 0.36710454897728356 0.44056788989191564
0.22234042553191488 0.37048005634746173 0.43105650969382214
0.2225531914893617 0.367946179622974 0.4281595070519378
0.22276595744680852 0.3690620913929244 0.4252710791004805
0.2229787234042553 0.37175516078989995 0.42257800970350495
0.22319148936170213 0.37004807181799704 0.42428509867540803
0.22340425531914893 0.3729816117820802 0.4237306595850124
0.22361702127659575 0.3760502233945838 0.42743430002337834
0.22382978723404254 0.3772836029461208 0.441763673593011
0.22404255319148936 0.380216822786449 0.45089295416848835
0.22425531914893618 0.38474904915587393 0.454292123945557
0.22446808510638297 0.3882136515584112 0.46936251093568865
0.2246808510638298 0.39439355788406527 0.47808063587210065
0.22489361702127658 0.40389066073804203 0.48019384175420093
0.2251063829787234 0.4183745217870397 0.47638229937288584
0.22531914893617022 0.43089764426206123 0.47202412445942654
0.225531914893617 0.4451314516020022 0.4642706101260508
0.22574468085106383 0.460981603793552 0.45258540630741895
0.22595744680851063 0.47417502818280777 0.4437980324555924
0.22617021276595745 0.4869350471199419 0.43954469280988095
0.22638297872340427 0.4969776738384649 0.4378420418512299
0.22659574468085106 0.5036779015108465 0.43920729300703715
0.22680851063829788 0.5046558141604686 0.44116311830628147
0.22702127659574467 0.5056337268100906 0.4431189436055255
0.2272340425531915 0.5066075212655103 0.4450665325163649
0.22744680851063828 0.5073431558128746 0.44653780161109347
0.2276595744680851 0.5080787903602388 0.4480090707058222
0.22787234042553192 0.5085490962383976 0.44894968246213973
0.22808510638297871 0.5085490962383976 0.44894968246213973
0.22829787234042553 0.510773010684536 0.4495056610736743
0.22851063829787233 0.512457254518808 0.4492703721029916
0.22872340425531915 0.5135110049992886 0.44656764225139645
0.22893617021276597 0.5157978257138509 0.44283612715742127
0.22914893617021276 0.517312716174074 0.44018606252646336
0.22936170212765958 0.5183194919394236 0.43917928676111373
0.22957446808510637 0.519479357349361 0.43859935405614503
0.2297872340425532 0.5215292428140793 0.4438527699960385
0.23 0.5249681796463392 0.45384692688819767
0.2302127659574468 0.5231808005245018 0.46193726298050986
0.23042553191489362 0.5274617027645947 0.46659616318211344
0.23063829787234041 0.5274688180103831 0.4691115434942578
0.23085106382978723 0.5271128480703469 0.4649727625715049
0.23106382978723405 0.5288784245353825 0.4585085580251596
0.23127659574468085 0.5300439667806547 0.4485864432011934
0.23148936170212767 0.5285944380096532 0.44069293786872504
0.23170212765957446 0.5257283022056629 0.43445611589154093
0.23191489361702128 0.5268327189051937 0.4341540243280243
0.23212765957446807 0.5244173850028443 0.43609106428893596
0.2323404255319149 0.5164466717795585 0.43431440365568585
0.2325531914893617 0.5151702351877859 0.43923382127144617
0.2327659574468085 0.5108443108254616 0.440410687980514
0.23297872340425532 0.5061974035458486 0.4417127919190777
0.23319148936170211 0.5033235219706257 0.4391023935413272
0.23340425531914893 0.49875017019553963 0.43658335802145104
0.23361702127659575 0.49479415142824706 0.4351947376519892
0.23382978723404255 0.4900418257413528 0.4294936130624445
0.23404255319148937 0.48585792514067094 0.4243044322242078
0.23425531914893616 0.4822930779128322 0.4219596043783696
0.23446808510638298 0.47857390701540525 0.4222470948142972
0.2346808510638298 0.4737396336175539 0.42540497117141846
0.2348936170212766 0.46486351710817075 0.43024532986799563
0.2351063829787234 0.4521103152401576 0.4354083245093002
0.2353191489361702 0.4412432545575585 0.4423265952830847
0.23553191489361702 0.4316959354602389 0.44590757533184994
0.23574468085106381 0.42423467493881584 0.4490219370298295
0.23595744680851063 0.41618085077094913 0.45100906677790586
0.23617021276595745 0.41112834429000333 0.4522277184265665
0.23638297872340425 0.40721596745355587 0.45453293337692763
0.23659574468085107 0.406172875263399 0.4573609857508983
0.23680851063829786 0.40960863921238616 0.45764370947648675
0.23702127659574468 0.41208603285318846 0.45702985307790756
0.2372340425531915 0.4147431832517181 0.46017046613307305
0.2374468085106383 0.4168383358105049 0.46220519623939993
0.2376595744680851 0.4183085122345765 0.46699690855361325
0.2378723404255319 0.4179778524175096 0.46946751343429405
0.23808510638297872 0.4169376019821606 0.4754420273278642
0.23829787234042554 0.4134308058483833 0.4797412580953931
0.23851063829787233 0.41190852652613885 0.47754287317880767
0.23872340425531915 0.40703192674209976 0.4791999308175715
0.23893617021276595 0.4024464138793362 0.4756454554806063
0.23914893617021277 0.3992361919028483 0.47157562926242025
0.23936170212765956 0.39912066438690763 0.4684772811324966
0.23957446808510638 0.3988395862187363 0.46625531655581487
0.2397872340425532 0.39434249640904573 0.46122307738286933
0.24 0.39442565506759925 0.457743038593063
0.2402127659574468 0.389919978031069 0.4575393734806053
0.2404255319148936 0.38761815277122785 0.45676599902296044
0.24063829787234042 0.3840347766414462 0.45592159876454524
0.24085106382978724 0.37933764701005895 0.4543225865306124
0.24106382978723404 0.37460221826008 0.4560945298655337
0.24127659574468086 0.36874575386941044 0.45808977397033046
0.24148936170212765 0.3680805138437147 0.4617074757984958
0.24170212765957447 0.37143187136857636 0.4627526183393729
0.2419148936170213 0.3639965684337213 0.4657073408654043
0.24212765957446808 0.3647970854645409 0.46887205577051966
0.2423404255319149 0.36203445981875054 0.47709798406427945
0.2425531914893617 0.3637228040415865 0.4695004350615171
0.2427659574468085 0.3639472398632144 0.4663311503608167
0.2429787234042553 0.3683986880218561 0.46365159165732295
0.24319148936170212 0.3707865168539326 0.4598104964938775
0.24340425531914894 0.37176856196404195 0.4557789483728442
0.24361702127659574 0.375348902633482 0.4534001625394286
0.24382978723404256 0.3802568545598706 0.4555042745747378
0.24404255319148935 0.3846382582795264 0.46153682756406594
0.24425531914893617 0.3908202869536444 0.46617334906965435
0.244468085106383 0.39560595062888154 0.47513960032957525
0.24468085106382978 0.4021008428597042 0.4782608695652173
0.2448936170212766 0.41033452562832273 0.47780786360780475
0.2451063829787234 0.42010795111469806 0.4765047402096214
0.2453191489361702 0.4336579179441317 0.471279563989652
0.24553191489361703 0.44776541411162796 0.46562843141402005
0.24574468085106382 0.46139681161053425 0.46108463224771806
0.24595744680851064 0.4748025960842665 0.45623090238437464
0.24617021276595744 0.4869172962071635 0.45001800835822703
0.24638297872340426 0.49653880156855085 0.44038381504904023
0.24659574468085105 0.5029896775595616 0.42882039941271977
0.24680851063829787 0.5056179775280898 0.41779656907664375
0.2470212765957447 0.5056179775280898 0.40515579769340804
0.24723404255319148 0.5056179775280898 0.396944243227296
0.2474468085106383 0.5056564280978948 0.3952894072461072
0.2476595744680851 0.5064834981926799 0.3969435474356774
0.2478723404255319 0.5086403891535218 0.4039844920978007
0.24808510638297873 0.5090314934419335 0.4103994775136944
0.24829787234042552 0.5103730245832939 0.41596497195232207
0.24851063829787234 0.5137795729569694 0.42067433196323867
0.24872340425531914 0.5140470329577208 0.4247554182771241
0.24893617021276596 0.5138196691228378 0.4284318514899854
0.24914893617021278 0.5148274178302816 0.42968010400379053
0.24936170212765957 0.5162248252388162 0.431362970200293
0.2495744680851064 0.5177159953207752 0.4317365131517473
0.24978723404255318 0.5186347401011784 0.4332857542556601
0.25 0.5201655445692216 0.4349814574608049
0.2502127659574468 0.5230123988805665 0.43455567179751164
0.25042553191489364 0.5255749428619768 0.4352711284807034
0.25063829787234043 0.5277465213805457 0.43539786314274315
0.2508510638297872 0.5316650439873185 0.4361815676640979
0.251063829787234 0.532716051441528 0.43481215700946935
0.25127659574468086 0.5329750854909623 0.43835739950425445
0.25148936170212766 0.5313264149503935 0.4394846953607501
0.25170212765957445 0.528286526288202 0.4364448066985586
0.2519148936170213 0.5262856750835453 0.43733906094770725
0.2521276595744681 0.5245352784932392 0.4401563263312165
0.2523404255319149 0.5206079452486025 0.44105605789279667
0.2525531914893617 0.5162792537758413 0.4470817623453115
0.2527659574468085 0.5149398393860659 0.44827166545407043
0.2529787234042553 0.5095261358085001 0.4520859878749725
0.2531914893617021 0.5083033964783435 0.4541405651451918
0.25340425531914895 0.5006961178948759 0.4555862191822972
0.25361702127659574 0.49682462139716654 0.4538086078193713
0.25382978723404254 0.49502272227964467 0.4509037616023448
0.2540425531914894 0.49026027789723975 0.4498506024833779
0.2542553191489362 0.4869767686771698 0.44756633566020193
0.25446808510638297 0.48320131256367516 0.44699560332193444
0.25468085106382976 0.47908739860758437 0.44905002281396333
0.2548936170212766 0.4700650184167254 0.4523441705273341
0.2551063829787234 0.4582677532530346 0.4565036416929747
0.2553191489361702 0.44639867971740493 0.4631857404773862
0.25553191489361704 0.4352871419649126 0.46706786962729596
0.25574468085106383 0.42529144636490573 0.46921159571585047
0.2559574468085106 0.41728947823260243 0.4747476492710614
0.2561702127659574 0.4107706320095522 0.4746287196624501
0.25638297872340426 0.40531445072626265 0.47480631545937285
0.25659574468085106 0.4040058622374205 0.4732105009548167
0.25680851063829785 0.40620656355071244 0.4709314979357405
0.2570212765957447 0.4100583924204545 0.4673231415316704
0.2572340425531915 0.4108451392281387 0.4632053247819522
0.2574468085106383 0.41439247441255544 0.45819406746305497
0.25765957446808513 0.416634946142339 0.4549205656423782
0.2578723404255319 0.41483147578994595 0.452936019023947
0.2580851063829787 0.411980199557424 0.44916037680771675
0.2582978723404255 0.41182217879824123 0.446802995258124
0.25851063829787235 0.4090322624130149 0.44322864736660555
0.25872340425531914 0.4074330899853913 0.43964503878833
0.25893617021276594 0.4068845183354301 0.4371727450086104
0.2591489361702128 0.4059599413776258 0.43624816805080613
0.2593617021276596 0.4059599413776258 0.4344461681158651
0.25957446808510637 0.4020245760798151 0.4359406262057054
0.2597872340425532 0.3986787515238758 0.43651573140434147
0.26 0.39586387064463296 0.4377680041655874
0.2602127659574468 0.3935962161884297 0.4414348270271465
0.2604255319148936 0.38898586148248154 0.44552845785846995
0.26063829787234044 0.38384004239615027 0.4469252010957576
0.26085106382978723 0.3815632207362023 0.45084522438006247
0.261063829787234 0.37940135160329197 0.45290247108794107
0.2612765957446809 0.3754728221831758 0.4540337728339223
0.26148936170212767 0.37325932439291426 0.456094500233742
0.26170212765957446 0.37120446460810697 0.4575340647159758
0.26191489361702125 0.3714144709347432 0.45676599902296044
0.2621276595744681 0.3676644914440773 0.45733871912160295
0.2623404255319149 0.36704900983623545 0.45918516394512854
0.2625531914893617 0.36755356455536237 0.45969711773326827
0.26276595744680853 0.368525027351843 0.4576882301086135
0.2629787234042553 0.3702328493582947 0.4560657932006768
0.2631914893617021 0.37153356969503315 0.4535478009295561
0.26340425531914896 0.3741457162569069 0.4520637874649262
0.26361702127659575 0.3771596658532275 0.45352412831837047
0.26382978723404255 0.38022995939996507 0.45470293549775737
0.26404255319148934 0.3824050241606759 0.4612803105027662
0.2642553191489362 0.38543960265736954 0.4645798078356792
0.264468085106383 0.3897714663049607 0.4677006332359018
0.26468085106382977 0.3989354043836398 0.471322620128645
0.2648936170212766 0.40714597676722614 0.4708893162754967
0.2651063829787234 0.41671967023814976 0.47239453428147
0.2653191489361702 0.4320263450678162 0.4678165063183482
0.265531914893617 0.4478457559746899 0.4647490827189416
0.26574468085106384 0.461597855610478 0.46166453218922215
0.26595744680851063 0.4739641319458925 0.4600718359425681
0.2661702127659574 0.4875892243609257 0.459821192491984
0.2663829787234043 0.49728640147874914 0.4615977174665358
0.26659574468085107 0.5030343248157584 0.46458231558378116
0.26680851063829786 0.5055294697017078 0.4651150892820235
0.2670212765957447 0.5057298588692799 0.4671927365208226
0.2672340425531915 0.5036019874249655 0.4702862916681277
0.2674468085106383 0.5036756467556115 0.47273214424645393
0.2676595744680851 0.5025408638977376 0.47127559765445465
0.26787234042553193 0.5039563878281612 0.4726911215848783
0.2680851063829787 0.5038420071579883 0.4709788793147075
0.2682978723404255 0.5062261169243303 0.4661741887769874
0.26851063829787236 0.5129364882450322 0.4592178840070438
0.26872340425531915 0.5124745722615097 0.45488119085356216
0.26893617021276595 0.5174174824433897 0.44786009778093394
0.26914893617021274 0.5195578336739107 0.4442576176885756
0.2693617021276596 0.522227650219834 0.43573141254672365
0.2695744680851064 0.5226827119962865 0.43218832251157824
0.26978723404255317 0.5251587689301416 0.4316520035466741
0.27 0.5251587689301416 0.43424656714685467
0.2702127659574468 0.5268927216994078 0.4308261833720686
0.2704255319148936 0.52884321845921 0.43298148621348537
0.27063829787234045 0.5372471719749444 0.43513488151036317
0.27085106382978724 0.5341506784872735 0.4408355357620064
0.27106382978723403 0.5349099023930002 0.44209114323325416
0.2712765957446808 0.5378602833414754 0.4440915193441895
0.2714893617021277 0.5379322578678802 0.4449695496553246
0.27170212765957447 0.5380971971302977 0.44406448461162684
0.27191489361702126 0.5320787845830415 0.44406448461162684
0.2721276595744681 0.5260034045998939 0.44406448461162684
0.2723404255319149 0.518160956145361 0.4437805907705855
0.2725531914893617 0.5143738467207623 0.4444401470526621
0.2727659574468085 0.5120640378043068 0.4489616868944405
0.27297872340425533 0.5074822430853235 0.45232502026837884
0.2731914893617021 0.5002535802671979 0.4528578407425501
0.2734042553191489 0.4951588519833014 0.4528578407425501
0.27361702127659576 0.49059672305062935 0.44995816565989155
0.27382978723404255 0.4871117284723003 0.44291510592124905
0.27404255319148935 0.48333917315309327 0.4353648036285631
0.2742553191489362 0.4829074236666599 0.4274098827722413
0.274468085106383 0.4800499373766996 0.42627476528943525
0.2746808510638298 0.47514340505713476 0.4199265658246839
0.27489361702127657 0.46837944594038605 0.4212214266508542
0.2751063829787234 0.4576255704047363 0.42428926465090894
0.2753191489361702 0.44727529863930937 0.4321162535164958
0.275531914893617 0.4369855199288699 0.4272683881594081
0.27574468085106385 0.4280290602561713 0.42077665142269033
0.27595744680851064 0.42314152657451987 0.42243457171438564
0.27617021276595743 0.41969694003946273 0.4221437314330884
0.2763829787234042 0.4150223231295384 0.42546771180839266
0.2765957446808511 0.41308575300491535 0.4298645246728422
0.27680851063829787 0.41445410477863354 0.4336559727605918
0.27702127659574466 0.4169103574804111 0.4335074086427612
0.2772340425531915 0.42044905738919947 0.43323381057051574
0.2774468085106383 0.4220682952654222 0.4307848572829677
0.2776595744680851 0.4221464450048234 0.42413158888654556
0.27787234042553194 0.4213667642388708 0.42038972466876817
0.27808510638297873 0.41865780834837385 0.41833334430520147
0.2782978723404255 0.4169830298044918 0.41908718904758707
0.2785106382978723 0.41294045411901575 0.4256655714066435
0.27872340425531916 0.4094125728785501 0.4306676198128044
0.27893617021276595 0.4047319134772804 0.4371857754552074
0.27914893617021275 0.4005439020658598 0.4399332272767916
0.2793617021276596 0.397380427137749 0.44377936209023156
0.2795744680851064 0.39716658524670256 0.4469359454352968
0.2797872340425532 0.39426166560717957 0.44910687688684864
0.27999999999999997 0.39506778435030426 0.4549855859901868
0.2802127659574468 0.39011101095375444 0.4611067519078307
0.2804255319148936 0.38666114124786477 0.46763896717070397
0.2806382978723404 0.38119487887111375 0.47634697061675174
0.28085106382978725 0.378738344403605 0.48334256131649955
0.28106382978723404 0.3748592080996541 0.4932559096488185
0.28127659574468084 0.3709800717957033 0.5031692579811374
0.2814893617021277 0.36672031866678645 0.5093565758498895
0.2817021276595745 0.3642862372355175 0.5185785842181134
0.28191489361702127 0.3622787034855554 0.5227763756461175
0.28212765957446806 0.36199316072300936 0.5310148220399398
0.2823404255319149 0.36199316072300936 0.5301843647309019
0.2825531914893617 0.3648613264484888 0.527175801055175
0.2827659574468085 0.36401274004287604 0.527991637370957
0.28297872340425534 0.3660497159560887 0.5246393795958001
0.28319148936170213 0.3683685710931617 0.5167799730908129
0.2834042553191489 0.3723027651140827 0.504797654798034
0.2836170212765957 0.37562433300733605 0.49403564777818726
0.28382978723404256 0.37945237441604734 0.48113562188323
0.28404255319148936 0.38290076330803824 0.46800456461705653
0.28425531914893615 0.387425985180882 0.45768344732265226
0.284468085106383 0.39257952062236734 0.44872770385951133
0.2846808510638298 0.40027624732594613 0.4399777829622805
0.2848936170212766 0.4089068262137611 0.4330288859628531
0.2851063829787234 0.4198148254223314 0.4282888753448738
0.2853191489361702 0.435126317794146 0.42515244427670884
0.285531914893617 0.44986746864919036 0.42452369320957506
0.2857446808510638 0.46423093609903954 0.4308030373537646
0.28595744680851065 0.47628506825407485 0.43429408891060084
0.28617021276595744 0.48743201512625345 0.4348955111123367
0.28638297872340424 0.49585511567854906 0.436389897661245
0.2865957446808511 0.5032588865438483 0.44058534712576597
0.2868085106382979 0.5060794860994898 0.44618063103373967
0.28702127659574467 0.5065837634199153 0.45184704013761584
0.28723404255319146 0.506500787370384 0.4590969970743992
0.2874468085106383 0.5056179775280898 0.46496700872521013
0.2876595744680851 0.504983379562052 0.46780559065606203
0.2878723404255319 0.5060011037673896 0.4664502251500881
0.28808510638297874 0.508056544533717 0.4648285914361215
0.28829787234042553 0.5101156087891564 0.4606660342068845
0.2885106382978723 0.5138514938739522 0.45467463999024416
0.28872340425531917 0.5170942424122253 0.4484690628062283
0.28893617021276596 0.5182912971132376 0.4479726428920372
0.28914893617021276 0.5193894747354199 0.4283156724576183
0.28936170212765955 0.5235778600168909 0.42347201959408143
0.2895744680851064 0.5279692322733068 0.422810924803655
0.2897872340425532 0.527279930577695 0.42519202323896726
0.29 0.5285326984787624 0.4295388785857679
0.2902127659574468 0.5286869257373006 0.4341312739665108
0.2904255319148936 0.5261131421229599 0.4359300436532
0.2906382978723404 0.5277187663916985 0.43304440098819774
0.2908510638297872 0.5311343567398318 0.42900674019313945
0.29106382978723405 0.532218640734955 0.42673563220401534
0.29127659574468084 0.5256562354260699 0.4254828393579238
0.29148936170212764 0.5246385527111391 0.421795826378758
0.2917021276595745 0.5230636112796041 0.4148891210177694
0.2919148936170213 0.5210177709802779 0.41400909760789995
0.29212765957446807 0.5170070578240691 0.41409999485743715
0.2923404255319149 0.5132688626642877 0.41448276146005586
0.2925531914893617 0.5101742318311114 0.4162753126336801
0.2927659574468085 0.5054673563667152 0.41833088842546823
0.2929787234042553 0.5037744475307644 0.42039443664340526
0.29319148936170214 0.49906399699072185 0.4233754757674623
0.29340425531914893 0.49877870053737183 0.42647083689645365
0.2936170212765957 0.49370085906743716 0.4350784848612818
0.29382978723404257 0.48989706463716365 0.43180436904671654
0.29404255319148936 0.48814838366152674 0.4361048478550029
0.29425531914893616 0.48277431473875704 0.43638638651162337
0.29446808510638295 0.4803239575878246 0.4435204502924954
0.2946808510638298 0.47542001818951474 0.4537446129780475
0.2948936170212766 0.4679452477098813 0.46215662294312404
0.2951063829787234 0.45825033877229954 0.4734805862996307
0.29531914893617023 0.4462761254250112 0.483580502288938
0.295531914893617 0.4363369873489142 0.4918506042485456
0.2957446808510638 0.43074680757566336 0.4974407840217964
0.29595744680851066 0.4241749730407763 0.5022679792169129
0.29617021276595745 0.41746013971404744 0.5052720170010107
0.29638297872340424 0.412988012343467 0.5056179775280898
0.29659574468085104 0.41182217879824123 0.5033978981895099
0.2968085106382979 0.41339630797581317 0.5018997942289961
0.2970212765957447 0.41628870998433776 0.4966849151558972
0.29723404255319147 0.4202818157395312 0.49227314273628714
0.2974468085106383 0.4234574359753118 0.48720292180307495
0.2976595744680851 0.4245944586275677 0.47611808264369854
0.2978723404255319 0.4273101185492465 0.46839401161710076
0.29808510638297875 0.42420662486152166 0.46579656857852836
0.29829787234042554 0.4207897618209307 0.45937599266193363
0.29851063829787233 0.4171291470742442 0.4568994977420832
0.2987234042553191 0.41621421191874053 0.45310070715158696
0.298936170212766 0.40823428163067893 0.45046590929750835
0.29914893617021276 0.40438306261425777 0.4473728036987717
0.29936170212765956 0.40009770395701016 0.44247078323398525
0.2995744680851064 0.3990293269812626 0.4382843606326587
0.2997872340425532 0.39594796070568566 0.43250463297982034
0.3 0.3919584589849471 0.42999676566942446
0.3002127659574468 0.38783739030932013 0.42591038752904914
0.30042553191489363 0.38530423587026785 0.41964445427090097
0.3006382978723404 0.38202319763491566 0.4148759717484145
0.3008510638297872 0.37723584323665765 0.41244783021112613
0.30106382978723406 0.3742298121014366 0.4111012274967368
0.30127659574468085 0.3721684933920128 0.41471799465870757
0.30148936170212765 0.3701093915315337 0.4182115844174039
0.3017021276595745 0.368046133690858 0.42218814297490337
0.3019148936170213 0.3678553981436248 0.4216333568427366
0.3021276595744681 0.36392910648151583 0.4284318514899854
0.30234042553191487 0.36289932318950324 0.42906974542246346
0.3025531914893617 0.3621198254922183 0.43709854285169975
0.3027659574468085 0.3633227995296614 0.4371296661421799
0.3029787234042553 0.3651457099165959 0.44179765735115567
0.30319148936170215 0.36671009679999017 0.4448732624081973
0.30340425531914894 0.3694494578588772 0.4482296436122341
0.30361702127659573 0.3718737925095334 0.4534407381320799
0.3038297872340425 0.3758203950472245 0.45942524617945024
0.3040425531914894 0.3809838779689883 0.46355603251686134
0.30425531914893617 0.38613843639270923 0.4671495982303495
0.30446808510638296 0.3930286075319868 0.4696543184682434
0.3046808510638298 0.4025280504157805 0.4698107025304786
0.3048936170212766 0.40940164140846425 0.46877917342812636
0.3051063829787234 0.422623103566629 0.46701822832188017
0.30531914893617024 0.43670842535838517 0.46338850149056926
0.30553191489361703 0.45343730813177496 0.46178952930412526
0.3057446808510638 0.4676284807573413 0.45657711631440906
0.3059574468085106 0.4786341397262786 0.4532889704641348
0.30617021276595746 0.4892945897810482 0.4520324188265842
0.30638297872340425 0.49995876608872536 0.4526986540917361
0.30659574468085105 0.5074171649483501 0.45032124265336315
0.3068085106382979 0.5089995760878827 0.4500773819301799
0.3070212765957447 0.5067122347029492 0.4517635835676908
0.3072340425531915 0.5076622857589259 0.45171582341802213
0.30744680851063827 0.5082064236347639 0.4594229796503612
0.3076595744680851 0.5036938192247252 0.4557889594528579
0.3078723404255319 0.5075720769704587 0.4557889594528579
0.3080851063829787 0.5085482308792056 0.4557889594528579
0.30829787234042555 0.5125103191615793 0.45965289719762553
0.30851063829787234 0.517885804256982 0.45517332628478974
0.30872340425531913 0.5175051559299599 0.45399758387329164
0.308936170212766 0.5195513147565312 0.45088973046303893
0.3091489361702128 0.5207265808394232 0.44992672203224227
0.30936170212765957 0.5212506106497312 0.4495976900996448
0.30957446808510636 0.5212506106497312 0.4474329194595209
0.3097872340425532 0.5219010153863033 0.4450443891122185
0.31 0.522227650219834 0.44456921515389153
0.3102127659574468 0.522227650219834 0.44584972658212496
0.31042553191489364 0.522227650219834 0.44768971583959455
0.31063829787234043 0.5235505396330138 0.44532686406567745
0.3108510638297872 0.5249514183477982 0.442909951129988
0.311063829787234 0.5262423305747681 0.4409735827895332
0.31127659574468086 0.5275332428017383 0.43903721444907784
0.31148936170212765 0.5295482792264274 0.43747305139802223
0.31170212765957445 0.5317366442567536 0.4362917349948238
0.3119148936170213 0.5257113042530465 0.43708370620517606
0.3121276595744681 0.5171259588516541 0.4341858421517675
0.3123404255319149 0.5147698409727387 0.4330077832123097
0.3125531914893617 0.5110512002744203 0.4314702238688643
0.3127659574468085 0.5070509130348085 0.43268743885938676
0.3129787234042553 0.5037131309995471 0.43475799238982094
0.3131914893617021 0.5001495133766766 0.4371230675021566
0.31340425531914895 0.4969841796968815 0.43810257425681964
0.31361702127659574 0.4926185889700797 0.43667313928973245
0.31382978723404253 0.4889896671413246 0.43722520762090866
0.3140425531914894 0.48592776962520645 0.43722520762090866
0.3142553191489362 0.4819215172916821 0.43468230420950593
0.31446808510638297 0.478798922410288 0.43473307563563274
0.31468085106382976 0.4743778532648033 0.43216471544037216
0.3148936170212766 0.4657800034168621 0.43212253703007736
0.3151063829787234 0.4555854778104885 0.4347459492313526
0.3153191489361702 0.4442387097636763 0.43701588676233555
0.31553191489361704 0.4349389988281652 0.439941356358695
0.31574468085106383 0.4265258169206292 0.4459825303236951
0.3159574468085106 0.41555826439000554 0.4450415241817294
0.31617021276595747 0.4121778248709548 0.4455386389796407
0.31638297872340426 0.4075464249447126 0.4509714581142905
0.31659574468085105 0.40669715710987264 0.4574854705365278
0.31680851063829785 0.40981551869302596 0.4505956087339807
0.3170212765957447 0.41256842639746455 0.4488073506334074
0.3172340425531915 0.41554559350975406 0.44566860164345384
0.3174468085106383 0.41819490843853835 0.4425330079525822
0.3176595744680851 0.4180820385142813 0.43939511407728454
0.3178723404255319 0.41832330621165215 0.4407578071621925
0.3180851063829787 0.4186614557889594 0.4428141179150493
0.3182978723404255 0.4171072559227579 0.4430874450415241
0.31851063829787235 0.41415848653200116 0.4490348553139481
0.31872340425531914 0.4082407079040039 0.4536170887218706
0.31893617021276593 0.40887282923731133 0.45958773262953445
0.3191489361702128 0.4030028888628722 0.4656890241761124
0.3193617021276596 0.40197443991426757 0.4704445530043966
0.31957446808510637 0.40119384315744666 0.47104005115606534
0.3197872340425532 0.40135553039451255 0.4748075613278825
0.32 0.3972734811015126 0.47239863214460187
0.3202127659574468 0.393701034350362 0.47239863214460187
0.3204255319148936 0.3913175623876238 0.4727199071474571
0.32063829787234044 0.38746823848933454 0.47224645359677603
0.32085106382978723 0.38230613722489587 0.47001276628230204
0.321063829787234 0.3781513097336319 0.46899132568388613
0.32127659574468087 0.37291415188215615 0.4694241244622894
0.32148936170212766 0.36774908940695217 0.4700834369021382
0.32170212765957445 0.3655419604515401 0.46928783415835423
0.32191489361702125 0.3640073320761243 0.4685205199706464
0.3221276595744681 0.36316130175402944 0.4708482881917467
0.3223404255319149 0.36085550607299405 0.46983557190941094
0.3225531914893617 0.3594469867676663 0.4681055291092267
0.3227659574468085 0.3605466900445219 0.467005825832371
0.3229787234042553 0.3626660322327636 0.4665363947239862
0.3231914893617021 0.36556017735361457 0.46685434368413503
0.32340425531914896 0.36851025288966677 0.46832938145216124
0.32361702127659575 0.3761888317559493 0.46726440819048776
0.32382978723404254 0.3799028889479267 0.46686340652750213
0.32404255319148934 0.3789124069685279 0.46741024310949747
0.3242553191489362 0.3837783777382991 0.4657882528529069
0.324468085106383 0.39002618122051547 0.462083661163167
0.32468085106382977 0.39852545903065834 0.45933614195312744
0.3248936170212766 0.40771560555500735 0.45646619191860366
0.3251063829787234 0.4155513456164344 0.45076747187392946
0.3253191489361702 0.4309411692050349 0.44917757505559597
0.325531914893617 0.4470251561593535 0.43980766093430074
0.32574468085106384 0.46299447934066296 0.4340785827632784
0.32595744680851063 0.47675660121031044 0.43453189730316766
0.3261702127659574 0.48711777675599993 0.4326374447116034
0.32638297872340427 0.4970718717831751 0.43490623388865646
0.32659574468085106 0.507305678690574 0.43700316190911603
0.32680851063829786 0.507108464124656 0.4404487698660343
0.3270212765957447 0.5100333938244745 0.44629093099074196
0.3272340425531915 0.5096022571804874 0.44969835791628054
0.3274468085106383 0.5085736184745245 0.44992672203224227
0.3276595744680851 0.5094896363658791 0.4528578407425501
0.3278723404255319 0.5079359319632009 0.45307616591949357
0.3280851063829787 0.512457254518808 0.4557889594528579
0.3282978723404255 0.5122940810643153 0.45562578599836523
0.32851063829787236 0.5132186695513016 0.4565503744853513
0.32872340425531915 0.5195677256653495 0.46072987735281284
0.32893617021276594 0.5189876287511028 0.4567534161992522
0.32914893617021274 0.5167403666366108 0.4572202628135956
0.3293617021276596 0.5164805643003073 0.455242863917262
0.3295744680851064 0.5163603358641781 0.45676092208792024
0.32978723404255317 0.5168084571083768 0.45720904333211887
0.33 0.5175308991157492 0.4579314853394912
0.3302127659574468 0.5176813782171865 0.4561676232742176
0.3304255319148936 0.5194250969219052 0.45411770503189375
0.33063829787234045 0.521775942522712 0.4500789517049446
0.33085106382978724 0.522227650219834 0.44608263266594594
0.33106382978723403 0.520760325861036 0.4406395511053358
0.3312765957446808 0.5218242273966464 0.4353026459685697
0.33148936170212767 0.5197494755342416 0.43264197245353936
0.33170212765957446 0.5192965315095261 0.4279313028663253
0.33191489361702126 0.5183631013173929 0.4293216723041493
0.3321276595744681 0.5192549998351607 0.427465194838474
0.3323404255319149 0.5153205737561765 0.428567450435864
0.3325531914893617 0.5141631311103535 0.4307582344531801
0.3327659574468085 0.5117707537698102 0.4329737989659994
0.33297872340425533 0.5076595598648824 0.431362970200293
0.3331914893617021 0.5043666142844959 0.4310886465268017
0.3334042553191489 0.5026801601279419 0.429730105123562
0.33361702127659576 0.5007327796775769 0.42651423856017207
0.33382978723404255 0.4994167623018294 0.4231079811808898
0.33404255319148934 0.4973078757704639 0.42158204367575947
0.3342553191489362 0.4957301530481971 0.4206155349291647
0.334468085106383 0.4906894954908093 0.420018242534
0.3346808510638298 0.4847883399410136 0.4176927401639242
0.33489361702127657 0.4770052614999449 0.41943662372243673
0.3351063829787234 0.4634470183400088 0.4242507659107641
0.3353191489361702 0.4511327121507097 0.4262793151053647
0.335531914893617 0.4381237036942659 0.42731053994730883
0.33574468085106385 0.4292125316864269 0.43097263010207226
0.33595744680851064 0.4219107452165524 0.4294997969793123
0.33617021276595743 0.4137433807057976 0.4323317904622335
0.3363829787234042 0.4095301767370218 0.4313066497134573
0.33659574468085107 0.40400685082191995 0.4303869192146899
0.33680851063829786 0.4049820751078692 0.43136214350063895
0.33702127659574466 0.4099688672929916 0.4334849953987573
0.3372340425531915 0.41305073622934346 0.4385376043390105
0.3374468085106383 0.41586880075653765 0.44266426018296556
0.3376595744680851 0.4172724644760568 0.44790218984284025
0.33787234042553194 0.41802985800607634 0.4560187647889987
0.33808510638297873 0.4133678342406877 0.4593247704485072
0.3382978723404255 0.41271841620292293 0.4652202082696127
0.3385106382978723 0.408506373990826 0.46496700168088867
0.33872340425531916 0.40749444412562746 0.4680768135071044
0.33893617021276595 0.4027766155757933 0.4700348041171876
0.33914893617021274 0.39712188781579916 0.46900134236469443
0.3393617021276596 0.3944988436853509 0.47003108076471034
0.3395744680851064 0.39201968500841866 0.4710639239833334
0.3397872340425532 0.3892815042302256 0.47277015497174013
0.34 0.38693307768840557 0.4690552174325837
0.3402127659574468 0.38795539661167827 0.4690496809301932
0.3404255319148936 0.38755330272554 0.46864758704405496
0.3406382978723404 0.3821412645912677 0.4702421155156611
0.34085106382978725 0.37781371825655724 0.4750948453400266
0.34106382978723404 0.3746834197793776 0.4724008832155949
0.34127659574468083 0.37199203740650555 0.4729391596901693
0.3414893617021277 0.3696338910059702 0.4717953952139662
0.3417021276595745 0.36856131009530924 0.4644467517745721
0.34191489361702126 0.36703029887617844 0.46299751480305373
0.34212765957446806 0.3676597975083981 0.45989271836849493
0.3423404255319149 0.3671288379752252 0.46117511610677675
0.3425531914893617 0.36816289032999006 0.46170575988448004
0.3427659574468085 0.3688324377137273 0.45969711773326827
0.34297872340425534 0.369168736064844 0.4607060127866181
0.34319148936170213 0.37097975080378975 0.4630183276168959
0.3434042553191489 0.3736299497750029 0.46449462979454376
0.34361702127659577 0.3766662972410062 0.46605226068054945
0.34382978723404256 0.38128602532629663 0.46492647957706035
0.34404255319148935 0.3834880312652662 0.46301640358390805
0.34425531914893615 0.3893009765307875 0.46198235363629575
0.344468085106383 0.3936775921480774 0.46234929924941726
0.3446808510638298 0.3972322226897117 0.46337742548190525
0.3448936170212766 0.4053370685862142 0.46440454754361293
0.3451063829787234 0.4180388935299199 0.46799828868599397
0.3453191489361702 0.43503679262286227 0.4666789094802149
0.345531914893617 0.451653703048597 0.4674992406613483
0.3457446808510638 0.46890265132554326 0.4693850779420237
0.34595744680851065 0.47914797781005086 0.4680062722078854
0.34617021276595744 0.48783921090086135 0.4717706439808254
0.34638297872340423 0.49358389216933174 0.4686960324420263
0.3465957446808511 0.5010582491195312 0.46972801523670543
0.3468085106382979 0.5036887977652217 0.47012717294014145
0.34702127659574467 0.5020820692621045 0.46835076339101894
0.3472340425531915 0.5001371389286786 0.4648365814645839
0.3474468085106383 0.49682462139716654 0.45977152464629945
0.3476595744680851 0.49787522230537873 0.45413949675243015
0.3478723404255319 0.4982027273030112 0.44784898853192356
0.34808510638297874 0.500331500760074 0.44440906423352816
0.34829787234042553 0.5030815852419208 0.4433786016145061
0.3485106382978723 0.5088620548667524 0.4475430077376964
0.34872340425531917 0.5128975258005177 0.4449590984256149
0.34893617021276596 0.5159852712410303 0.4432141588942534
0.34914893617021275 0.5245392106054868 0.4439956447977763
0.34936170212765955 0.5203400654419181 0.44406448461162684
0.3495744680851064 0.5263226349789633 0.44782318170906205
0.3497872340425532 0.5314661192300492 0.44406448461162684
0.35 0.5361974368714117 0.44333640293627263
0.3502127659574468 0.5378602833414754 0.43937921630678933
0.3504255319148936 0.5391372213738327 0.4391347759053307
0.3506382978723404 0.5436764736003376 0.4365584988535892
0.35085106382978726 0.5446348643976645 0.4382669431255403
0.35106382978723405 0.5427454811919883 0.44052557551817095
0.35127659574468084 0.5418940038108534 0.4436877980447236
0.35148936170212763 0.5398309441919901 0.44939674797141704
0.3517021276595745 0.5372345058112712 0.45562070773982966
0.3519148936170213 0.5329848496229969 0.4581358072475109
0.35212765957446807 0.52911551481049 0.457743038593063
0.3523404255319149 0.5239567237359631 0.4563653172915676
0.3525531914893617 0.5177517064687464 0.4520590063269515
0.3527659574468085 0.5107381702232267 0.44608041082292343
0.3529787234042553 0.5069468549459014 0.44332200360666335
0.35319148936170214 0.5020317335713699 0.4376115048093372
0.35340425531914893 0.4969362343920264 0.4305421888229943
0.3536170212765957 0.4928565853535705 0.4272751786303256
0.35382978723404257 0.49052920314958764 0.4209861213415184
0.35404255319148936 0.4855144335169272 0.41419054489943824
0.35425531914893615 0.4817985865571037 0.40991903600682883
0.354468085106383 0.47954204221230284 0.4055113370488793
0.3546808510638298 0.47505309007103635 0.4031693347658912
0.3548936170212766 0.46612934215140545 0.4027438291685572
0.3551063829787234 0.4553840326215202 0.40831253325676103
0.3553191489361702 0.44446830075659777 0.4149591459921206
0.355531914893617 0.43312718611251144 0.4196701392303932
0.3557446808510638 0.42352948048599154 0.42229781982940373
0.35595744680851066 0.4200003891861628 0.42170121641046704
0.35617021276595745 0.4142674071499713 0.41860137685075566
0.35638297872340424 0.40673116118181674 0.4169571279879391
0.35659574468085103 0.40419929242804986 0.41670737664875435
0.3568085106382979 0.40483974132815825 0.4158734975580166
0.3570212765957447 0.40587421317096173 0.4228608279861597
0.35723404255319147 0.4097577325768294 0.42829389263847695
0.3574468085106383 0.41081953191329657 0.43748128076932996
0.3576595744680851 0.40986809965803617 0.4477427776259472
0.3578723404255319 0.4104016162815706 0.45658923438815957
0.35808510638297875 0.4129640265246155 0.4626258745700706
0.35829787234042554 0.40824757210007123 0.4694438982576762
0.35851063829787233 0.40515234968226893 0.4771143821203691
0.3587234042553191 0.40206380614773435 0.4811679421744872
0.35893617021276597 0.3989767174655652 0.4869684573750105
0.35914893617021276 0.3975932124896402 0.4925451078640742
0.35936170212765955 0.3981436248168051 0.5011166790810835
0.3595744680851064 0.39760797178021473 0.5098089353177347
0.3597872340425532 0.39657295644529744 0.514831769724428
0.36 0.39294766382254703 0.5222008001365134
0.3602127659574468 0.3892511579615304 0.5285807520377357
0.3604255319148936 0.3869139331354314 0.5315032627610025
0.3606382978723404 0.3832738312424252 0.5359296943372958
0.3608510638297872 0.37914981348497784 0.5377235383239193
0.36106382978723406 0.3758957563898798 0.5387626423497665
0.36127659574468085 0.3737447528364712 0.5369103610436033
0.36148936170212764 0.3726062399522332 0.533772983671859
0.3617021276595745 0.3695166873989133 0.5290680004975988
0.3619148936170213 0.3667305217819338 0.5189430399553329
0.3621276595744681 0.36569912407952326 0.5084472910902589
0.36234042553191487 0.3655326161377436 0.4922012624435241
0.3625531914893617 0.36794541268317926 0.47386400869821405
0.3627659574468085 0.36918434601730254 0.45573795304526055
0.3629787234042553 0.3672033310714834 0.4383710996686493
0.36319148936170215 0.3692254250160141 0.4209868074889944
0.36340425531914894 0.3717372674621369 0.4036093538190132
0.36361702127659573 0.37579426495208357 0.39160904223968124
0.3638297872340425 0.380220010528485 0.38351496447272054
0.36404255319148937 0.3842384328773384 0.3760469155104815
0.36425531914893616 0.3862984197136965 0.37793321823688564
0.36446808510638296 0.3912114251944485 0.3829182041775313
0.3646808510638298 0.3999164561369224 0.39216842223498255
0.3648936170212766 0.40629081023823377 0.40287895524873557
0.3651063829787234 0.41713613672938515 0.41001101968491305
0.36531914893617023 0.43318018933351876 0.4144748226142785
0.365531914893617 0.44749980741768913 0.4157303370786516
0.3657446808510638 0.46316238413793237 0.4134318453532291
0.3659574468085106 0.47636982347264345 0.412799218368344
0.36617021276595746 0.4886599314208635 0.40933286441646194
0.36638297872340425 0.49729193991051784 0.4079777356499248
0.36659574468085104 0.5054682647935483 0.41366397338754046
0.3668085106382979 0.506555550009977 0.4194016928297689
0.3670212765957447 0.5085490962383976 0.4255235421655109
0.3672340425531915 0.508888076229105 0.43405150598703107
0.36744680851063827 0.5135271984862437 0.44723424961439
0.3676595744680851 0.5069186201890099 0.4580604113862299
0.3678723404255319 0.5089777153690883 0.4667254112372344
0.3680851063829787 0.5102332427370478 0.4762422397756922
0.36829787234042555 0.5101806612333772 0.48413735268747177
0.36851063829787234 0.5168232155038044 0.49189355889041236
0.36872340425531913 0.5229900257866908 0.49660553677172203
0.368936170212766 0.5197896148292074 0.4982947442869504
0.36914893617021277 0.5203715195046625 0.4983391549648374
0.36936170212765956 0.522437650862897 0.4981851804307889
0.36957446808510636 0.5219030810825042 0.497150856613553
0.3697872340425532 0.5219587590094308 0.49611647303746714
0.37 0.5245142036573981 0.4927988439103116
0.3702127659574468 0.5271614434671132 0.48713300465792186
0.37042553191489364 0.5296920504524988 0.4810595478929966
0.3706382978723404 0.5300439667806547 0.4734374736996629
0.3708510638297872 0.5314116582599618 0.4625315979590023
0.371063829787234 0.531303207836043 0.45107685923018154
0.37127659574468086 0.5280384587509505 0.4405162738925201
0.37148936170212765 0.5279121105285921 0.4310088850668033
0.37170212765957444 0.5263875901780521 0.42259970121049834
0.3719148936170213 0.5252275545420251 0.41977606658282896
0.3721276595744681 0.5241948585895373 0.41771067467785333
0.3723404255319149 0.5181488438216604 0.4197664814473844
0.3725531914893617 0.5138316442380965 0.4230526885868004
0.3727659574468085 0.50794163246861 0.42669548220764814
0.3729787234042553 0.5042287107162515 0.42360018217370915
0.3731914893617021 0.5013783404494215 0.42771651559355484
0.37340425531914895 0.49685533649902275 0.42937817595823174
0.37361702127659574 0.4941303443649797 0.4324732670382656
0.37382978723404253 0.49120772050941425 0.4347212745624363
0.3740425531914894 0.4861190312773153 0.43575267407387525
0.37425531914893617 0.48262294998342037 0.43938687264466564
0.37446808510638296 0.47934331738597136 0.44154526337949035
0.37468085106382976 0.47234187658629295 0.4436043426057299
0.3748936170212766 0.4608416747415869 0.4470321023415849
0.3751063829787234 0.4497737100109222 0.4479726428920372
0.3753191489361702 0.43879901015745293 0.44648235322576774
0.37553191489361704 0.4291051559349854 0.44125655567461824
0.37574468085106383 0.4215337950700933 0.4367728881313368
0.3759574468085106 0.4134682157772021 0.43446133826281536
0.37617021276595747 0.40714279251780955 0.4352368265523565
0.37638297872340426 0.40402455942560567 0.4323587069585809
0.37659574468085105 0.40307759268797116 0.4314117402209462
0.37680851063829784 0.4043984230291655 0.4323400097703958
0.3770212765957447 0.40832910013634643 0.4320632900247187
0.3772340425531915 0.4108451392281387 0.4313404772522753
0.3774468085106383 0.41131876944064605 0.4345606831619424
0.3776595744680851 0.4136604276114362 0.4317658702750009
0.3778723404255319 0.41505158695849026 0.4293678054499484
0.3780851063829787 0.41416703676594685 0.42745481191988266
0.37829787234042556 0.4120873418206308 0.42789913786786915
0.37851063829787235 0.4074095349695608 0.4294195349022339
0.37872340425531914 0.40702350973258217 0.43091771480766866
0.37893617021276593 0.4045147440671486 0.4319295162754068
0.3791489361702128 0.4008189794976602 0.430490804371063
0.3793617021276596 0.39813226196692325 0.4307191857201459
0.37957446808510636 0.39786963128439873 0.4334721083133817
0.3797872340425532 0.3966363216432748 0.4373086952576613
0.38 0.39457565761543695 0.44304391137450005
0.3802127659574468 0.39338086492943114 0.4517558990742997
0.3804255319148936 0.38870926537880995 0.4574070023300321
0.38063829787234044 0.3931940110261591 0.4587071949751389
0.38085106382978723 0.3804433912532752 0.4565767968534884
0.381063829787234 0.3773323062206172 0.45166068545442234
0.38127659574468087 0.3731991583393886 0.4486904438497138
0.38148936170212766 0.36980947728383007 0.4464492868134421
0.38170212765957445 0.37048882208670303 0.44429093287925114
0.3819148936170213 0.3713837828187197 0.44612697472206375
0.3821276595744681 0.36753457698679004 0.4495913247758092
0.3823404255319149 0.367622155337323 0.4505318632204444
0.3825531914893617 0.3692605956059668 0.448642248355524
0.3827659574468085 0.36890253954793295 0.44790254105783156
0.3829787234042553 0.36879796833372225 0.44847839736709105
0.3831914893617021 0.3724190215531643 0.4511040960152382
0.38340425531914896 0.3741359348129338 0.45327613999124344
0.38361702127659575 0.3755154536279157 0.45705274955779274
0.38382978723404254 0.3798997117160557 0.4616476921981727
0.38404255319148933 0.38153395212506114 0.4682004554361056
0.3842553191489362 0.3845128642332441 0.4749129211666711
0.384468085106383 0.3894224520285906 0.4755107221003884
0.38468085106382977 0.39786360763569734 0.472817651061672
0.3848936170212766 0.4061825016874278 0.475046821132297
0.3851063829787234 0.4144340225524408 0.4762668810554987
0.3853191489361702 0.4314346908320483 0.47631230739668573
0.38553191489361704 0.44497899462743906 0.47728382999511476
0.38574468085106384 0.4602219279080144 0.4776304107054645
0.38595744680851063 0.47332753517402765 0.481009091455226
0.3861702127659574 0.48499526865288467 0.48612748057657673
0.38638297872340427 0.49385633006371343 0.4907041843503458
0.38659574468085106 0.5011783944726982 0.49320099398980094
0.38680851063829785 0.5043050398448741 0.49422940079997196
0.3870212765957447 0.5032800103271103 0.4960222064392845
0.3872340425531915 0.5035617679300501 0.4947394790743311
0.3874468085106383 0.5051258125873075 0.48999263471791055
0.3876595744680851 0.5061497600631075 0.48528582709122225
0.3878723404255319 0.507178563811954 0.48100193441810474
0.3880851063829787 0.5094796604506292 0.47767147699564383
0.3882978723404255 0.5125649638409526 0.4742450019626624
0.38851063829787236 0.517122880198781 0.4711625200487821
0.38872340425531915 0.5183194919394236 0.4626230966615984
0.38893617021276594 0.5207328921368788 0.45584735690846007
0.3891489361702128 0.5220300728657752 0.44545837329022914
0.3893617021276596 0.522227650219834 0.43999410937474914
0.3895744680851064 0.5214441261247069 0.4329110940000986
0.38978723404255317 0.5220449918460334 0.430568589003991
0.39 0.5215793610421272 0.4271444847416572
0.3902127659574468 0.5223608827098375 0.4277212768998899
0.3904255319148936 0.5242685405598566 0.429940816445048
0.39063829787234045 0.5240873906504908 0.43199299804966673
0.39085106382978724 0.5242663890060482 0.4350865480340177
0.39106382978723403 0.5261198006051109 0.4381222077153442
0.3912765957446808 0.5251922045911306 0.4334842276454435
0.39148936170212767 0.5260214933681754 0.43504249821656554
0.39170212765957446 0.522092901075253 0.433653965510707
0.39191489361702125 0.5243181584040078 0.43255016240192923
0.3921276595744681 0.5189994039200709 0.4323400097703958
0.3923404255319149 0.5150389590539799 0.43541133419085054
0.3925531914893617 0.5121232139036206 0.43624816805080613
0.39276595744680853 0.5076788391171908 0.4373342754312388
0.3929787234042553 0.5033779995899881 0.4388337163750108
0.3931914893617021 0.5003632221583719 0.4405258838504214
0.3934042553191489 0.49819679388511107 0.44203766713988896
0.39361702127659576 0.4922576193500539 0.44129527032300686
0.39382978723404255 0.48880235026498386 0.44041335466412995
0.39404255319148934 0.4859672429887148 0.43602828177615954
0.3942553191489362 0.4817993585474728 0.43033314330044564
0.394468085106383 0.48178037392002 0.42634461787052225
0.3946808510638298 0.4777136624316136 0.42509552531316624
0.39489361702127657 0.4647650720198226 0.4264585348301968
0.3951063829787234 0.45489957109843554 0.4203160258591056
0.3953191489361702 0.4431968684570911 0.42191806932811093
0.395531914893617 0.4331433733536052 0.42327090936713085
0.39574468085106385 0.429662506649855 0.42571692558047897
0.39595744680851064 0.418606187186839 0.4279181328662134
0.39617021276595743 0.4124721646758705 0.4322337395444496
0.3963829787234043 0.40521303546914855 0.431664763508225
0.39659574468085107 0.40132199419466635 0.4349414609239654
0.39680851063829786 0.4078160181422566 0.4352711284807034
0.39702127659574465 0.41075392275917044 0.439270503230082
0.3972340425531915 0.409235934637421 0.4419380731834562
0.3974468085106383 0.4125025594412993 0.4491633090173888
0.3976595744680851 0.4157303370786516 0.45505063589501854
0.39787234042553193 0.4157303370786516 0.4567017450838777
0.3980851063829787 0.4153537640003142 0.46022637047651516
0.3982978723404255 0.41520063430604204 0.46307557324106896
0.3985106382978723 0.41314548295235665 0.46567315931471465
0.39872340425531916 0.411356334455637 0.4705806056590791
0.39893617021276595 0.4108133280619905 0.472871246346579
0.39914893617021274 0.40816519474300483 0.4729662671162789
0.3993617021276596 0.4062988277263558 0.4720993652719593
0.3995744680851064 0.40666932082446766 0.46219965976555466
0.3997872340425532 0.40693698094772834 0.45637661128525286
0.4 0.405547274645009 0.45161984054469995
0.4002127659574468 0.40372314990590424 0.4472783156534507
0.4004255319148936 0.40081881527158936 0.45018265028776583
0.4006382978723404 0.39785179859095693 0.4535874063071704
0.40085106382978725 0.39470754495192883 0.4571078954253468
0.40106382978723404 0.38764890455087814 0.4545283591935879
0.40127659574468083 0.3827745541144442 0.45419161888806364
0.4014893617021277 0.37991800011294513 0.45440793187972617
0.40170212765957447 0.3756159661755947 0.45544274244789745
0.40191489361702126 0.3721439194811316 0.46102475941459653
0.40212765957446805 0.3705763662804606 0.46863057424650617
0.4023404255319149 0.36824994181532333 0.4701815238899309
0.4025531914893617 0.3678553981436248 0.4739382806816968
0.4027659574468085 0.3683815966596136 0.47585594937089853
0.40297872340425533 0.3688324377137273 0.4766138954018919
0.4031914893617021 0.36888732520592454 0.477338717487312
0.4034042553191489 0.36967776137113917 0.47812915365252645
0.40361702127659577 0.37181214534910273 0.48159864967400534
0.40382978723404256 0.3755697881697356 0.4859752595913282
0.40404255319148935 0.37995504234623934 0.48976024278961827
0.40425531914893614 0.382836104846269 0.48803160528960055
0.404468085106383 0.38759828990383266 0.48522651457287014
0.4046808510638298 0.3948077980237934 0.48102096816955964
0.4048936170212766 0.4037350823619261 0.4719148583515637
0.4051063829787234 0.4177186923181461 0.45692484576440573
0.4053191489361702 0.4307972267024958 0.44535013716821015
0.405531914893617 0.44609879882091547 0.4339747059745789
0.4057446808510638 0.46274945802679684 0.4333450235520108
0.40595744680851065 0.4760733608302918 0.4367686950335736
0.40617021276595744 0.4868555457122909 0.4438188613566722
0.40638297872340423 0.4974650276873907 0.4496803929993015
0.4065957446808511 0.501640555141797 0.45740451519656294
0.40680851063829787 0.5052931803928592 0.46262757440247343
0.40702127659574466 0.5037874607041308 0.46604978476557946
0.4072340425531915 0.5051826112171973 0.4676197412424064
0.4074468085106383 0.5051446759089314 0.4645214429202093
0.4076595744680851 0.5050595286674723 0.4609528898617233
0.4078723404255319 0.5057645995430657 0.4580116253556507
0.40808510638297874 0.5065950170981925 0.4547033772561601
0.4082978723404255 0.5084464810784288 0.4514692427573728
0.4085106382978723 0.51187717485154 0.4494687222079299
0.40872340425531917 0.514976610070781 0.4484355771348496
0.40893617021276596 0.5163654127992183 0.4514663572840546
0.40914893617021275 0.5189246542337095 0.4538348803126526
0.40936170212765954 0.5216603171985432 0.4538348803126526
0.4095744680851064 0.5214676162699168 0.4538348803126526
0.4097872340425532 0.5237570014435454 0.44965756232296245
0.41 0.5223640536177567 0.4471320067198572
0.4102127659574468 0.5261341468193584 0.44014967960767304
0.4104255319148936 0.5250116357269652 0.43595390164445336
0.4106382978723404 0.5237354193010362 0.43180928025929605
0.41085106382978726 0.5269695666213287 0.4275721627958764
0.41106382978723405 0.5259288236836643 0.4223626292527898
0.41127659574468084 0.5254370391861016 0.4218708447552272
0.41148936170212763 0.5247514923679935 0.42222353503630705
0.4117021276595745 0.5209838552546058 0.42117797617752456
0.41191489361702127 0.5183206074759618 0.4215914589627289
0.41212765957446806 0.5156628628348979 0.42256961406936977
0.4123404255319149 0.5137828521931814 0.4257120213985286
0.4125531914893617 0.5092484053448699 0.4288501081678963
0.4127659574468085 0.5068006743752582 0.4340371848183093
0.4129787234042553 0.5049074907271421 0.4361148916662287
0.41319148936170214 0.4973027999021816 0.4426690388496359
0.41340425531914893 0.49582350008958986 0.444088566349101
0.4136170212765957 0.49331334225803425 0.4458528036293106
0.41382978723404257 0.4865985035874124 0.44421639198120294
0.41404255319148936 0.48412310698583294 0.44483944282068405
0.41425531914893615 0.4824704762332006 0.44489079998794295
0.414468085106383 0.4772146158015303 0.44699560332193444
0.4146808510638298 0.47259973720968806 0.44660560137261707
0.4148936170212766 0.4647842368478564 0.4456067596389058
0.4151063829787234 0.45539220481865145 0.44838978978198685
0.4153191489361702 0.446011334173646 0.45133719812481427
0.415531914893617 0.4347859790996026 0.4502933927380266
0.4157446808510638 0.42696917486841585 0.44924337087988736
0.41595744680851066 0.4194744451175091 0.4466898245888265
0.41617021276595745 0.4168645536406299 0.44355897601715083
0.41638297872340424 0.41054148996159195 0.4386832402649796
0.4165957446808511 0.4117651932747196 0.4334595131493024
0.4168085106382979 0.41662075747779886 0.4204422965872537
0.41702127659574467 0.4154383104094332 0.41636487019831225
0.41723404255319146 0.42079373325212427 0.4141326545843656
0.4174468085106383 0.42283018634313946 0.4177105160288472
0.4176595744680851 0.4264777723497801 0.4248118816640881
0.4178723404255319 0.4230318459239282 0.43090073834573467
0.41808510638297874 0.41859999854942725 0.4408260797036582
0.41829787234042554 0.4159350400616322 0.4507801491342417
0.41851063829787233 0.410992132726477 0.4578237292858669
0.4187234042553191 0.4073265578066452 0.46287404504750695
0.41893617021276597 0.40464989763085085 0.4665473812039435
0.41914893617021276 0.40191387620167607 0.46960542032983343
0.41936170212765955 0.40032577306612543 0.47119352346538407
0.4195744680851064 0.3977237428514873 0.4698389518374839
0.4197872340425532 0.3938079107152999 0.47030718206714467
0.42 0.3899942612026443 0.46799642868166075
0.42021276595744683 0.38700333604142995 0.467513434294089
0.4204255319148936 0.38479857811394147 0.46508257650164025
0.4206382978723404 0.38275985552353003 0.4688453538633781
0.4208510638297872 0.3743663428284881 0.45770302062687374
0.42106382978723406 0.37084453688040037 0.45485059990040033
0.42127659574468085 0.36864109830470965 0.45188080117244755
0.42148936170212764 0.3638532683833981 0.45225668709171296
0.4217021276595745 0.3625187847598933 0.4559394312972641
0.4219148936170213 0.36024367945127256 0.4575843904968344
0.4221276595744681 0.36076054283755327 0.4624632055108441
0.42234042553191486 0.36003908158280407 0.4690614783035334
0.4225531914893617 0.36003908158280407 0.4756830706779935
0.4227659574468085 0.36189293499060066 0.48489969509111835
0.4229787234042553 0.365268903685403 0.4933747537411527
0.42319148936170214 0.36789294574063613 0.4993949623570422
0.42340425531914894 0.37303574932065026 0.5030593587277101
0.42361702127659573 0.37617480555679816 0.5056471196626927
0.4238297872340426 0.3794214221829843 0.5065950170981925
0.42404255319148937 0.3845276502684378 0.502403839697465
0.42425531914893616 0.38900242394679463 0.49652664764344867
0.42446808510638295 0.39661477858468663 0.4864872484853584
0.4246808510638298 0.4021383176198504 0.47560193433337333
0.4248936170212766 0.4086609309909427 0.46211145506745516
0.4251063829787234 0.4167047249667165 0.44773302344307764
0.42531914893617023 0.4339262189729408 0.4415069518756975
0.425531914893617 0.449494842485388 0.43639212789975756
0.4257446808510638 0.4658693215503606 0.44126620864266625
0.4259574468085106 0.47987133969006274 0.44748827153117876
0.42617021276595746 0.4893633333540332 0.45405689166061763
0.42638297872340425 0.500264835180314 0.4562253266581489
0.42659574468085104 0.5068221453444179 0.4619918892428115
0.4268085106382979 0.5085490962383976 0.4648867200506012
0.4270212765957447 0.5085490962383976 0.46626154123711283
0.4272340425531915 0.5079855552158421 0.46401877456122564
0.4274468085106383 0.5058508342500436 0.46141834015151956
0.4276595744680851 0.5060184191616488 0.45923266246201166
0.4278723404255319 0.504300216798524 0.45510751713393127
0.4280851063829787 0.5052544396506392 0.4538348803126526
0.42829787234042555 0.5084780258095164 0.4529289111714313
0.42851063829787234 0.5095261358085001 0.4503659854062356
0.42872340425531913 0.5117500884482505 0.4467257298223894
0.428936170212766 0.5122125942516028 0.4450415241817294
0.42914893617021277 0.5134749625760255 0.4437116924301826
0.42936170212765956 0.5144113336590133 0.44380210085801963
0.42957446808510635 0.515230581834415 0.44242598826082347
0.4297872340425532 0.5163315256403533 0.4402241006489464
0.43 0.5163654127992183 0.4383352161306241
0.4302127659574468 0.5173028965994467 0.43726476339078285
0.43042553191489363 0.5193859641000381 0.42442308154524916
0.4306382978723404 0.5269351391463233 0.4151379739985731
0.4308510638297872 0.5244403014357186 0.4050980344586939
0.43106382978723407 0.5273986242660407 0.39590376948090605
0.43127659574468086 0.5294670913787868 0.39163439944286826
0.43148936170212765 0.5312730088985528 0.380525941933879
0.43170212765957444 0.5316883493113347 0.3776257938446508
0.4319148936170213 0.5310210063507572 0.3783668399700703
0.4321276595744681 0.530593311842215 0.3817183455275671
0.4323404255319149 0.5290852338037385 0.3873412697661173
0.4325531914893617 0.5249016319544553 0.3951096917849756
0.4327659574468085 0.518720775263542 0.4008741018650536
0.4329787234042553 0.5125528541694524 0.40586434172698144
0.4331914893617021 0.506367192911527 0.41480732462962394
0.43340425531914895 0.5031677693643736 0.4191575848124705
0.43361702127659574 0.49953748153448807 0.42278787264235607
0.43382978723404253 0.4945979680737017 0.4310719720740784
0.4340425531914894 0.4912261285341759 0.4332291344879567
0.43425531914893617 0.4900158994226292 0.4361565030022637
0.43446808510638296 0.48502250595079327 0.440175736482502
0.4346808510638298 0.4806068498350827 0.4415057267270551
0.4348936170212766 0.47057082428398017 0.4478922884413931
0.4351063829787234 0.4563534897182621 0.451110016254694
0.4353191489361702 0.44583679029766793 0.4565615014690356
0.43553191489361703 0.4343619707014867 0.4642113811998231
0.4357446808510638 0.42689393772127754 0.46730385484918807
0.4359574468085106 0.4168840276086153 0.46680319092740014
0.43617021276595747 0.41315169598113094 0.46815407490505623
0.43638297872340426 0.40874299285500365 0.4687174422322724
0.43659574468085105 0.4060746016101977 0.4662198652877929
0.43680851063829784 0.4069426685999429 0.4636024321875713
0.4370212765957447 0.41218413143505955 0.4615305459945339
0.4372340425531915 0.41414930374513614 0.4600701635399579
0.4374468085106383 0.4124625029296149 0.45838336272443664
0.4376595744680851 0.4132517018354983 0.45917256163032005
0.4378723404255319 0.4137762579384465 0.4604548534929793
0.4380851063829787 0.4153990024118469 0.4622969017767712
0.43829787234042555 0.4157303370786516 0.46350002831116116
0.43851063829787235 0.4092169406997789 0.4636052760136786
0.43872340425531914 0.40592991303229564 0.4625831939255806
0.43893617021276593 0.40365164472730114 0.45983880473731603
0.4391489361702128 0.39899215664904186 0.4617797046113391
0.43936170212765957 0.3977702994716485 0.4628148991161542
0.43957446808510636 0.3961895456765998 0.4636052760136786
0.4397872340425532 0.395891492784527 0.46420138179782416
