0.0 0.3737176355642404 0.47239863214460187
0.0002127659574468085 0.3704716207121818 0.47239863214460187
0.000425531914893617 0.36722560586012326 0.47239863214460187
0.0006382978723404255 0.36397959100806465 0.47239863214460187
0.000851063829787234 0.3607335761560061 0.47239863214460187
0.0010638297872340426 0.3574875613039475 0.47239863214460187
0.001276595744680851 0.3542415464518889 0.47239863214460187
0.0014893617021276596 0.3509955315998303 0.47239863214460187
0.001702127659574468 0.3477495167477717 0.47239863214460187
0.0019148936170212765 0.3445035018957131 0.47239863214460187
0.002127659574468085 0.3394924603406934 0.47141439500701016
0.002340425531914894 0.3337163248575632 0.471799386913451
0.002553191489361702 0.32825095989225306 0.4753297508549097
0.0027659574468085106 0.3235936894384638 0.4753297508549097
0.0029787234042553193 0.31884707767321735 0.47497801400399575
0.0031914893617021275 0.31488386309918664 0.4751983043204006
0.003404255319148936 0.314499220867427 0.47864186864466196
0.003617021276595745 0.31670988735209044 0.4808525351293254
0.003829787234042553 0.3185657809704365 0.4811919882755251
0.004042553191489362 0.3204317449308001 0.4840486388601346
0.00425531914893617 0.3209574987787005 0.48573374245216955
0.004468085106382979 0.3220445894886687 0.4844465500610859
0.004680851063829788 0.3275449433380249 0.48275995363080376
0.004893617021276595 0.3358522194075876 0.4818215516606417
0.005106382978723404 0.3416651235572325 0.4801742786040559
0.005319148936170213 0.35269240307458827 0.4778112901360511
0.005531914893617021 0.36268548909197634 0.4751319427494904
0.00574468085106383 0.37373678629046514 0.4712300192123816
0.005957446808510639 0.3899380680390651 0.46497268123721586
0.006170212765957446 0.4173333024044667 0.45744828040788277
0.006382978723404255 0.4444514239296318 0.45146818376010334
0.006595744680851064 0.4701348393505605 0.4449017598846344
0.006808510638297872 0.493871537226775 0.4387731021677412
0.007021276595744681 0.5142098104641413 0.4363057461064837
0.00723404255319149 0.5303734548236562 0.43214753734026556
0.007446808510638298 0.5443982534891085 0.43098029155270257
0.007659574468085106 0.5538621017363591 0.4307061723098236
0.007872340425531916 0.5607126256681545 0.42967116554773555
0.008085106382978723 0.5646013895882397 0.434039125048487
0.008297872340425531 0.5635521937715077 0.4369363260135436
0.00851063829787234 0.5605769097104785 0.43991161007457286
0.008723404255319148 0.5584160287276209 0.4430305734205374
0.008936170212765958 0.5522235395552243 0.4430874450415241
0.009148936170212766 0.5552216141892868 0.4476909161244934
0.009361702127659575 0.5554469956033219 0.44412392510552484
0.009574468085106383 0.5563050736715734 0.4476950660543849
0.00978723404255319 0.5536608314965541 0.44130128093475623
0.01 0.5558868249271518 0.4426476157176942
0.010212765957446808 0.5581716177245022 0.4407758160985992
0.010425531914893617 0.556600772425831 0.44282067760229205
0.010638297872340425 0.5544699560332194 0.44211040547142155
0.010851063829787235 0.5548269054815024 0.44211040547142155
0.011063829787234043 0.5547549584059975 0.44211040547142155
0.01127659574468085 0.5542701591654191 0.44016729871566573
0.01148936170212766 0.5550049124001257 0.4367831244177125
0.011702127659574468 0.5529481437689299 0.43371181427699035
0.011914893617021277 0.5526713200881684 0.431362970200293
0.012127659574468085 0.555283473820322 0.431362970200293
0.012340425531914893 0.5528065485233903 0.4271425691085865
0.012553191489361702 0.5511615455882538 0.4269226845513543
0.01276595744680851 0.5491700918601187 0.4242865469300978
0.01297872340425532 0.5476306790425012 0.4194659459279278
0.013191489361702127 0.544436583506478 0.41631551813198975
0.013404255319148937 0.5387115626207652 0.41350539384993834
0.013617021276595745 0.532964138645719 0.4105145941068852
0.013829787234042552 0.5262882700712841 0.40692452691895553
0.014042553191489362 0.5214552766007442 0.4021805120337304
0.01425531914893617 0.5166655465613139 0.4033289564294136
0.01446808510638298 0.5171601241490207 0.40512782278132364
0.014680851063829787 0.5102166205232865 0.4057689048074149
0.014893617021276596 0.5071948258390827 0.4037229391155112
0.015106382978723404 0.5034636085140953 0.40167561314848094
0.015319148936170212 0.5010945824723927 0.40703952041027613
0.015531914893617021 0.4943857543005614 0.40898602737059947
0.01574468085106383 0.4794081712341158 0.419343503481263
0.015957446808510637 0.4608170222988095 0.42645188395652717
0.016170212765957447 0.4430284659708346 0.4329242892280412
0.016382978723404256 0.42730337340481805 0.43857875468501073
0.016595744680851062 0.4142114585203062 0.44696786285079776
0.01680851063829787 0.40617136268650944 0.45339327278994696
0.01702127659574468 0.397929435203583 0.46224681146513574
0.01723404255319149 0.3909284144154007 0.4666871553859423
0.017446808510638297 0.38546817528088395 0.46981569194830985
0.017659574468085106 0.37957987298485585 0.47506992574339335
0.017872340425531916 0.3791148539530389 0.479702928167137
0.018085106382978722 0.3812636331301145 0.4807471086484948
0.01829787234042553 0.38764175017832236 0.4811919882755251
0.01851063829787234 0.3942778692813588 0.4818504151130875
0.01872340425531915 0.3998000099399249 0.4807248421402977
0.018936170212765956 0.40343900682307654 0.48494347529735005
0.019148936170212766 0.40206206054202115 0.48737305392297103
0.019361702127659575 0.4021688116395006 0.4907664355472125
0.01957446808510638 0.3990588899672163 0.4958939126418325
0.01978723404255319 0.39427993732339045 0.5001775537120321
0.02 0.3918760803575483 0.5007882548418502
0.02021276595744681 0.38987307621126777 0.49930150806275775
0.020425531914893616 0.38704853938853917 0.49647697124002915
0.020638297872340425 0.38446507083536874 0.4881228886018351
0.020851063829787235 0.3825444057443779 0.47895121233603577
0.02106382978723404 0.3777726101165589 0.4735224879866125
0.02127659574468085 0.3709819784057798 0.4667318562758334
0.02148936170212766 0.3689361001158593 0.46098514450976685
0.02170212765957447 0.3599792318958014 0.46130652914750836
0.021914893617021276 0.35066640174434155 0.4589587076807037
0.022127659574468085 0.342089136364086 0.4566125473696527
0.022340425531914895 0.336799255443575 0.4585109546199326
0.0225531914893617 0.33214770503606794 0.4600436564626854
0.02276595744680851 0.3242798376359209 0.46129930090068777
0.02297872340425532 0.31930588695726236 0.463454042354295
0.023191489361702126 0.3148725333224661 0.46600481122512155
0.023404255319148935 0.3139438715114051 0.4677749597089547
0.023617021276595745 0.3124159319614674 0.47006686903386136
0.023829787234042554 0.31421574949911213 0.4704445530043966
0.02404255319148936 0.3179572161722336 0.47473748522561954
0.02425531914893617 0.3215093734855415 0.4800657211955814
0.02446808510638298 0.3239264755904962 0.48216902784562765
0.024680851063829785 0.32989065845713644 0.48228553080188824
0.024893617021276595 0.3346226238402204 0.4862288352877916
0.025106382978723404 0.3380437224448454 0.48705422569614076
0.025319148936170214 0.34490752680694536 0.48705422569614076
0.02553191489361702 0.35605084938042975 0.48571946904932156
0.02574468085106383 0.3684079909021819 0.4822869297377236
0.02595744680851064 0.3911679490942403 0.4724903062474054
0.026170212765957445 0.4145762018228937 0.46125122493124976
0.026382978723404255 0.44383746888689496 0.45328757355197363
0.026595744680851064 0.4724787307065384 0.4454460978566132
0.026808510638297874 0.4964970125471953 0.43736739464351304
0.02702127659574468 0.5147932907599374 0.4332693047028828
0.02723404255319149 0.5304183534492204 0.4318849707020964
0.0274468085106383 0.5438852389660197 0.431770057848727
0.027659574468085105 0.5527661377859957 0.43114699241916227
0.027872340425531914 0.5621884335688296 0.4337610354467266
0.028085106382978724 0.5695701297563692 0.4368099205249243
0.028297872340425533 0.566435076202348 0.435222999415124
0.02851063829787234 0.5609603328902406 0.43834156885298714
0.02872340425531915 0.5601566831879013 0.44228591573735504
0.02893617021276596 0.5579386108605028 0.4441892007262581
0.029148936170212764 0.5514423130177001 0.4490462067673512
0.029361702127659574 0.5566093816027922 0.4437864649675752
0.029574468085106383 0.5582299619888711 0.4413555943884569
0.029787234042553193 0.556709071051918 0.4398815834550352
0.03 0.5548720924962243 0.43850384953826493
0.03021276595744681 0.5564945004652964 0.4355028546149086
0.030425531914893618 0.5568250022126433 0.43602230650325224
0.030638297872340424 0.5559460767186278 0.4377031660757053
0.030851063829787233 0.5540606962918889 0.436261428155005
0.031063829787234043 0.5508246642029082 0.43173098323043196
0.03127659574468085 0.5517815816754692 0.43197286216162323
0.03148936170212766 0.5541533636282401 0.4307025230351697
0.03170212765957447 0.5574010747435272 0.4272744503197309
0.031914893617021274 0.5574010747435272 0.4256869865679787
0.03212765957446809 0.5562368537219862 0.4214259592042841
0.03234042553191489 0.554091703761623 0.41933910170980887
0.0325531914893617 0.5508217478178967 0.422228986315448
0.03276595744680851 0.5478872989490768 0.42883149627029266
0.03297872340425532 0.5444698974262636 0.42387752323167216
0.033191489361702124 0.5400349310550991 0.42011122093137526
0.03340425531914894 0.5353842209023975 0.41824877871577976
0.03361702127659574 0.5305274746059183 0.4176844162188569
0.033829787234042556 0.5249760120852043 0.4176844162188569
0.03404255319148936 0.5205937520165373 0.41589042754710603
0.03425531914893617 0.5164067078845795 0.4137969054811271
0.03446808510638298 0.5122196637526216 0.41170338341514806
0.03468085106382979 0.5092740538954192 0.41268882145291413
0.03489361702127659 0.5071909655550371 0.41581345396348757
0.035106382978723406 0.5008155244297222 0.41092788398028396
0.03531914893617021 0.49603531449802335 0.4096803669870767
0.03553191489361702 0.4912959152144819 0.41144091040188524
0.03574468085106383 0.4800100534087154 0.4156785722672258
0.03595744680851064 0.46428987379240594 0.42389434706651524
0.036170212765957444 0.44663761425232246 0.43155646814792575
0.036382978723404256 0.43208258478320505 0.4411960513098114
0.03659574468085106 0.4172787640279706 0.44840179640241024
0.03680851063829787 0.40506878713625455 0.45300425327212085
0.03702127659574468 0.39755594081097934 0.4551750289036168
0.03723404255319149 0.3921186851853789 0.4559314271754721
0.0374468085106383 0.38519880035895016 0.4570093090694818
0.03765957446808511 0.382661709600621 0.4595463998278109
0.03787234042553191 0.3861122374022464 0.4560958720261855
0.038085106382978726 0.3836801776466167 0.4548759686765387
0.03829787234042553 0.3869472715239507 0.4565415400120975
0.03851063829787234 0.39321617763927874 0.457412664366694
0.03872340425531915 0.40087147219038893 0.4587834667072384
0.03893617021276596 0.40397159976431785 0.4637423259060897
0.03914893617021276 0.4040284847715122 0.4700125895545744
0.039361702127659576 0.40298310538820503 0.4758982758784088
0.03957446808510638 0.3995923671686717 0.48319091275782994
0.03978723404255319 0.39553919058586035 0.4866821636631486
0.04 0.39054807024566635 0.4868334637064586
0.04021276595744681 0.3884031219635872 0.4903209885457519
0.04042553191489362 0.391904947677935 0.4914882637838679
0.040638297872340426 0.3843325972632181 0.4892732519806471
0.04085106382978723 0.3833985092138392 0.49078333987369716
0.041063829787234045 0.3826366142361584 0.48925954991833537
0.04127659574468085 0.37687027881543145 0.49223156933904993
0.04148936170212766 0.3685100634604697 0.49609941922518985
0.04170212765957447 0.36125639159833556 0.4974492843944095
0.041914893617021276 0.3534156634164357 0.49832047641462063
0.04212765957446808 0.34432443217745135 0.49778525771052695
0.042340425531914895 0.33710536593554913 0.49537509059210616
0.0425531914893617 0.3297064142144546 0.4968512858142681
0.04276595744680851 0.3233373385280342 0.4977179820660389
0.04297872340425532 0.32061683137929886 0.4967260531400668
0.043191489361702126 0.3187057288721921 0.4966108979020561
0.04340425531914894 0.31840357484511517 0.49332771052177504
0.043617021276595745 0.3190099769237272 0.4907682875195769
0.04382978723404255 0.3152618914602213 0.48931882399790344
0.044042553191489364 0.31700045248209147 0.486077186126038
0.04425531914893617 0.32177939033963715 0.48499115006187676
0.044468085106382976 0.32193978568848725 0.47907419465035556
0.04468085106382979 0.32735140317573186 0.4779064249142735
0.044893617021276595 0.3304853102442465 0.4748378797557667
0.0451063829787234 0.3353167659497229 0.4683246985882226
0.045319148936170214 0.3434859569780644 0.4674992972723379
0.04553191489361702 0.35276282778191187 0.46518007957137597
0.045744680851063826 0.36373892478393416 0.45599727453213806
0.04595744680851064 0.38506540122500604 0.4457775625987831
0.046170212765957445 0.4128484009458079 0.43673499465627497
0.04638297872340425 0.4376205849357593 0.4283828366012371
0.046595744680851064 0.4650176772534273 0.427193256134744
0.04680851063829787 0.49079211064804973 0.42256961406936977
0.047021276595744683 0.5107064266525188 0.42251829707615157
0.04723404255319149 0.5322101015048554 0.42152188930460205
0.047446808510638296 0.5405198474471925 0.41875197399048963
0.04765957446808511 0.5493416497575943 0.41417246059666724
0.047872340425531915 0.558484565430847 0.4084581383008841
0.04808510638297872 0.563888326125685 0.4048919056898625
0.048297872340425534 0.5674973789224503 0.4027029141894206
0.04851063829787234 0.5631479800868794 0.40705231302499173
0.048723404255319146 0.559453305430886 0.40981902388445934
0.04893617021276596 0.5576713717418653 0.4124669212181679
0.049148936170212765 0.5582915722727334 0.41662083460785804
0.04936170212765957 0.5566965506774276 0.4150258130125522
0.049574468085106384 0.5538765679681409 0.4173007647138326
0.04978723404255319 0.5541425811865074 0.41974592531795496
0.05 0.558223850862107 0.42450313229146375
0.05021276595744681 0.5591501262893503 0.42745481191988266
0.050425531914893615 0.5596630400412583 0.43130958910276873
0.05063829787234043 0.562380544938644 0.4360481846535772
0.050851063829787234 0.5619364788233349 0.43722520762090866
0.05106382978723404 0.5593528848969972 0.43722520762090866
0.05127659574468085 0.5590464177997557 0.4358886006486564
0.05148936170212766 0.5621205598860268 0.438036534482998
0.051702127659574465 0.5626107145638728 0.43917928676111373
0.05191489361702128 0.5604653626357533 0.4379653467889226
0.052127659574468084 0.560424003139108 0.4382940568762843
0.05234042553191489 0.5594220711726321 0.4395567191313749
0.0525531914893617 0.555644063394133 0.44049059995091283
0.05276595744680851 0.5519263873677939 0.44208388967648665
0.05297872340425532 0.5485422136840217 0.4410023560441545
0.05319148936170213 0.5457255634269517 0.4353690555300144
0.053404255319148934 0.539263035316752 0.43669636505526876
0.05361702127659575 0.5326153067230884 0.43580256193814726
0.05382978723404255 0.5258983169089227 0.4335635653334253
0.05404255319148936 0.5227223842830147 0.4345352416640617
0.05425531914893617 0.5201175889665323 0.4341381067975044
0.05446808510638298 0.5167465322224194 0.4318905927083945
0.054680851063829784 0.5113847087267063 0.4303859306301905
0.0548936170212766 0.5105084509775898 0.4303859306301905
0.0551063829787234 0.504496762245011 0.4372504027828668
0.05531914893617021 0.4988595884324022 0.4360669983219078
0.05553191489361702 0.4915557416920115 0.43526903025323316
0.05574468085106383 0.47988938454966323 0.43870031176568847
0.055957446808510634 0.46142440307083793 0.4452404146990904
0.05617021276595745 0.44618455187999967 0.4497727201703085
0.05638297872340425 0.4322428707574666 0.45245568619515236
0.056595744680851066 0.4146444422653591 0.45448627409808773
0.05680851063829787 0.40325577716190436 0.45542380571392216
0.05702127659574468 0.3957312058856622 0.45682285328049055
0.05723404255319149 0.3906268791688201 0.45851162626862185
0.0574468085106383 0.38260362130912157 0.45604293154256076
0.057659574468085104 0.37974254340384456 0.45448628845730055
0.05787234042553192 0.38201582007379303 0.4538367808373153
0.05808510638297872 0.3842890967437414 0.4531872732173301
0.05829787234042553 0.3887024356776087 0.4516038694840358
0.05851063829787234 0.39531840114573646 0.44905926738090973
0.05872340425531915 0.40026610226335235 0.4476694318282447
0.058936170212765954 0.4039704530856983 0.44714023885362375
0.05914893617021277 0.4037833705995383 0.44699560332193444
0.05936170212765957 0.4021326848573381 0.44699560332193444
0.059574468085106386 0.3979217879040838 0.45020782180548136
0.05978723404255319 0.3935789456668767 0.45358558798997584
0.06 0.3923130498058649 0.4528895031522254
0.06021276595744681 0.39124145366712193 0.45190595883603357
0.06042553191489362 0.38589508383371035 0.4540445067693982
0.06063829787234042 0.38162353359511314 0.45552021504270185
0.060851063829787236 0.3821096451828416 0.45406188027951655
0.06106382978723404 0.3811470857729528 0.452721450150329
0.06127659574468085 0.3733253446822922 0.451939276041263
0.06148936170212766 0.37008306462290874 0.45542417633408633
0.06170212765957447 0.3598987527126952 0.45314609956722196
0.06191489361702127 0.35130770156866864 0.4529797103620539
0.062127659574468086 0.34439446255220013 0.4555149421080982
0.06234042553191489 0.33567542815769136 0.4596659498195422
0.0625531914893617 0.3274907312902843 0.46165119687347334
0.0627659574468085 0.3236554086620522 0.46709731466023735
0.06297872340425532 0.3205378606220506 0.4704445530043966
0.06319148936170213 0.3159841718615221 0.4734638007813699
0.06340425531914894 0.31532699677391585 0.47956046330567664
0.06361702127659574 0.3166701490452236 0.4851582684308079
0.06382978723404255 0.3158853613512331 0.4888001944167264
0.06404255319148935 0.3178582332088115 0.49606388247804656
0.06425531914893617 0.3209122154288214 0.4979375110169065
0.06446808510638298 0.32416369138179446 0.4963566442789557
0.06468085106382979 0.32887685833004077 0.4984186730171644
0.06489361702127659 0.3338404493318945 0.4993579383933531
0.0651063829787234 0.3397454201062028 0.5029110283133351
0.06531914893617022 0.34434833922079056 0.5050000641417292
0.06553191489361702 0.35331646616329804 0.5045202993867383
0.06574468085106383 0.3672222524369705 0.5007278122211913
0.06595744680851064 0.38438422306334113 0.4954044741204636
0.06617021276595744 0.4075901010913515 0.48643827022005176
0.06638297872340425 0.4372214691330678 0.47444255265150026
0.06659574468085107 0.46422010744257997 0.4667449448462939
0.06680851063829787 0.4855772405109408 0.45643460474432657
0.06702127659574468 0.5066228834107908 0.4496185920034342
0.06723404255319149 0.5245739482602925 0.4456995187754491
0.06744680851063829 0.5390988418506825 0.44227748008897755
0.06765957446808511 0.5519129453018704 0.43678572146703976
0.06787234042553192 0.5601081093050552 0.4360479807643256
0.06808510638297872 0.5665442786036606 0.43712067564742657
0.06829787234042553 0.5623503589784161 0.43776088667270163
0.06851063829787234 0.5577728191044019 0.4391101900048529
0.06872340425531914 0.5554117317040366 0.442651821105401
0.06893617021276596 0.5538426054418687 0.4415550822462244
0.06914893617021277 0.5527989801789949 0.4373805811947295
0.06936170212765957 0.5510769876924261 0.4343296491166887
0.06957446808510638 0.5506778197477353 0.43206674437913856
0.06978723404255319 0.5551529089629126 0.4309479720753442
0.06999999999999999 0.5571161493831448 0.42981607990942594
0.07021276595744681 0.556543580794756 0.4286709427326485
0.07042553191489362 0.5532995183648899 0.4305148626956752
0.07063829787234042 0.551895069933109 0.43184003270278326
0.07085106382978723 0.5562417209773024 0.4302100385612107
0.07106382978723404 0.558635405214048 0.4286370183588331
0.07127659574468086 0.5591413886371503 0.42711906808952577
0.07148936170212766 0.5580550756250663 0.42582773322044715
0.07170212765957447 0.5558039560833133 0.4247021734495707
0.07191489361702127 0.5535528365415604 0.4235766136786942
0.07212765957446808 0.5513017169998073 0.4224510539078177
0.07234042553191489 0.5490505974580544 0.4213254941369412
0.0725531914893617 0.5467994779163012 0.4201999343660646
0.07276595744680851 0.5445483583745483 0.41907437459518815
0.07297872340425532 0.5415308708966503 0.4189192969495995
0.07319148936170213 0.5380693341021636 0.4193265365724803
0.07340425531914893 0.5346077973076768 0.4197337761953611
0.07361702127659574 0.5311462605131901 0.4201410158182419
0.07382978723404256 0.5276847237187032 0.4205482554411228
0.07404255319148936 0.5244475492942525 0.4216816544396024
0.07425531914893617 0.521317004942303 0.42188663011122157
0.07446808510638298 0.5183284519185827 0.41964521534343124
0.07468085106382978 0.51288377926489 0.41963849535906195
0.0748936170212766 0.5103323446016744 0.4202124305325775
0.07510638297872341 0.5071058265868954 0.4206155349291647
0.07531914893617021 0.5021776574928177 0.42135865537669814
0.07553191489361702 0.49691188610038955 0.42389267719881435
0.07574468085106383 0.4818426030399017 0.4297529539445597
0.07595744680851063 0.4647737537666696 0.43911356255209427
0.07617021276595745 0.4467615810618328 0.4461168126363462
0.07638297872340426 0.4286453652173264 0.4512252461677181
0.07659574468085106 0.41624984160954037 0.45644441400257535
0.07680851063829787 0.40608816093805244 0.4604498884504696
0.07702127659574468 0.3971113884419038 0.4633173861778312
0.0772340425531915 0.3870160119726525 0.46534814539109254
0.0774468085106383 0.38037791813138355 0.4616603154792765
0.07765957446808511 0.3771739553074171 0.461745815883873
0.07787234042553191 0.3752235113084173 0.46320864888312285
0.07808510638297872 0.3786181061259457 0.4613633154470485
0.07829787234042553 0.3834409087996283 0.45817155239361457
0.07851063829787235 0.388607853901652 0.4544757370972111
0.07872340425531915 0.39624057312184313 0.44991396517093146
0.07893617021276596 0.3995342815405032 0.4490905380662665
0.07914893617021276 0.40213168978277347 0.4503056730126485
0.07936170212765957 0.401191521273155 0.45457836439067084
0.07957446808510638 0.39820484898382646 0.4585369150825493
0.0797872340425532 0.3949912383456645 0.4578941929549169
0.08 0.39079407544329603 0.45889016895742923
0.08021276595744681 0.3873495110528753 0.4600383570875695
0.08042553191489361 0.38507385334561134 0.46085828583330085
0.08063829787234042 0.38242876550802657 0.4621808297520932
0.08085106382978724 0.38097715916586294 0.4604010646067835
0.08106382978723405 0.3784385112510964 0.459143758423938
0.08127659574468085 0.3727255116330442 0.45956319941184093
0.08148936170212766 0.36421587471633193 0.4591763977338085
0.08170212765957446 0.35570623779961974 0.458789596055776
0.08191489361702127 0.3493868788824445 0.46063606427506315
0.08212765957446809 0.34320604325503334 0.4631083985260276
0.0823404255319149 0.335046016586315 0.46637240919351497
0.0825531914893617 0.3298646102014614 0.4665363947239862
0.08276595744680851 0.3241841716529384 0.4665363947239862
0.08297872340425531 0.3205237076353702 0.4697202217687003
0.08319148936170212 0.3158083394908034 0.4712789769479557
0.08340425531914894 0.3177334906371566 0.47142159257449934
0.08361702127659575 0.3180263800683927 0.4763960665712361
0.08382978723404255 0.31722773949333405 0.47648518942005613
0.08404255319148936 0.3197784348320165 0.47669666104411595
0.08425531914893616 0.3231365654751363 0.47717639399313305
0.08446808510638298 0.32457626085140895 0.4800344034447175
0.08468085106382979 0.326441956039333 0.4827682872557473
0.0848936170212766 0.33137922838757594 0.4837974294750914
0.0851063829787234 0.33925944647365797 0.4830268615102119
0.08531914893617021 0.3437990875950284 0.48227025465665
0.08553191489361701 0.3587759877174259 0.4836059817712541
0.08574468085106383 0.3743365651009913 0.48330289709864
0.08595744680851064 0.38943136080299057 0.48211120270111374
0.08617021276595745 0.407355559981738 0.48022570882096743
0.08638297872340425 0.4348247854357842 0.47599967413572963
0.08659574468085106 0.4589238432634933 0.46925450270033137
0.08680851063829788 0.47938829094887686 0.46825373306234375
0.08702127659574468 0.5005874088266594 0.4654969644385867
0.08723404255319149 0.5232414981472416 0.46237937550638714
0.0874468085106383 0.5363157635964826 0.4590152563694986
0.0876595744680851 0.5462777095649061 0.4562514969584724
0.08787234042553191 0.555735987564 0.45305549588039923
0.08808510638297873 0.5632633121641426 0.44918870762655044
0.08829787234042553 0.5632633121641426 0.45143746101689197
0.08851063829787234 0.5612708426849918 0.4532091141585479
0.08872340425531915 0.557601603647798 0.4505581725454084
0.08893617021276595 0.5540967794434116 0.4475225708387337
0.08914893617021276 0.5518491132879028 0.4479957487296014
0.08936170212765958 0.5507528892984803 0.4485890812125432
0.08957446808510638 0.5516392520267526 0.4431376523934446
0.08978723404255319 0.5527315188075186 0.44368378578382767
0.09 0.5551545347049109 0.44406448461162684
0.0902127659574468 0.5606398770042466 0.44406448461162684
0.09042553191489362 0.5600926768511921 0.4446727626979995
0.09063829787234043 0.5580003885857313 0.44233199358572745
0.09085106382978723 0.5558288052454982 0.4365570407471003
0.09106382978723404 0.5590527374364662 0.43091515941290603
0.09127659574468085 0.5580590107420685 0.4290897874885268
0.09148936170212765 0.5560671155182368 0.4270978922646951
0.09170212765957447 0.5553560047272126 0.4255007327796776
0.09191489361702128 0.5574010747435272 0.42597854044241673
0.09212765957446808 0.5575378317314417 0.4281127518515182
0.09234042553191489 0.5600635070606631 0.42221950941666797
0.0925531914893617 0.5553021787327734 0.41991590292558
0.0927659574468085 0.552570672661228 0.4133075507857574
0.09297872340425532 0.5491984769375942 0.4094780395938166
0.09319148936170213 0.5449657280307068 0.40800247024844694
0.09340425531914893 0.5406282683229113 0.40425923408163705
0.09361702127659574 0.5324858586857234 0.40589878802697094
0.09382978723404255 0.526289341474822 0.4051242233756083
0.09404255319148937 0.5196153049130485 0.4073586721005631
0.09425531914893617 0.5198581618452316 0.4109913603294471
0.09446808510638298 0.5158395223079476 0.415517219441309
0.09468085106382979 0.5129788084222955 0.4202886897405486
0.09489361702127659 0.5070904373280853 0.4236051309457883
0.0951063829787234 0.5023523595877725 0.42509583780212873
0.09531914893617022 0.49908901147856893 0.42632261687918155
0.09553191489361702 0.4940813277974209 0.42823861009123854
0.09574468085106383 0.4840538306731915 0.43110360926958985
0.09595744680851064 0.46752857815662296 0.43917171482984685
0.09617021276595744 0.44724464413218995 0.44656647518880915
0.09638297872340426 0.43408902190939413 0.45341920277555486
0.09659574468085107 0.41977507954851506 0.45867129809550367
0.09680851063829787 0.40763236807292563 0.45886090438561816
0.09702127659574468 0.3993094118136839 0.4629238459973232
0.09723404255319149 0.3909924770889735 0.4658815827306877
0.09744680851063829 0.3837813928604034 0.4666018636608018
0.09765957446808511 0.3804060914138253 0.46270298744468996
0.09787234042553192 0.37673360623196095 0.45969711773326827
0.09808510638297872 0.3780692670122525 0.45836669823046305
0.09829787234042553 0.38216069061963115 0.45070328934426074
0.09851063829787234 0.38941409395241083 0.4481052085681367
0.09872340425531914 0.39454555110672856 0.4417936372069303
0.09893617021276596 0.39912066438690763 0.4399619452120985
0.09914893617021277 0.39912066438690763 0.4406784197794351
0.09936170212765957 0.40068569697834194 0.4391129712702602
0.09957446808510638 0.40029127346160426 0.4399627568266224
0.09978723404255319 0.3978111140601131 0.44178814106471626
0.1 0.3936164077436945 0.44353047647262483
0.10021276595744681 0.3884150469175987 0.4456110208030631
0.10042553191489362 0.38907566282189704 0.44517882711372175
0.10063829787234042 0.38572412694151814 0.44594805961782025
0.10085106382978723 0.38251491883487587 0.4460185637518319
0.10106382978723404 0.37908748975533524 0.4450415241817294
0.10127659574468086 0.371407506999074 0.4456349398899979
0.10148936170212766 0.36713765140889565 0.4509435938151413
0.10170212765957447 0.3574825834823838 0.45684193180640303
0.10191489361702127 0.3487185077969935 0.4625370129219218
0.10212765957446808 0.34168934737542755 0.46671939616430536
0.10234042553191489 0.33432425162437995 0.4716294599983371
0.1025531914893617 0.3266372349420104 0.47703901517291836
0.10276595744680851 0.32290093729881186 0.48121326951571286
0.10297872340425532 0.31858628475498135 0.4831460674157304
0.10319148936170212 0.3154461881866901 0.4843982928987254
0.10340425531914893 0.3164824570839119 0.4899553315963296
0.10361702127659575 0.3147712860002432 0.49573618104339845
0.10382978723404256 0.3141182217879823 0.49765416548240465
0.10404255319148936 0.31592825030692934 0.4978016609672691
0.10425531914893617 0.3190073606926717 0.5036638983878847
0.10446808510638297 0.3229115779189058 0.5036638983878847
0.10468085106382978 0.3234840978642132 0.5039501583605385
0.1048936170212766 0.32852021130101955 0.5054054181403769
0.1051063829787234 0.3361872476896624 0.5041977394066942
0.10531914893617021 0.3420566836114353 0.5021055049572016
0.10553191489361702 0.3493318393328665 0.4960898895482312
0.10574468085106382 0.3660244573132 0.4898827291482981
0.10595744680851064 0.37366830461059036 0.48467686918114544
0.10617021276595745 0.401763965208372 0.4778970423236286
0.10638297872340426 0.4299220716292537 0.46811791882937437
0.10659574468085106 0.4584954264568125 0.46135619311965953
0.10680851063829787 0.4836695004297183 0.45582733746268195
0.10702127659574467 0.502986959672847 0.4507253627457575
0.1072340425531915 0.5197138844156471 0.4484961430935873
0.1074468085106383 0.5336721598612661 0.44622818282303195
0.1076595744680851 0.5448902166944312 0.4427225400626678
0.10787234042553191 0.5561082735275962 0.43921689730230373
0.10808510638297872 0.5628193148832443 0.4351711063164381
0.10829787234042552 0.5666413679460015 0.4316810316994239
0.10851063829787234 0.5624058240715599 0.4339354344780412
0.10872340425531915 0.5621727236943307 0.43105137349463246
0.10893617021276596 0.5566429239006375 0.42940889106008795
0.10914893617021276 0.5568405047552913 0.4308103160306774
0.10936170212765957 0.5557967011551093 0.4349935000141756
0.10957446808510639 0.5572285738632862 0.4358458987058752
0.1097872340425532 0.5583781143136297 0.4352711284807034
0.11 0.5598860569532594 0.43577377602724665
0.1102127659574468 0.5613092330239375 0.43681424782144057
0.11042553191489361 0.5613092330239375 0.4365929843154954
0.11063829787234042 0.5599087896019931 0.43904905489469487
0.11085106382978724 0.5562826165600262 0.43708378900751044
0.11106382978723404 0.5554469956033219 0.43458176768760454
0.11127659574468085 0.5545450339696362 0.43429408891060084
0.11148936170212766 0.5573674596144947 0.4304307508022337
0.11170212765957446 0.5574010747435272 0.4293442736297492
0.11191489361702127 0.5574010747435272 0.42660332404567036
0.11212765957446809 0.5573591442870299 0.4340844366281144
0.1123404255319149 0.5554624220294466 0.42460082534019855
0.1125531914893617 0.5554469956033219 0.4284063423379639
0.1127659574468085 0.5515388373229115 0.42745481191988266
0.11297872340425531 0.5515388373229115 0.42745481191988266
0.11319148936170213 0.5436711907029611 0.42824157658187784
0.11340425531914894 0.539670595446981 0.43052969766489
0.11361702127659574 0.5343794676606429 0.4319998066647124
0.11382978723404255 0.5291899028124115 0.43402489563546465
0.11404255319148936 0.5242713431997581 0.4347975443356053
0.11425531914893616 0.5192543665709726 0.43389484009484913
0.11446808510638298 0.5156246718865624 0.4336874197968263
0.11468085106382979 0.513303079022374 0.4346635071228139
0.1148936170212766 0.508957992788817 0.43382985867505286
0.1151063829787234 0.5018741814876051 0.4316703875858911
0.11531914893617021 0.4949796266242097 0.43181923664868316
0.11553191489361703 0.49084368272910067 0.4294717328969735
0.11574468085106383 0.478462848618343 0.4360262921320804
0.11595744680851064 0.46244513708208257 0.4414497674281179
0.11617021276595745 0.4469644189583389 0.4457978439599242
0.11638297872340425 0.4340563071244892 0.44894968246213973
0.11659574468085106 0.42032821012473465 0.44894968246213973
0.11680851063829788 0.4085904956586924 0.44894968246213973
0.11702127659574468 0.3973847470313493 0.4483979228616338
0.11723404255319149 0.3880754441629819 0.4479726428920372
0.1174468085106383 0.3829530066982895 0.4459565573759315
0.1176595744680851 0.379613169205267 0.44483279777954443
0.11787234042553191 0.37644003645146284 0.4456011281056616
0.11808510638297873 0.3765178351451886 0.4434601128682389
0.11829787234042553 0.3831004600507179 0.4387582379357179
0.11851063829787234 0.38958697150992305 0.4342151879692538
0.11872340425531915 0.3954448910351217 0.4319527015560217
0.11893617021276595 0.3987913282774034 0.4271309601895835
0.11914893617021277 0.4040058622374205 0.42435981536253414
0.11936170212765958 0.40377719412436464 0.42377532175252824
0.11957446808510638 0.40274498928588026 0.42594286011676386
0.11978723404255319 0.4003311586199879 0.4304412657464245
0.12 0.3963428059157957 0.4327518994358492
0.1202127659574468 0.39472797478051724 0.4352551746444186
0.12042553191489362 0.39368214867933743 0.4394384790491381
0.12063829787234043 0.39016815300355 0.44236947548641575
0.12085106382978723 0.3883732291157791 0.4430874450415241
0.12106382978723404 0.38686014594572393 0.4461136113816345
0.12127659574468085 0.3822803973181321 0.45113435597937657
0.12148936170212765 0.3761502915619766 0.4581617384960459
0.12170212765957447 0.36318565014423504 0.46204969537922164
0.12191489361702128 0.35165773151350155 0.46432976183255875
0.12212765957446808 0.34295011521609137 0.4719008862494681
0.12234042553191489 0.33851054600307723 0.47730972617778394
0.1225531914893617 0.3257037370298405 0.4869847458964543
0.12276595744680852 0.32336585073674834 0.48722727298101004
0.12297872340425532 0.319167409903458 0.4964638428142489
0.12319148936170213 0.3146954036469065 0.5037174469837086
0.12340425531914893 0.3118634372896562 0.5053925327907627
0.12361702127659574 0.3111871030776747 0.5074014747830025
0.12382978723404255 0.311618643481996 0.5094121770470403
0.12404255319148937 0.31349436816235615 0.5099710851727713
0.12425531914893617 0.31742901822465136 0.5083212896025808
0.12446808510638298 0.3212235567960811 0.506044566459723
0.12468085106382978 0.3250862800587626 0.49931449410817097
0.12489361702127659 0.32913632561610484 0.49623368006319546
0.1251063829787234 0.333751327214581 0.49682462139716654
0.12531914893617022 0.3407166475420178 0.49682462139716654
0.125531914893617 0.3536774584981458 0.494790933272618
0.12574468085106383 0.36790114657768364 0.4905407388863483
0.12595744680851065 0.3824682962018227 0.4850152683392612
0.12617021276595744 0.4064185317185331 0.47901077563902245
0.12638297872340426 0.43471316394951814 0.4724433611443349
0.12659574468085105 0.4588564695213595 0.4629584910982543
0.12680851063829787 0.48607181593798565 0.45156787913192015
0.1270212765957447 0.5059715071895405 0.4451308731973147
0.12723404255319148 0.5240382711573237 0.43901678535986216
0.1274468085106383 0.5385690904396114 0.4353094474052701
0.1276595744680851 0.5492984588601757 0.43429408891060084
0.12787234042553192 0.5587003867710011 0.4347079710192512
0.1280851063829787 0.5669683450239479 0.43645129347141115
0.12829787234042553 0.5656750228355892 0.4390431357569227
0.12851063829787235 0.5626713945536614 0.4446920674838603
0.12872340425531914 0.5583302217254662 0.4473851399628533
0.12893617021276596 0.5564240351734244 0.4503037759875922
0.12914893617021275 0.555977830859257 0.45001135297401007
0.12936170212765957 0.5554469956033219 0.44894968246213973
0.1295744680851064 0.5573649497145237 0.4484701939343393
0.12978723404255318 0.5625255782699656 0.44678373374719965
0.13 0.5646016203666564 0.4457757670611283
0.1302127659574468 0.5596826292014302 0.44667082119573215
0.13042553191489362 0.5586320260164686 0.44627247545467075
0.13063829787234044 0.5586585451431185 0.44699560332193444
0.13085106382978723 0.5570244256277292 0.44599495256475985
0.13106382978723405 0.5591715328152087 0.44339575295108674
0.13127659574468084 0.5585550738681158 0.44771096558073714
0.13148936170212766 0.5596908439097373 0.44211040547142155
0.13170212765957448 0.5607696479839603 0.44197550921142725
0.13191489361702127 0.5576294463046463 0.44128561360873175
0.1321276595744681 0.5603479479729727 0.44304018148411034
0.13234042553191488 0.5612187001361681 0.44042792499452466
0.1325531914893617 0.5596828073793645 0.43852990068664344
0.1327659574468085 0.5546330749984109 0.4389892603385647
0.13297872340425532 0.5527268972430023 0.44147734442145714
0.13319148936170214 0.5489801775064581 0.44140326559411036
0.13340425531914893 0.5416720291462269 0.4417954381120161
0.13361702127659575 0.540738264554741 0.44211040547142155
0.13382978723404254 0.5339799620485015 0.4382161656847295
0.13404255319148936 0.5265522216865868 0.43205807393792467
0.13425531914893618 0.5205867563938911 0.4303859306301905
0.13446808510638297 0.5176352318119265 0.42623268138619164
0.1346808510638298 0.5137529486714902 0.42191122908184703
0.13489361702127659 0.5095854964994112 0.4187059763071427
0.1351063829787234 0.5044894322702298 0.41845944820528286
0.13531914893617022 0.501097768836349 0.41499811767308126
0.13553191489361702 0.4956888073969199 0.41765388831562655
0.13574468085106384 0.48714940196512946 0.4231177673038359
0.13595744680851063 0.47181438404495313 0.4290592427699038
0.13617021276595745 0.45648779507447906 0.4342588976982385
0.13638297872340424 0.44176818152084996 0.4385320630711798
0.13659574468085106 0.4274687566170334 0.4401563263312165
0.13680851063829788 0.4124465146952989 0.44126278489487225
0.13702127659574467 0.40263921279326104 0.44333833922984084
0.1372340425531915 0.3940116985682544 0.44406448461162684
0.13744680851063829 0.38831334040965504 0.44481223646573476
0.1376595744680851 0.38341157811975657 0.4442446018965454
0.13787234042553193 0.37746341151744356 0.4415406945227668
0.13808510638297872 0.3757566116330583 0.441133365901319
0.13829787234042554 0.38418049961984213 0.43735168371669825
0.13851063829787233 0.39236483241558534 0.43911253074559703
0.13872340425531915 0.39734480453518123 0.43524566858234925
0.13893617021276597 0.40015898585082854 0.43484364268011394
0.13914893617021276 0.40297316716647547 0.4344416167778787
0.13936170212765958 0.4040058622374205 0.4360939590766437
0.13957446808510637 0.4032205558461283 0.4384640159881086
0.1397872340425532 0.3998651673066362 0.4397840748713521
0.13999999999999999 0.3953841055048605 0.4414898618496874
0.1402127659574468 0.39103035312254114 0.4446124740187184
0.14042553191489363 0.38935026868588185 0.44941761241965394
0.14063829787234042 0.38715745689797915 0.45200016749629623
0.14085106382978724 0.38667466979932236 0.4522415610456247
0.14106382978723403 0.3846696832075628 0.4539256809260328
0.14127659574468085 0.37755389193298616 0.4555536872992903
0.14148936170212767 0.37085305588369194 0.46462316729090614
0.14170212765957446 0.3621240761833842 0.47499033593447665
0.14191489361702128 0.3543941344066456 0.4797030930706113
0.14212765957446807 0.344805660655077 0.48693026385502974
0.1423404255319149 0.33523423338283 0.49540692322365026
0.1425531914893617 0.32767570341750957 0.49981627628342884
0.1427659574468085 0.3213640793836097 0.5029720883003788
0.14297872340425533 0.320784619753547 0.506076380022732
0.14319148936170212 0.31657154535335447 0.5092265891534
0.14340425531914894 0.32366957687658354 0.5199723902375446
0.14361702127659573 0.3150952613580851 0.5232426169735503
0.14382978723404255 0.3155219264857439 0.5242883956419537
0.14404255319148937 0.3195316986498568 0.5239261179036316
0.14425531914893616 0.3216966542295448 0.517605839581649
0.14446808510638298 0.32216944402197323 0.5138734416750249
0.14468085106382977 0.3263593762733414 0.5071423071465841
0.1448936170212766 0.33319795796349 0.5025946477724732
0.1451063829787234 0.34003462439323906 0.5031670939369874
0.1453191489361702 0.3436620405296323 0.4999534703443103
0.14553191489361703 0.3508630068432005 0.4984104963908175
0.14574468085106382 0.3627490621917933 0.4992829486567603
0.14595744680851064 0.37821347027882884 0.4946741403957033
0.14617021276595746 0.401229618949136 0.48111455056451363
0.14638297872340425 0.42940943052559083 0.4645819421076638
0.14659574468085107 0.45764103572403353 0.44913297505888133
0.14680851063829786 0.4823135184270042 0.4336653377127661
0.14702127659574468 0.502152479624835 0.4206952923541124
0.14723404255319147 0.5217680067960231 0.4124543293296939
0.1474468085106383 0.5357088960443108 0.4052608381607666
0.14765957446808511 0.5498935771558187 0.397989215330249
0.1478723404255319 0.5577170703438254 0.39275356166033537
0.14808510638297873 0.5669287779791944 0.3894311661743347
0.14829787234042552 0.5633046252719077 0.39219876118065927
0.14851063829787234 0.5641310336368449 0.3909832168403858
0.14872340425531916 0.5618197618106671 0.39745265223589094
0.14893617021276595 0.5542075884750645 0.40476399264687846
0.14914893617021277 0.5514904834614148 0.41017766156090474
0.14936170212765956 0.5516168701078066 0.413096394854511
0.14957446808510638 0.5494785590487264 0.4175782170848769
0.1497872340425532 0.5515357849948604 0.41768746854690797
0.15 0.5541530222800933 0.41616166151972783
0.15021276595744681 0.5560583083123669 0.4138963989515165
0.1504255319148936 0.5543830794426036 0.412799218368344
0.15063829787234043 0.5534929164631168 0.41054140844303205
0.15085106382978725 0.5518413667336148 0.411519649387538
0.15106382978723404 0.5524334505350463 0.42076831091959005
0.15127659574468086 0.5525158768930141 0.4187017714947657
0.15148936170212765 0.5508601489194771 0.4186614557889594
0.15170212765957447 0.5564240351734244 0.4189005613646326
0.15191489361702126 0.5564240351734244 0.4210025279783154
0.15212765957446808 0.5558969407604528 0.4230967084823415
0.1523404255319149 0.554791021032143 0.4254868882063459
0.1525531914893617 0.5542739874724899 0.42706380920960535
0.15276595744680851 0.5511303524382103 0.4264777723497801
0.1529787234042553 0.5485219455076773 0.4296662103748676
0.15319148936170213 0.5428584952426285 0.4317434867954116
0.15340425531914895 0.5404724545697872 0.43465343064082723
0.15361702127659574 0.5372227603791403 0.43910308138892035
0.15382978723404256 0.5328270923696355 0.4440052161207596
0.15404255319148935 0.5296120949929616 0.4474274751096276
0.15425531914893617 0.5206194135092905 0.4479726428920372
0.154468085106383 0.5165718197778129 0.4488808801359416
0.15468085106382978 0.5125533083814328 0.44799665635769337
0.1548936170212766 0.5103773485335228 0.4430874450415241
0.1551063829787234 0.5068993405521854 0.44319956439420904
0.15531914893617021 0.5015355528499159 0.4428446198272822
0.155531914893617 0.49909533846040294 0.4374298877730554
0.15574468085106383 0.4895990020097154 0.437947057875085
0.15595744680851065 0.47447508332546595 0.43818185185090147
0.15617021276595744 0.4548704003900726 0.44163400938902664
0.15638297872340426 0.43802370148266934 0.4452904958082525
0.15659574468085105 0.42432374902264985 0.44746714807180193
0.15680851063829787 0.4082364924037602 0.44690209365276695
0.1570212765957447 0.3984663375420937 0.4502015835661406
0.15723404255319148 0.39289675916693406 0.4548335126483496
0.1574468085106383 0.3847445357378259 0.4536023554234375
0.1576595744680851 0.3809493644465419 0.45520028161548265
0.15787234042553192 0.3788945148048064 0.45495776057778176
0.15808510638297874 0.3777030143224873 0.45481191988275516
0.15829787234042553 0.3834466651972312 0.45481191988275516
0.15851063829787235 0.38521908833955393 0.45604029862091966
0.15872340425531914 0.39671975566745193 0.4602273277241204
0.15893617021276596 0.400710457427867 0.46442228064148766
0.15914893617021275 0.40220650473038827 0.4677875402730655
0.15936170212765957 0.40009770395701016 0.470208849554166
0.1595744680851064 0.40009770395701016 0.47419633387923527
0.15978723404255318 0.3977076259812591 0.4762857820452101
0.16 0.39411943588673853 0.47892343532475296
0.1602127659574468 0.38894892182217095 0.477136730745336
0.16042553191489362 0.38505188289745557 0.4753297508549097
0.16063829787234044 0.38220779442029656 0.4753297508549097
0.16085106382978723 0.38153395212506114 0.4753297508549097
0.16106382978723405 0.38064730189638013 0.478876351769633
0.16127659574468084 0.37389766406981706 0.4763839454988308
0.16148936170212766 0.37043407296351305 0.4764634321540876
0.16170212765957448 0.3612814209593073 0.4808250113600243
0.16191489361702127 0.3536498590487824 0.4865785276872076
0.1621276595744681 0.3443990804329448 0.4894441819848843
0.16234042553191488 0.3360865203533726 0.49159694874101045
0.1625531914893617 0.3302363984092587 0.49413925072209264
0.1627659574468085 0.3268793681576527 0.4964492482418519
0.16297872340425532 0.3221466560666815 0.49822589640302595
0.16319148936170214 0.32050727791012806 0.49674802356420883
0.16340425531914893 0.3204967185927433 0.5024479954245777
0.16361702127659575 0.31978660822058763 0.5007405643076278
0.16382978723404254 0.3183464369691885 0.49551065605855305
0.16404255319148936 0.3180263800683927 0.4905491936417649
0.16425531914893618 0.3188139898636084 0.4905835244267771
0.16446808510638297 0.322442039079103 0.4909623839765511
0.1646808510638298 0.32476563969688427 0.4844731677536261
0.16489361702127658 0.3297926975932411 0.48017310602180524
0.1651063829787234 0.33577062625085174 0.47416367058007214
0.16531914893617022 0.3411346690398026 0.46812682880187706
0.16553191489361702 0.34907872746428553 0.4641074536857407
0.16574468085106384 0.3607748143229471 0.4606166538425702
0.16595744680851063 0.3756590226953665 0.45487113564018056
0.16617021276595745 0.3958523277568186 0.44856688591568966
0.16638297872340424 0.4221147871385662 0.4411198887596199
0.16659574468085106 0.4518526347276489 0.43288593913654133
0.16680851063829788 0.47819326622013103 0.42925731835591846
0.16702127659574467 0.5008241024065615 0.423910072648818
0.1672340425531915 0.5197397855654328 0.4196177469709669
0.16744680851063828 0.5336062229634846 0.41764776130495823
0.1676595744680851 0.5457642723213351 0.41618879538201614
0.16787234042553192 0.5552549454526232 0.41762039950195723
0.16808510638297872 0.5628466209288302 0.4192998138768452
0.16829787234042554 0.5645222308102706 0.4210288163472163
0.16851063829787233 0.5634812132725167 0.4291839591165527
0.16872340425531915 0.5640920173443335 0.4263907391191477
0.16893617021276597 0.5553110342966151 0.4299653914984926
0.16914893617021276 0.555431924649277 0.42653805616595963
0.16936170212765958 0.5562740956842954 0.42745481191988266
0.16957446808510637 0.5538386717666989 0.4272243083841613
0.1697872340425532 0.5564240351734244 0.4256587278052014
0.17 0.5562001699499327 0.42625390712628836
0.1702127659574468 0.5563206970803017 0.4266656680823174
0.17042553191489362 0.5580211333132932 0.42940889106008795
0.17063829787234042 0.5569789362112969 0.43236386078569927
0.17085106382978724 0.5569128843399975 0.43380392221794084
0.17106382978723403 0.5568475230878316 0.4297023152332066
0.17127659574468085 0.5558040902260444 0.42719196159522527
0.17148936170212767 0.556133454479812 0.4230454779673293
0.17170212765957446 0.5564240351734244 0.42234929045959174
0.17191489361702128 0.5539703538867181 0.42256961406936977
0.17212765957446807 0.5534929164631168 0.41635560859115056
0.1723404255319149 0.5554067859571877 0.4157303370786516
0.1725531914893617 0.5561395652726873 0.41851922083859083
0.1727659574468085 0.5485377590162385 0.41475329750854906
0.17297872340425532 0.5478183438778574 0.41475329750854906
0.17319148936170212 0.5447056867008199 0.41475329750854906
0.17340425531914894 0.540587640242484 0.4194556182879594
0.17361702127659576 0.5327739632655639 0.4190510017700276
0.17382978723404255 0.5285423296619477 0.4219663580407054
0.17404255319148937 0.5227390205472812 0.42346142525156444
0.17425531914893616 0.5174242624167564 0.4216252985182415
0.17446808510638298 0.51522861367793 0.42566049233086334
0.17468085106382977 0.5118437208849768 0.4289226783970504
0.1748936170212766 0.5067965922370599 0.4321461436625869
0.1751063829787234 0.5031419233455009 0.431623957721485
0.1753191489361702 0.5003814978165827 0.43300417048594414
0.17553191489361702 0.49618792978378684 0.43429408891060084
0.17574468085106382 0.48866686073203836 0.43710843457858106
0.17595744680851064 0.4735257693882456 0.4442695463552061
0.17617021276595746 0.4551320315134265 0.4522092651421632
0.17638297872340425 0.4399694339436616 0.4575674503302747
0.17659574468085107 0.42218490335313674 0.4648227597814268
0.17680851063829786 0.40950730613514696 0.47063328929505016
0.17702127659574468 0.3969460701015313 0.475284680264254
0.1772340425531915 0.39228138739618945 0.4786941356459341
0.1774468085106383 0.38841218923531884 0.4823332676640166
0.1776595744680851 0.38071573234207945 0.48648629601752896
0.1778723404255319 0.37692069325153255 0.4923725851627872
0.17808510638297873 0.376648754274548 0.49103172117871513
0.17829787234042552 0.38160196704407057 0.4889266869335345
0.17851063829787234 0.387321746188612 0.48248963380624826
0.17872340425531916 0.39754026151643757 0.4748315158285963
0.17893617021276595 0.40116309630160635 0.47035620022990315
0.17914893617021277 0.40779390395940407 0.4631248097799713
0.17936170212765956 0.4065654467512699 0.4593255835368098
0.17957446808510638 0.4032212528849937 0.45624292612134254
0.1797872340425532 0.3985011895676817 0.4522618994910891
0.18 0.4002959251945348 0.44836205205832624
0.1802127659574468 0.3944629930934416 0.45077884276683555
0.1804255319148936 0.38890871549115674 0.4495955571361984
0.18063829787234043 0.38527301849656737 0.4470632400854961
0.18085106382978725 0.3810448435295138 0.4487545100723176
0.18106382978723404 0.3798313311929552 0.4474985197381332
0.18127659574468086 0.37587910668525254 0.44805296512182113
0.18148936170212765 0.36975015474351086 0.4504449030874531
0.18170212765957447 0.3623131446939102 0.45388181285545276
0.18191489361702126 0.3523712838691576 0.45459194577150647
0.18212765957446808 0.34421255318437466 0.4604553566908673
0.1823404255319149 0.3376340698055321 0.46601442577139124
0.1825531914893617 0.3316604837087474 0.46928496601733477
0.1827659574468085 0.3245545559091106 0.4748117987503857
0.1829787234042553 0.32142166065157735 0.4769743887465302
0.18319148936170213 0.31719647456646205 0.4848058784195918
0.18340425531914895 0.31319554235185837 0.49208855320471684
0.18361702127659574 0.3149772757749276 0.49740991909579685
0.18382978723404256 0.3154282166876963 0.49684644781589765
0.18404255319148935 0.31695399415153874 0.495847581827064
0.18425531914893617 0.3180263800683927 0.4965122625704949
0.184468085106383 0.3216625325580032 0.49900631289093283
0.18468085106382978 0.3252859199416592 0.49500705606196727
0.1848936170212766 0.3267062544040759 0.4938935026868587
0.1851063829787234 0.3370849149836289 0.4892275123303529
0.1853191489361702 0.338614238212532 0.49474799470598807
0.185531914893617 0.34319581394923687 0.4879636793909452
0.18574468085106383 0.35262705120374843 0.4871062941859896
0.18595744680851065 0.36687560815392056 0.4880310688077003
0.18617021276595744 0.39262506283885273 0.47879767079773145
0.18638297872340426 0.41848159212539415 0.47017882770221764
0.18659574468085105 0.45005045346710043 0.45984101635468916
0.18680851063829787 0.4679531095505604 0.45495847378647275
0.1870212765957447 0.4964132358271948 0.4479726428920372
0.18723404255319148 0.5157726742103912 0.44788755910757605
0.1874468085106383 0.5321798745390567 0.44714816816182035
0.1876595744680851 0.5458924923592001 0.44884063153088094
0.18787234042553191 0.5551971526491588 0.45159676180810715
0.18808510638297873 0.5624721022588305 0.4515964167968111
0.18829787234042553 0.5677387399546125 0.4512187605023783
0.18851063829787235 0.5662141850132791 0.44655646888395495
0.18872340425531914 0.5641292130573379 0.44079994987059695
0.18893617021276596 0.5614403189501569 0.4351639251677018
0.18914893617021278 0.5583120145575925 0.42927669154801346
0.18936170212765957 0.5566611645458621 0.42079562014089844
0.1895744680851064 0.5531955634599102 0.4130116302903095
0.18978723404255318 0.5565499018150972 0.41182217879824123
0.19 0.5608308944058322 0.41267963371381766
0.1902127659574468 0.5613092330239375 0.40724381480928007
0.19042553191489361 0.5583884305398744 0.40988357399740327
0.19063829787234043 0.5604027341198854 0.4130108403664959
0.19085106382978723 0.5611710380362882 0.41628311702924875
0.19106382978723405 0.5597077165382316 0.4206792902184007
0.19127659574468084 0.5579303797211399 0.4255823031648005
0.19148936170212766 0.5590333392482916 0.4293972953963073
0.19170212765957448 0.5576004295657352 0.4305852854523986
0.19191489361702127 0.5573388519869797 0.42895148265331035
0.1921276595744681 0.5583781143136297 0.42947953537807865
0.19234042553191488 0.5560114234078283 0.4292025851772898
0.1925531914893617 0.5524895332736827 0.4284318514899854
0.19276595744680852 0.5486218742320965 0.42770261071728155
0.19297872340425531 0.5468356921226806 0.42586483808024134
0.19319148936170213 0.5423437871267769 0.4237767918414288
0.19340425531914893 0.5399089601972532 0.4226169129271561
0.19361702127659575 0.5358394934372699 0.42051546878316437
0.19382978723404254 0.531964846047395 0.4146924310738637
0.19404255319148936 0.526065338087614 0.4035125693490087
0.19425531914893618 0.5239093841859213 0.3961948415567534
0.19446808510638297 0.5153693623349505 0.3895304678845701
0.1946808510638298 0.5109573757217775 0.38537347152171814
0.19489361702127658 0.5085404415228238 0.38316812121894783
0.1951063829787234 0.5050641473789848 0.3856132231247746
0.19531914893617022 0.5031167530086572 0.38739618954567656
0.19553191489361701 0.49924995214682705 0.39033882037304846
0.19574468085106383 0.48926954548500246 0.3982993240610552
0.19595744680851063 0.47571079719194964 0.4076853927156069
0.19617021276595745 0.4585268755374563 0.41812816434682454
0.19638297872340427 0.44264681057552785 0.42925084712453393
0.19659574468085106 0.4261311121524633 0.4372326124470084
0.19680851063829788 0.41301573020063137 0.4435220323202756
0.19702127659574467 0.40189953664924766 0.44987414292106626
0.1972340425531915 0.3941467996469885 0.45685466591236645
0.19744680851063828 0.38853297223054656 0.46246849332880857
0.1976595744680851 0.38264355025142405 0.4643973825627207
0.19787234042553192 0.38153395212506114 0.46541603539785387
0.19808510638297872 0.3762042896825392 0.46911246344889823
0.19829787234042554 0.3766139531784933 0.4656985595381028
0.19851063829787233 0.3866378496233651 0.46269072205723044
0.19872340425531915 0.3935556990127878 0.464483224901616
0.19893617021276597 0.3965271557665981 0.46326766592368035
0.19914893617021276 0.40003044618226563 0.46235875488552103
0.19936170212765958 0.40717267371473587 0.4639759494152261
0.19957446808510637 0.4061175846462513 0.4637533909471113
0.1997872340425532 0.39830609743779394 0.4642156502644715
0.2 0.39515529686099177 0.46107686322016384
0.2002127659574468 0.3948163313235374 0.46143971209469614
0.20042553191489362 0.3945658016706182 0.45680789652066434
0.20063829787234042 0.3913660422212582 0.45240016815508444
0.20085106382978724 0.3863802871692833 0.45188080117244755
0.20106382978723403 0.38199745098997634 0.4492973066108261
0.20127659574468085 0.37688263189880244 0.45081021055264303
0.20148936170212767 0.3705625024808736 0.45290762171434096
0.20170212765957446 0.36129370945308603 0.45520050392160144
0.20191489361702128 0.3520160647597199 0.46035475097347156
0.20212765957446807 0.3440020084008112 0.46458231558378116
0.2023404255319149 0.34053486691468215 0.46567803124450996
0.2025531914893617 0.3331562836514186 0.4709472825430123
0.2027659574468085 0.32649185027488165 0.4763067904250122
0.20297872340425532 0.321635464490781 0.47594218658840515
0.20319148936170212 0.31605356185005884 0.4744464066754509
0.20340425531914894 0.3153040287409684 0.4781940722209034
0.20361702127659576 0.31280269406948313 0.481530476423922
0.20382978723404255 0.3111871030776747 0.48153262803045066
0.20404255319148937 0.3111913885642695 0.47825444133532513
0.20425531914893616 0.31253983200256275 0.47623177617788526
0.20446808510638298 0.31492192377773703 0.4756265411148859
0.20468085106382977 0.3181360196868383 0.4761622237664027
0.2048936170212766 0.32315803207774485 0.47838409664463694
0.2051063829787234 0.3288621034944899 0.48125990224088566
0.2053191489361702 0.3356071157778206 0.4864483732280632
0.20553191489361702 0.34455813499856464 0.4903657119931234
0.20574468085106382 0.36827346270701633 0.4857756485656811
0.20595744680851064 0.39198879041547113 0.4811855851382382
0.20617021276595746 0.41570411812392594 0.4765955217107954
0.20638297872340425 0.4394194458323777 0.4720054582833531
0.20659574468085107 0.46313477354083243 0.4674153948559102
0.20680851063829786 0.4868501012492842 0.46282533142846793
0.20702127659574468 0.503050422727761 0.46025340934092096
0.2072340425531915 0.5166676610024905 0.4583751695788893
0.2074468085106383 0.5319223531902528 0.45537154025072485
0.2076595744680851 0.5431188924459674 0.453299684120854
0.2078723404255319 0.5513842635019693 0.45180659095820097
0.20808510638297872 0.5613423021663887 0.4482240768009509
0.20829787234042554 0.5648742882021451 0.44733870642413714
0.20851063829787234 0.5628057319260439 0.4512375836526337
0.20872340425531916 0.561408449052593 0.45822399801988817
0.20893617021276595 0.5569435998618647 0.4569738248983365
0.20914893617021277 0.5546701927015792 0.4585198414948056
0.20936170212765956 0.55721341471303 0.45780559193656206
0.20957446808510638 0.5593417336599191 0.457743038593063
0.2097872340425532 0.5611629015082 0.45683916478082914
0.21 0.5584954102632305 0.45395217626225337
0.2102127659574468 0.5593373712555881 0.4528756233706942
0.2104255319148936 0.5602870036499734 0.4481985919113439
0.21063829787234042 0.5603321934538348 0.44983163890108735
0.21085106382978724 0.564151213695435 0.44610770179064213
0.21106382978723404 0.558653870295642 0.44415640327229755
0.21127659574468086 0.5574468094713911 0.44220187492714946
0.21148936170212765 0.5583317668699743 0.4337341763333966
0.21170212765957447 0.5609707476230605 0.4333170493404983
0.2119148936170213 0.5605856584306065 0.42969917637384386
0.21212765957446808 0.5609179556440759 0.42608880272902167
0.2123404255319149 0.559057569459973 0.4222720296456105
0.2125531914893617 0.5582090943337978 0.4182104480307633
0.2127659574468085 0.5583650629803592 0.4147489470641255
0.2129787234042553 0.551697162941113 0.4119805044164429
0.21319148936170212 0.5489169264263718 0.4105359314143709
0.21340425531914894 0.5449352057492816 0.4138732394452922
0.21361702127659574 0.5375448558421279 0.41871838987441695
0.21382978723404256 0.5323225940417208 0.4229505170153874
0.21404255319148935 0.5271248479914268 0.4293728912968479
0.21425531914893617 0.5232219892359546 0.4375952641137278
0.214468085106383 0.5175231028267565 0.44250860002775516
0.21468085106382978 0.5138866579026439 0.4498359179316894
0.2148936170212766 0.5098125538654704 0.45791626864570395
0.2151063829787234 0.5044562923204644 0.46281288208109883
0.2153191489361702 0.5006508174597303 0.4676773587297821
0.21553191489361703 0.4977053461805876 0.4735683012880675
0.21574468085106382 0.4907527545655955 0.4735081908054383
0.21595744680851064 0.4769543828874253 0.4785707583054835
0.21617021276595744 0.4604995834082451 0.48482755429561447
0.21638297872340426 0.44443991143334866 0.4890131139008206
0.21659574468085105 0.42795081331126905 0.49288452782900266
0.21680851063829787 0.4176548538123072 0.493191394078707
0.2170212765957447 0.40649827086965973 0.4898391077137589
0.21723404255319148 0.3939351508596569 0.4822944972511701
0.2174468085106383 0.3886499670317245 0.4757448577288278
0.2176595744680851 0.3828636768520248 0.4707384573017809
0.2178723404255319 0.38154585224504506 0.4607931585032099
0.21808510638297873 0.37670432098553297 0.4523021736327005
0.21829787234042553 0.37868670569682267 0.4420265331893522
0.21851063829787234 0.38799946082897196 0.43328843654934757
0.21872340425531914 0.3970758180244783 0.4275125728794799
0.21893617021276596 0.4000845328117318 0.42842746110822594
0.21914893617021278 0.40384489664599726 0.4227305796607931
0.21936170212765957 0.40095397128129184 0.4258630495171408
0.2195744680851064 0.4004683095477596 0.42898775987610943
0.21978723404255318 0.40120426698775447 0.4315748492276583
0.22 0.3977596016984897 0.43285204059481636
0.2202127659574468 0.39469180814096055 0.43607460206229387
0.2204255319148936 0.38949878911513636 0.4338485276228373
0.22063829787234043 0.3886387613364531 0.43199617529511725
0.22085106382978723 0.38168919860182576 0.4340201578794882
0.22106382978723405 0.3778712216820017 0.4340005098616399
0.22127659574468084 0.37469467513434296 0.437311694172677
0.22148936170212766 0.3694485280418999 0.44206401618301394
0.22170212765957448 0.3639472398632144 0.4424494733226859
0.22191489361702127 0.3548995782349244 0.43992701101754694
0.2221276595744681 0.34327767288292194 0.4438568216501444
0.22234042553191488 0.336110820497615 0.4452873188046424
0.2225531914893617 0.32744638949064764 0.4490357815536677
0.22276595744680852 0.32324296897924504 0.4585924808654706
0.2229787234042553 0.31541377291054085 0.4643832458634963
0.22319148936170213 0.31503088206214214 0.47344005101064734
0.22340425531914893 0.3129436479054334 0.4753297508549097
0.22361702127659575 0.3111871030776747 0.47564702663941366
0.22382978723404254 0.3111871030776747 0.4777370579094296
0.22404255319148936 0.3117849230415081 0.4783411791895699
0.22425531914893618 0.3149888781131204 0.4751981728878678
0.22446808510638297 0.31758782880384984 0.4716214666565329
0.2246808510638298 0.3201005729412231 0.47099312965576057
0.22489361702127658 0.32637421844086245 0.4672046713616668
0.2251063829787234 0.3319945332229819 0.46102870170691
0.22531914893617022 0.3384796058061638 0.4569424933811942
0.225531914893617 0.34670977908874145 0.4544086285844158
0.22574468085106383 0.357259447442201 0.45260906475411034
0.22595744680851063 0.37373256591879345 0.45126293774109044
0.22617021276595745 0.3938893627994832 0.4502020536947383
0.22638297872340427 0.42192251105567596 0.4440423745048182
0.22659574468085106 0.44878457022279616 0.44056035113840497
0.22680851063829788 0.4720224405250248 0.4360227899193136
0.22702127659574467 0.4992223927464349 0.4335013031554053
0.2272340425531915 0.5149813948328688 0.43142110997118543
0.22744680851063828 0.5314996193532845 0.431362970200293
0.2276595744680851 0.5450822970559506 0.43146756837674377
0.22787234042553192 0.5572577071462592 0.4321732753758288
0.22808510638297871 0.5639083275270936 0.4311266888818243
0.22829787234042553 0.5708417306599285 0.4319046026741122
0.22851063829787233 0.565930862296971 0.4378583841513354
0.22872340425531915 0.5613054010641525 0.4438269306487249
0.22893617021276597 0.5589575271128758 0.44793571006345906
0.22914893617021276 0.5569217838812782 0.4562313346238964
0.22936170212765958 0.5541189855946734 0.4564150285844145
0.22957446808510637 0.554312010384313 0.4566080533740541
0.2297872340425532 0.553677558041509 0.45755839701467077
0.23 0.5593285073537794 0.4510737918608771
0.2302127659574468 0.559751177844175 0.45166976886122157
0.23042553191489362 0.5601908092744751 0.4507687022656931
0.23063829787234041 0.5585249186670163 0.4461164333207564
0.23085106382978723 0.556493438301149 0.4445877059605403
0.23106382978723405 0.5562224046541873 0.44150551391370974
0.23127659574468085 0.5578621646285242 0.4397830790174144
0.23148936170212767 0.5575397793887991 0.4383409518362833
0.23170212765957446 0.5564240351734244 0.43722520762090866
0.23191489361702128 0.5585262990465799 0.4400282261184493
0.23212765957446807 0.5570529230700249 0.44266818644379047
0.2323404255319149 0.5564240351734244 0.4414096429953261
0.2325531914893617 0.5573275646597393 0.4456510133328925
0.2327659574468085 0.5545057791251738 0.44505346521238087
0.23297872340425532 0.5559862626955779 0.4486213531037549
0.23319148936170211 0.54836679036115 0.44272605266434345
0.23340425531914893 0.5456924797405642 0.43977186243848265
0.23361702127659575 0.5395134585154145 0.43669892512003045
0.23382978723404255 0.5321001843376187 0.4302985737459273
0.23404255319148937 0.528310722607493 0.4248074351104129
0.23425531914893616 0.5231305107814117 0.4207070922312505
0.23446808510638298 0.519323938711782 0.4133836633612906
0.2346808510638298 0.5166843568049819 0.4082329645235945
0.2348936170212766 0.5135433809122837 0.40816697582561645
0.2351063829787234 0.5076679162806803 0.4082068689110581
0.2353191489361702 0.5026086588100482 0.4086663501973414
0.23553191489361702 0.4984351693798558 0.4170776847574926
0.23574468085106381 0.49411071108497717 0.4245669756006265
0.23595744680851063 0.48003589158194027 0.42950849506385447
0.23617021276595745 0.46383821767385536 0.44119202701452637
0.23638297872340425 0.44551446299352326 0.45115581198149934
0.23659574468085107 0.43155274138356314 0.45476812653276977
0.23680851063829786 0.4179485892097525 0.4633310965601375
0.23702127659574468 0.40460103956296384 0.4587200781631655
0.2372340425531915 0.39447316286220513 0.4592745855963846
0.2374468085106383 0.3891161918711868 0.4604355546763066
0.2376595744680851 0.38109316854370273 0.45747491059869094
0.2378723404255319 0.37647577059143345 0.46021606878261206
0.23808510638297872 0.3763882585774263 0.46262823644357587
0.23829787234042554 0.37921543269260033 0.46262823644357587
0.23851063829787233 0.38656829050524644 0.4652582142968269
0.23872340425531915 0.39484739955032805 0.4703622775184753
0.23893617021276595 0.39633853074716513 0.47450169635537226
0.23914893617021277 0.4008464921600686 0.4784343818438888
0.23936170212765956 0.4026900669265858 0.48242932828217205
0.23957446808510638 0.40233065887175373 0.4834249431902687
0.2397872340425532 0.397469752351404 0.4846734109976674
0.24 0.3953540841647334 0.4817583005084696
0.2402127659574468 0.3879683414276357 0.47485334418152114
0.2404255319148936 0.38349804241776797 0.4733781745028299
0.24063829787234042 0.381400733349602 0.4667807310290637
0.24085106382978724 0.37909886608031584 0.45616474039228544
0.24106382978723404 0.37531586602662953 0.45188080117244755
0.24127659574468086 0.3725090418679122 0.452112355298673
0.24148936170212765 0.3698093720316483 0.4536720228422719
0.24170212765957447 0.3639496214247714 0.4531827267453986
0.2419148936170213 0.3564320195597086 0.454154414269507
0.24212765957446808 0.3447535955153547 0.4521391983380591
0.2423404255319149 0.3356420936824844 0.4531786870405434
0.2425531914893617 0.3290345309239837 0.4528334791404606
0.2427659574468085 0.3227379541174507 0.450328429916566
0.2429787234042553 0.31895352528293597 0.44894968246213973
0.24319148936170212 0.3162461520608915 0.45055605933693704
0.24340425531914894 0.3150952613580851 0.4537883405318401
0.24361702127659574 0.3150952613580851 0.45481191988275516
0.24382978723404256 0.3139283704832975 0.4571457016323301
0.24404255319148935 0.3118576985968565 0.46128704540521215
0.24425531914893617 0.316811060098836 0.4661432095818018
0.244468085106383 0.32275977605491446 0.46826470557737276
0.24468085106382978 0.3214443808224598 0.4684904738641915
0.2448936170212766 0.3236083007033223 0.46937407450573204
0.2451063829787234 0.3305213379395515 0.46946751343429405
0.2453191489361702 0.34060532538419097 0.46834776025960656
0.24553191489361703 0.34433826398672107 0.4647842833828169
0.24574468085106382 0.35402698337028726 0.46631086743044825
0.24595744680851064 0.3700007270604286 0.4649398704032484
0.24617021276595744 0.38535035166647175 0.46701726794745424
0.24638297872340426 0.4118509294344088 0.4693442261319745
0.24659574468085105 0.44161425471459737 0.47142159257449934
0.24680851063829787 0.46736925316214323 0.4710455414875872
0.2470212765957447 0.4900502178374849 0.47177328743869057
0.24723404255319148 0.5119530998406417 0.47490571537330417
0.2474468085106383 0.5299187206658476 0.47661443324285274
0.2476595744680851 0.5438492451636072 0.4771716542227631
0.2478723404255319 0.5514092455061856 0.4804542340176395
0.24808510638297873 0.5605611084253512 0.48038746512229147
0.24829787234042552 0.5655128730469761 0.47860164847895453
0.24851063829787234 0.5712075995187442 0.48160298199474655
0.24872340425531914 0.5676011584983041 0.47682241608951353
0.24893617021276596 0.5614112256843311 0.4676664232846794
0.24914893617021278 0.5593551538837322 0.46345642384957886
0.24936170212765957 0.5590107297879007 0.4602149251755954
0.2495744680851064 0.5568412728424411 0.4562096821309382
0.24978723404255318 0.559247652943823 0.4530011753290959
0.25 0.5612184999577752 0.4527897909429283
0.2502127659574468 0.5574883885333825 0.4500140358220975
0.25042553191489364 0.5585342578943928 0.4515283359253973
0.25063829787234043 0.5589078503995699 0.4543646163985928
0.2508510638297872 0.5571076364137028 0.4525644024127258
0.251063829787234 0.5553486483904605 0.45403157473837547
0.25127659574468086 0.551428887468407 0.4532021748047016
0.25148936170212766 0.5509481896148242 0.4451232265201581
0.25170212765957445 0.5540203398794492 0.440450327959862
0.2519148936170213 0.553877941898977 0.43701821892252646
0.2521276595744681 0.555481165394211 0.43823641698190025
0.2523404255319149 0.5542210804821287 0.4384449685306818
0.2525531914893617 0.5534929164631168 0.4421750116485442
0.2527659574468085 0.5500495810125337 0.4456699466294616
0.2529787234042553 0.5458892586977956 0.44786631349428746
0.2531914893617021 0.5456765999022961 0.4460317505818466
0.25340425531914895 0.5366727767323022 0.4387583526829728
0.25361702127659574 0.5333997153590703 0.430832182865158
0.25382978723404254 0.5352878206499244 0.42501530115511926
0.2540425531914894 0.5245747879885353 0.41300509268448876
0.2542553191489362 0.5206547822934464 0.39995462586203206
0.25446808510638297 0.5163654127992183 0.3955495822295731
0.25468085106382976 0.5144561764988349 0.3973799302966517
0.2548936170212766 0.5102021010790634 0.3970416215896945
0.2551063829787234 0.5046437849504652 0.401560772193746
0.2553191489361702 0.49910173673960967 0.40770130670413524
0.25553191489361704 0.5026161462102355 0.41167353162414866
0.25574468085106383 0.4922638693293782 0.4168054508279574
0.2559574468085106 0.47510369490982435 0.4245139844376068
0.2561702127659574 0.4570229002269786 0.43127733646562044
0.25638297872340426 0.44093168948137595 0.4392217115470766
0.25659574468085106 0.4261706336036313 0.44758984242120653
0.25680851063829785 0.410547709960976 0.448907206818206
0.2570212765957447 0.3990911870900722 0.45092341313356843
0.2572340425531915 0.3928411590304198 0.45495100919471265
0.2574468085106383 0.38670317368096413 0.456350189504133
0.25765957446808513 0.38138188939993956 0.45315741893551814
0.2578723404255319 0.3765838487469608 0.44908035768138743
0.2580851063829787 0.37407842921078394 0.4420801195556375
0.2582978723404255 0.3767472346666438 0.43239517508718545
0.25851063829787235 0.3837009633810084 0.42671107961622967
0.25872340425531914 0.39074113379688613 0.4223627012989189
0.25893617021276594 0.3942249742501766 0.4206207810722738
0.2591489361702128 0.4008411634607977 0.4262775608643671
0.2593617021276596 0.40782136130001384 0.4324481121911823
0.25957446808510637 0.4016485270451675 0.4392464961031217
0.2597872340425532 0.395811060066627 0.4405348119411893
0.26 0.39248547760415525 0.4440536317441953
0.2602127659574468 0.38908958658688675 0.44823332499103224
0.2604255319148936 0.38741301571134357 0.45055003813619904
0.26063829787234044 0.3858299092902599 0.45616167362138327
0.26085106382978723 0.3827933189138624 0.4606035754986961
0.261063829787234 0.37963975362496066 0.4642434973989918
0.2612765957446809 0.3782939445538715 0.46710213672425804
0.26148936170212767 0.37416938857547927 0.47371184854176085
0.26170212765957446 0.3658103603819522 0.48043393709156273
0.26191489361702125 0.35539420140989575 0.4801893400516937
0.2621276595744681 0.3487793269981964 0.4799265967400774
0.2623404255319149 0.34019824131601406 0.485212476804242
0.2625531914893617 0.33469109305640427 0.4848971668856106
0.26276595744680853 0.3294274660130906 0.47989155980888926
0.2629787234042553 0.3242892880740391 0.47475338186983773
0.2631914893617021 0.322247109632897 0.46805992542663494
0.26340425531914896 0.317964925353408 0.4629129464902869
0.26361702127659575 0.3160723009281876 0.4605501636934032
0.26382978723404255 0.31671744649083683 0.4614175059003328
0.26404255319148934 0.31809073886452616 0.4650796188968376
0.2642553191489362 0.3195666938794665 0.46695016005311785
0.264468085106383 0.3212855514451604 0.4657233814871136
0.26468085106382977 0.32348364884600644 0.4673945011146372
0.2648936170212766 0.3277306883660814 0.4729191762398963
0.2651063829787234 0.3341225099896838 0.4767702872246619
0.2653191489361702 0.33798335549891617 0.4803189947125405
0.265531914893617 0.3424967818432751 0.48079912208613274
0.26574468085106384 0.3527992860030476 0.47683662048622033
0.26595744680851063 0.3649895019168094 0.47048459009560095
0.2661702127659574 0.3848119214832286 0.4609277215725292
0.2663829787234043 0.40985153041636746 0.4497169662351834
0.26659574468085107 0.43861817351526805 0.43637974895618703
0.26680851063829786 0.4661471047850971 0.4223372283028224
0.2670212765957447 0.4955922317567257 0.41645932974150507
0.2672340425531915 0.5161119809273729 0.41111827509585386
0.2674468085106383 0.5253703537242665 0.40621472536989994
0.2676595744680851 0.5389724972648969 0.4078149775511505
0.26787234042553193 0.549001030232737 0.4086795761637524
0.2680851063829787 0.5579642041900708 0.4067492711322138
0.2682978723404255 0.564688891134642 0.4023293599769532
0.26851063829787236 0.5654255285766383 0.40261254812273717
0.26872340425531915 0.5619216511966033 0.4005570175865095
0.26893617021276595 0.5595948940141802 0.40181204296676754
0.26914893617021274 0.5575360724562354 0.4075090273797064
0.2693617021276596 0.552617248345125 0.4088707857975114
0.2695744680851064 0.5563750215262809 0.40901359420579236
0.26978723404255317 0.5546581480329632 0.41330577793908696
0.27 0.5572435966519772 0.4119271641926079
0.2702127659574468 0.5574010747435272 0.41475329750854906
0.2704255319148936 0.5576325679595618 0.4155249415619981
0.27063829787234045 0.5600479964424456 0.42409739769249133
0.27085106382978724 0.5589510806568332 0.42235652962353853
0.27106382978723403 0.5608029795859598 0.4270194930936108
0.2712765957446808 0.5605969386744913 0.4332256473864317
0.2714893617021277 0.5617643426130312 0.4379746923964643
0.27170212765957447 0.5602157309491236 0.44003986382650506
0.27191489361702126 0.5603591881332252 0.441133365901319
0.2721276595744681 0.5593551538837322 0.4416635789608047
0.2723404255319149 0.5599444038535974 0.44211040547142155
0.2725531914893617 0.5590286153119044 0.44276219454238674
0.2727659574468085 0.5569444289247139 0.44380428773598213
0.27297872340425533 0.5525101528685317 0.4503266962994553
0.2731914893617021 0.5473055162371411 0.4541385724181918
0.2734042553191489 0.5421039111653146 0.45691276178983253
0.27361702127659576 0.5369023060934869 0.45968695116147396
0.27382978723404255 0.5345761802047578 0.4604661389221399
0.27404255319148935 0.5304031023123051 0.46564278915163454
0.2742553191489362 0.5234735298266459 0.47100930765903026
0.274468085106383 0.5186435060698084 0.47630928901448605
0.2746808510638298 0.5143613167436137 0.4837262848790137
0.27489361702127657 0.5101476443161382 0.49000773281077126
0.2751063829787234 0.5060154881065084 0.49297713592117803
0.2753191489361702 0.5008265979955984 0.49562677651404374
0.275531914893617 0.4969671921939044 0.49417515161249087
0.27574468085106385 0.49098940535552255 0.49009090198324073
0.27595744680851064 0.48143178887618854 0.49044810041468856
0.27617021276595743 0.4620672086745933 0.4851001465559355
0.2763829787234042 0.44598444230532247 0.4851001465559355
0.2765957446808511 0.4304216603285647 0.4859601385472981
0.27680851063829787 0.41695235136009634 0.48503359520513906
0.27702127659574466 0.40378592223971854 0.4838366471032866
0.2772340425531915 0.39424014700504056 0.48249626785854394
0.2774468085106383 0.38966546047841494 0.48041983253502746
0.2776595744680851 0.38527810893276526 0.4753012557317695
0.27787234042553194 0.3821998425971149 0.46906717872888126
0.27808510638297873 0.38153395212506114 0.46342336631819814
0.2782978723404255 0.38088088021912536 0.45185511828443814
0.2785106382978723 0.38477065677219996 0.44418644051044015
0.27872340425531916 0.3912663459881202 0.4396963079246402
0.27893617021276595 0.3980752852779317 0.43542257848590826
0.27914893617021275 0.4039581642629535 0.4359383875189276
0.2793617021276596 0.4073515931117579 0.43444803560821843
0.2795744680851064 0.3989438278699219 0.4352711284807034
0.2797872340425532 0.39837929737306 0.4347997833681935
0.27999999999999997 0.3970465815837065 0.43628002477364275
0.2802127659574468 0.39203644934709436 0.44235263089423876
0.2804255319148936 0.3913384155072087 0.44025852937458193
0.2806382978723404 0.3885556218925837 0.44382129424255407
0.28085106382978725 0.3836112785088759 0.44692165497576863
0.28106382978723404 0.38518503191751996 0.4481333169470069
0.28127659574468084 0.37753585360815994 0.45276790050605925
0.2814893617021277 0.37543992595377823 0.4526866867196274
0.2817021276595745 0.3674895705846546 0.45788936961665105
0.28191489361702127 0.3617716130133168 0.45981697646124775
0.28212765957446806 0.35248517879307517 0.46103147020287616
0.2823404255319149 0.34722565307572484 0.46308734605156493
0.2825531914893617 0.338433501207575 0.4657621949970253
0.2827659574468085 0.3329363387567843 0.46957448551406633
0.28297872340425534 0.3291716877907765 0.4705771771548151
0.28319148936170213 0.32487756807652673 0.46946751343429405
0.2834042553191489 0.3216822959389368 0.47332857614691926
0.2836170212765957 0.31813510346927776 0.4720009603665985
0.28382978723404256 0.31637102062276745 0.4715024730608623
0.28404255319148936 0.3171691437942132 0.47459231787665307
0.28425531914893615 0.3193640788615686 0.4769756398216002
0.284468085106383 0.32238628554095805 0.4784867431612949
0.2846808510638298 0.3254084922203467 0.4799978465009892
0.2848936170212766 0.3284306988997353 0.48150894984068354
0.2851063829787234 0.3314529055791247 0.4830200531803783
0.2853191489361702 0.34026995199169874 0.4737521767698088
0.285531914893617 0.34961420802253945 0.4635036378972738
0.2857446808510638 0.35895846405338017 0.4532550990247388
0.28595744680851065 0.3776232956256915 0.4451541617566141
0.28617021276595744 0.4007710265472914 0.4380861523149042
0.28638297872340424 0.42391875746889124 0.43101814287319434
0.2865957446808511 0.4470664883904971 0.42395013343148263
0.2868085106382979 0.47021421931209695 0.41688212398977276
0.28702127659574467 0.49208438894466605 0.41077742811400264
0.28723404255319146 0.5064740218035039 0.4103132464088789
0.2874468085106383 0.5208636546623454 0.409849064703755
0.2876595744680851 0.5352532875211832 0.4093848829986312
0.2878723404255319 0.549642920380021 0.40892070129350744
0.28808510638297874 0.561573336552323 0.4120372140306519
0.28829787234042553 0.5659145010079331 0.4178216661894078
0.2885106382978723 0.5660050212841998 0.42742482030103274
0.28872340425531917 0.5632006839866532 0.44121687013797145
0.28893617021276596 0.5587755706968547 0.44711702119103636
0.28914893617021276 0.5567461242318575 0.45746403911384365
0.28936170212765955 0.5543958001964239 0.4623272751991402
0.2895744680851064 0.5534929164631168 0.46012994056791356
0.2897872340425532 0.554687073224425 0.4605113133051279
0.29 0.5548119912198737 0.458476174956232
0.2902127659574468 0.5565415935478162 0.4546943615083636
0.2904255319148936 0.5566539103940185 0.45009905856510946
0.2906382978723404 0.5564240351734244 0.444930227284701
0.2908510638297872 0.5572907421556689 0.43886424271816066
0.29106382978723405 0.5574010747435272 0.4335356208311555
0.29127659574468084 0.5545072368653144 0.4313070489521504
0.29148936170212764 0.5562652446154606 0.4280348750950757
0.2917021276595745 0.5557955627580601 0.4233993640033789
0.2919148936170213 0.5624040567050814 0.4214955447455433
0.29212765957446807 0.5590520016676712 0.4178359923268874
0.2923404255319149 0.5579195715665877 0.41840220737742917
0.2925531914893617 0.5563834487960091 0.4171350168676823
0.2927659574468085 0.5549342524309694 0.41624308025100426
0.2929787234042553 0.5527807084666719 0.4172704591709368
0.29319148936170214 0.548456722382381 0.4195336851831753
0.29340425531914893 0.5425883940498485 0.42264815764043967
0.2936170212765957 0.5372068337503282 0.4235466536394723
0.29382978723404257 0.533638209167997 0.4220346569506237
0.29404255319148936 0.528171864946873 0.4175898907125261
0.29425531914893616 0.5245632711864667 0.41330794080358085
0.29446808510638295 0.5214778158050458 0.4118979138500128
0.2946808510638298 0.513643927755881 0.4080188373513161
0.2948936170212766 0.51335507199593 0.40603916347060637
0.2951063829787234 0.5098611323744064 0.40921208159003186
0.29531914893617023 0.5022963782639879 0.4131896989221383
0.295531914893617 0.49863703708538837 0.4164761390933756
0.2957446808510638 0.4924531189022497 0.42107887914367104
0.29595744680851066 0.48421441158148215 0.42873037820524473
0.29617021276595745 0.4680813514976617 0.4386643011698887
0.29638297872340424 0.44939425612779776 0.44811813281398466
0.29659574468085104 0.43339579177541565 0.4578251631702009
0.2968085106382979 0.417753991480008 0.46242529279041145
0.2970212765957447 0.40738600557855426 0.46704685626138503
0.29723404255319147 0.396460112373685 0.46946751343429405
0.2974468085106383 0.38778352109904596 0.4703154424866069
0.2976595744680851 0.3827200902486386 0.4716708755154608
0.2978723404255319 0.37763546899468287 0.4724324951697141
0.29808510638297875 0.3795119207648257 0.47913598080527486
0.29829787234042554 0.3779345079246314 0.4763839689450074
0.29851063829787233 0.3827260896731842 0.47728382999511476
0.2987234042553191 0.3921486440172852 0.477178292971215
0.298936170212766 0.39951309476143404 0.4763067904250122
0.29914893617021276 0.403028822667318 0.4767815774996229
0.29936170212765956 0.4031669351509081 0.4816063257262955
0.2995744680851064 0.4040058622374205 0.48503801069556074
0.2997872340425532 0.4023901628430327 0.4899315616331389
0.3 0.39633142130774734 0.49235968715745276
0.3002127659574468 0.3926664447187542 0.49033477524949487
0.30042553191489363 0.38863006820252655 0.4854073024195696
0.3006382978723404 0.3861802862092677 0.47559019912609346
0.3008510638297872 0.3840129717501894 0.4690882557488586
0.30106382978723406 0.38196599416253035 0.4644693600886172
0.30127659574468085 0.3777486686812213 0.46108954809872593
0.30148936170212765 0.3714400088847173 0.46248774551182575
0.3017021276595745 0.3662594959060979 0.4636052760136786
0.3019148936170213 0.3587715334981895 0.46770710663709686
0.3021276595744681 0.3473486119831474 0.46873565415769025
0.30234042553191487 0.3412848163670178 0.466929657817119
0.3025531914893617 0.33308075414588595 0.47312976008831187
0.3027659574468085 0.3282687448618242 0.4717755693938035
0.3029787234042553 0.32509343021860115 0.47142159257449934
0.30319148936170215 0.32016411252215626 0.47142159257449934
0.30340425531914894 0.3180129454406509 0.4763470943082376
0.30361702127659573 0.3167925799663133 0.47936628940130843
0.3038297872340425 0.3135861352738616 0.48085827348353877
0.3040425531914894 0.31704934049829014 0.47842528051380234
0.30425531914893617 0.3174807770335526 0.4785907543324264
0.30446808510638296 0.3195364307715809 0.475507273725384
0.3046808510638298 0.3219231152074773 0.47015695028544846
0.3048936170212766 0.32502129539435154 0.45907456439230576
0.3051063829787234 0.3302640005262756 0.44886706988635805
0.30531914893617024 0.33703974332954545 0.43975340492903037
0.30553191489361703 0.34274526733443733 0.4319912198221812
0.3057446808510638 0.3509061977396477 0.4223837644827464
0.3059574468085106 0.36329209312108646 0.40749853529812385
0.30617021276595746 0.3811489488679867 0.39416645551774343
0.30638297872340425 0.4065414835298565 0.37868925485780824
0.30659574468085105 0.4335611846477629 0.3658036648805138
0.3068085106382979 0.4602643935831834 0.3588122443264057
0.3070212765957447 0.4865338587812834 0.35983857812801456
0.3072340425531915 0.5027282783167842 0.366905971572857
0.30744680851063827 0.5245132206937014 0.3759181539008318
0.3076595744680851 0.5365792645249543 0.38597283530509763
0.3078723404255319 0.5493232612261532 0.395332097311992
0.3080851063829787 0.5579097378240465 0.40261899323893274
0.30829787234042555 0.5651661703806253 0.41078660102959863
0.30851063829787234 0.5670271923559448 0.4131358672417631
0.30872340425531913 0.5639008338611592 0.41983250557225393
0.308936170212766 0.560290431835339 0.4218955924441512
0.3091489361702128 0.5577372967988313 0.424723430833037
0.30936170212765957 0.5593551538837322 0.4306207145512854
0.30957446808510636 0.5592888754571524 0.4364470033305456
0.3097872340425532 0.5584856600328483 0.43960946963798814
0.31 0.5589083850481797 0.4442788286029974
0.3102127659574468 0.5566186166504365 0.4528495763724656
0.31042553191489364 0.5564418693556238 0.4645109788549842
0.31063829787234043 0.554647934678846 0.47803931774860586
0.3108510638297872 0.5574010747435272 0.4864057479159404
0.311063829787234 0.5574010747435272 0.49779094053021855
0.31127659574468086 0.5574010747435272 0.5072135382177992
0.31148936170212765 0.5578577589474863 0.5157177151087063
0.31170212765957445 0.5588806167962951 0.5183194919394236
0.3119148936170213 0.5593551538837322 0.5177619601060085
0.3121276595744681 0.5605737032795725 0.5185610017651611
0.3123404255319149 0.5586623344928738 0.5133410098146329
0.3125531914893617 0.5581168267337211 0.5076401674178272
0.3127659574468085 0.5576057773831172 0.5004163216540926
0.3129787234042553 0.5557452593514871 0.49463916205727176
0.3131914893617021 0.5589421537097821 0.48865076552716863
0.31340425531914895 0.5483248103620109 0.48343528879885944
0.31361702127659574 0.542770751022835 0.4889779810393298
0.31382978723404253 0.5381206980502142 0.49270813134976515
0.3140425531914894 0.5310786714272646 0.4967916699248766
0.3142553191489362 0.5269911626943552 0.5014968698396941
0.31446808510638297 0.522830653613637 0.49464612055118173
0.31468085106382976 0.5180678827113662 0.49005235433622313
0.3148936170212766 0.5154830375184473 0.4758720295458811
0.3151063829787234 0.5105574972341473 0.4657766425760616
0.3153191489361702 0.5058754644245773 0.44931063432940527
0.31553191489361704 0.5007075584415472 0.4351954647726144
0.31574468085106383 0.4972100558733159 0.4243107959019061
0.3159574468085106 0.4872894356317468 0.41626142920021225
0.31617021276595747 0.4702714473754117 0.4142323204180631
0.31638297872340426 0.4505607993892976 0.4117021786361368
0.31659574468085105 0.43158338279594455 0.409651391339967
0.31680851063829785 0.41769352114332775 0.4082404591182377
0.3170212765957447 0.4067090324553061 0.4050871303245747
0.3172340425531915 0.3986861688446139 0.400966037441531
0.3174468085106383 0.3906761642651688 0.39766379608893515
0.3176595744680851 0.38504313476155094 0.39199802453750554
0.3178723404255319 0.37987893606997214 0.38396653220145227
0.3180851063829787 0.3747114481986477 0.381540661350783
0.3182978723404255 0.37596476039783805 0.3755879873634762
0.31851063829787235 0.38310646201187104 0.37361839051145584
0.31872340425531914 0.3899724900320292 0.3733803003606377
0.31893617021276593 0.39877824732422135 0.3783410809609914
0.3191489361702128 0.4013414118638316 0.38633174919239965
0.3193617021276596 0.4023715078603616 0.3945015954575482
0.31957446808510637 0.403028822667318 0.4052007190589291
0.3197872340425532 0.4000277531086289 0.4178243179156193
0.32 0.39522526776873446 0.43176853918080255
0.3202127659574468 0.396915932210843 0.44677973734924575
0.3204255319148936 0.3943954068789592 0.457378823443614
0.32063829787234044 0.38613906718222746 0.4642167382966452
0.32085106382978723 0.3827861236475093 0.4756611937548267
0.321063829787234 0.377962481709536 0.4875768441089705
0.32127659574468087 0.37419868475468526 0.4973355529660372
0.32148936170212766 0.3691857945503877 0.5061944403782217
0.32170212765957445 0.36382441265180476 0.5149676107577209
0.32191489361702125 0.35604124651575036 0.5155955290461782
0.3221276595744681 0.3470813756274857 0.5106580608726472
0.3223404255319149 0.342017454747683 0.5086846274876047
0.3225531914893617 0.3361295161359989 0.506767158366779
0.3227659574468085 0.33182224343392547 0.5009087437537216
0.3229787234042553 0.3238709606408782 0.4957592975864136
0.3231914893617021 0.32269758187265324 0.4910337159919686
0.32340425531914896 0.31947255488412024 0.4915584953032954
0.32361702127659575 0.3158915919829785 0.48918901378155494
0.32382978723404254 0.3160371638414337 0.4911627225106342
0.32404255319148934 0.31841101608159555 0.4951667440354114
0.3242553191489362 0.31704934049829014 0.49620032026207644
0.324468085106383 0.3191021601482771 0.49682462139716654
0.32468085106382977 0.32333498778131176 0.49635780491966364
0.3248936170212766 0.32694591268771894 0.49324726229130395
0.3251063829787234 0.33107543362224084 0.48808536112315154
0.3253191489361702 0.33836800429886255 0.48102293663365486
0.325531914893617 0.3470074221567976 0.47134575405778895
0.32574468085106384 0.3552150731925902 0.4692309022243058
0.32595744680851063 0.36504940891875026 0.46946751343429405
0.3261702127659574 0.3796187646632389 0.47286495505821846
0.32638297872340427 0.4032668880885357 0.47609228871013876
0.32659574468085106 0.4325654795119214 0.48106240727059807
0.32680851063829786 0.45751143945106565 0.4889796340506495
0.3270212765957447 0.483975809483013 0.48877040320881
0.3272340425531915 0.5058965475105142 0.49593156174811476
0.3274468085106383 0.5246296647626081 0.48829581735001
0.3276595744680851 0.539254281651805 0.48090447430939703
0.3278723404255319 0.552863772166712 0.4720813944097204
0.3280851063829787 0.559906833689096 0.46018228544282985
0.3282978723404255 0.5684683808365325 0.4467823561073498
0.32851063829787236 0.5702398198890125 0.44369783004420815
0.32872340425531915 0.5657543823091268 0.4361250862075996
0.32893617021276594 0.5626319508776024 0.43153580934207436
0.32914893617021274 0.5583781143136297 0.42940889106008795
0.3293617021276596 0.5583781143136297 0.4278836936699638
0.3295744680851064 0.556237473834221 0.42421634849203227
0.32978723404255317 0.554784214679351 0.4238609122856041
0.33 0.5568986017640539 0.4271617158468806
0.3302127659574468 0.5580376962637661 0.4311485465958733
0.3304255319148936 0.5577847529571582 0.43115328705745265
0.33063829787234045 0.5560207942927915 0.43084602411376904
0.33085106382978724 0.5548488287047154 0.4268164981423397
0.33106382978723403 0.5566312169340356 0.418059533584777
0.3312765957446808 0.555932060726191 0.4128766078933065
0.33148936170212767 0.554376114724677 0.4074028698226034
0.33170212765957446 0.5564798674491394 0.4065182472981696
0.33191489361702126 0.5548504774401276 0.4123414888029402
0.3321276595744681 0.5562709228085692 0.4215743836978108
0.3323404255319149 0.5564240351734244 0.4252103618147457
0.3325531914893617 0.5580834927528491 0.4292435349821544
0.3327659574468085 0.5576836863736881 0.4319201260369745
0.33297872340425533 0.5546553758446392 0.43410866909918094
0.3331914893617021 0.5528559556088255 0.4352711284807034
0.3334042553191489 0.5456545122817669 0.4345849920195787
0.33361702127659576 0.539335654316346 0.4322481927852154
0.33382978723404255 0.5358185239108365 0.43000179724653387
0.33404255319148934 0.5299477626441507 0.42727400449422354
0.3342553191489362 0.5265639608005578 0.42266295525005104
0.334468085106383 0.5196047734411625 0.4191434363521115
0.3346808510638298 0.5131083479884325 0.4125817878461365
0.33489361702127657 0.512457254518808 0.41274042675642153
0.3351063829787234 0.5066077037032747 0.41767384404795505
0.3353191489361702 0.5027272074402768 0.4149953892435168
0.335531914893617 0.5030088338809405 0.42080269621686306
0.33574468085106385 0.4962261890625158 0.42346726257134587
0.33595744680851064 0.48861831914061216 0.4286365250126589
0.33617021276595743 0.46750572781848065 0.4306964974616988
0.3363829787234042 0.4501596293633967 0.43245646343597294
0.33659574468085107 0.4349632874695412 0.42271415708848115
0.33680851063829786 0.419280620173465 0.41033247294641534
0.33702127659574466 0.40873577682730283 0.40242384043679363
0.3372340425531915 0.39705599819180093 0.39544191346150914
0.3374468085106383 0.3903273082559844 0.3974441886863456
0.3376595744680851 0.38970899652667773 0.41087988248781065
0.33787234042553194 0.37957987298485585 0.42883389947071404
0.33808510638297873 0.37887621877211447 0.4447842914798389
0.3382978723404255 0.37606787323040064 0.4610664996165301
0.3385106382978723 0.3827672718597993 0.46262823644357587
0.33872340425531916 0.3879050554504752 0.46233105534859564
0.33893617021276595 0.3934291922498201 0.4591722117124513
0.33914893617021274 0.3982382832267078 0.4529364484177461
0.3393617021276596 0.40092419392933937 0.4482361046881409
0.3395744680851064 0.4010747435271129 0.435430059935471
0.3397872340425532 0.39423546653639474 0.42234601164057817
0.34 0.39377814470754785 0.4160671260883687
0.3402127659574468 0.38935026868588185 0.4094387308568848
0.3404255319148936 0.3885676939040168 0.40752391203412713
0.3406382978723404 0.38444467145888583 0.40812258150151126
0.34085106382978725 0.3812286450467215 0.4033341297456576
0.34106382978723404 0.379116336844892 0.4054464379474869
0.34127659574468083 0.376648754274548 0.41455631849008556
0.3414893617021277 0.3761841038874727 0.4295871086714522
0.3417021276595745 0.36957896909978805 0.44538728645779224
0.34191489361702126 0.35781177674553105 0.463316959676345
0.34212765957446806 0.3531998045920859 0.48206080992794825
0.3423404255319149 0.3432227267934291 0.4969899670752714
0.3425531914893617 0.3385442110405472 0.5057025408181836
0.3427659574468085 0.3301635281771809 0.5113814579698251
0.34297872340425534 0.32370364019071257 0.5108200002873255
0.34319148936170213 0.31943465052094916 0.5096339435291136
0.3434042553191489 0.317160993551202 0.5113685618957936
0.34361702127659577 0.3131564215073954 0.5046676067146396
0.34382978723404256 0.3142727440306667 0.5065950170981925
0.34404255319148935 0.31704934049829014 0.5068059277433219
0.34425531914893615 0.3172084287613206 0.5082309197123367
0.344468085106383 0.31866772986993963 0.5076639334341041
0.3446808510638298 0.3214997407871634 0.5122935779613998
0.3448936170212766 0.3242146078330754 0.5160401210517253
0.3451063829787234 0.32834283167674727 0.5291966521128284
0.3453191489361702 0.334777792853795 0.5453390179702042
0.345531914893617 0.34434235662015994 0.546849212249104
0.3457446808510638 0.35390692038652494 0.5483594065280037
0.34595744680851065 0.3634714841528924 0.5498696008069038
0.34617021276595744 0.37995207893134525 0.5487007699393136
0.34638297872340423 0.40571492619907495 0.5348891679747705
0.3465957446808511 0.43483359887308654 0.512039041454132
0.3468085106382979 0.459185186236195 0.5067316442083264
0.34702127659574467 0.48353677359930336 0.5014242469625207
0.3472340425531915 0.5064411817385048 0.4953896444706671
0.3474468085106383 0.5199407454345031 0.48462912268400177
0.3476595744680851 0.5334403091305013 0.47386860089733646
0.3478723404255319 0.5469398728264996 0.4631080791106712
0.34808510638297874 0.5604394365225013 0.45234755732400306
0.34829787234042553 0.5716549172503758 0.4430300520351398
0.3485106382978723 0.5687736699261342 0.44261844527453387
0.34872340425531917 0.5658924226018919 0.44220683851392784
0.34893617021276596 0.5626674744336018 0.44211040547142155
0.34914893617021275 0.5603321934538348 0.4407437590841095
0.34936170212765955 0.5603321934538348 0.43616901909858763
0.3495744680851064 0.5585063403223696 0.4348146651978371
0.3497872340425532 0.5562855063153875 0.43401703119452706
0.35 0.5546241481791037 0.4306943149219591
0.3502127659574468 0.5544699560332194 0.42700903139472496
0.3504255319148936 0.5544699560332194 0.42412346122989086
0.3506382978723404 0.5567430159920145 0.42430434029240416
0.35085106382978726 0.5566429570179967 0.4230074577585142
0.35106382978723405 0.555640147332734 0.4186501748659174
0.35127659574468084 0.5538224048166871 0.4152475300389046
0.35148936170212763 0.5526296028307136 0.4052568475521154
0.3517021276595745 0.5534119555450443 0.3941489970650894
0.3519148936170213 0.5544550931466066 0.3855610134983742
0.35212765957446807 0.5535484066930593 0.3847980122150232
0.3523404255319149 0.5542711587519223 0.3911224973811723
0.3525531914893617 0.5525158768930141 0.39972368590116064
0.3527659574468085 0.5514007421908604 0.41036731686256894
0.3529787234042553 0.5479141689762617 0.41922843565648055
0.35319148936170214 0.5459145990090554 0.42095217487960823
0.35340425531914893 0.540791402051783 0.4187668447443939
0.3536170212765957 0.5374579876310502 0.41475329750854906
0.35382978723404257 0.5308637244918533 0.4145470572487297
0.35404255319148936 0.5265352281388959 0.4137600579118284
0.35425531914893615 0.5222067317859386 0.4129730585749271
0.354468085106383 0.5205678000168691 0.4155304608997927
0.3546808510638298 0.5189178739891375 0.41670737664875435
0.3548936170212766 0.5154192444679985 0.4174324385166106
0.3551063829787234 0.5096596106664366 0.41372464705837647
0.3553191489361702 0.5042249935449161 0.410204756752255
0.355531914893617 0.5008968596877527 0.39695525239075324
0.3557446808510638 0.5007267108349078 0.38739338854136773
0.35595744680851066 0.48690461111108063 0.3818156156638518
0.35617021276595745 0.4700920194559194 0.3873642876460402
0.35638297872340424 0.4527253602447205 0.402314673572422
0.35659574468085103 0.43674714684789895 0.42044913036139253
0.3568085106382979 0.4226878227290261 0.4405434442876607
0.3570212765957447 0.4089839172869171 0.45727291420460986
0.35723404255319147 0.4000662666995275 0.4706099091796982
0.3574468085106383 0.3917495573799548 0.47988104154002165
0.3576595744680851 0.38471479177168194 0.4826991677867312
0.3578723404255319 0.37970500621861886 0.4780538995561325
0.35808510638297875 0.37658063695590244 0.4671047303822147
0.35829787234042554 0.3762601620963292 0.45105914381956624
0.35851063829787233 0.38052345707396534 0.4292114572138607
0.3587234042553191 0.38748230430986913 0.40880919920431036
0.35893617021276597 0.3939929094138345 0.39317303387219743
0.35914893617021276 0.3952125061064973 0.386965772965939
0.35936170212765955 0.39612298065700097 0.38095630267255143
0.3595744680851064 0.3971530086642971 0.38650060947000675
0.3597872340425532 0.39513492113171583 0.3992298144637456
0.36 0.39365183605677145 0.4140107930968285
0.3602127659574468 0.3898934880401068 0.42842996332122896
0.3604255319148936 0.38721196425821003 0.4378839744102338
0.3606382978723404 0.38339036032063256 0.4472886161558356
0.3608510638297872 0.37984750890070523 0.4553875055790839
0.36106382978723406 0.3771328056243538 0.46808685434880687
0.36127659574468085 0.3743972220343916 0.4823497775354667
0.36148936170212764 0.3702145767287719 0.49112922465676956
0.3617021276595745 0.3634144327666864 0.5067612644360809
0.3619148936170213 0.3581067916222533 0.5160939164321245
0.3621276595744681 0.348376269643808 0.5205176135433893
0.36234042553191487 0.3386749715569412 0.5280822160225548
0.3625531914893617 0.3329637172965207 0.532749690549691
0.3627659574468085 0.326801178236045 0.5368832437713726
0.3629787234042553 0.3241112693519618 0.5368090264837215
0.36319148936170215 0.3261028398909466 0.5350459286312267
0.36340425531914894 0.32107092890141575 0.5289644549714205
0.36361702127659573 0.3185955549455129 0.5240204191759013
0.3638297872340425 0.31998045920859797 0.5210686211354327
0.36404255319148937 0.31998045920859797 0.520529413396668
0.36425531914893616 0.3229380462367717 0.5232311581078025
0.36446808510638296 0.3258426966292134 0.5339672282302473
0.3646808510638298 0.3293164895984606 0.5410315543774628
0.3648936170212766 0.33806121663537214 0.5342574700530947
0.3651063829787234 0.34680594367228373 0.5274833857287264
0.36531914893617023 0.35555067070919755 0.5207093014043566
0.365531914893617 0.36429539774610914 0.5139352170799885
0.3657446808510638 0.3730401247830207 0.5071611327556204
0.3659574468085106 0.38178485181993227 0.5003870484312523
0.36617021276595746 0.3905295788568461 0.4936129641068824
0.36638297872340425 0.4080320416019123 0.4776926391368723
0.36659574468085104 0.43563146661518104 0.4512274370693544
0.3668085106382979 0.46323089162845693 0.4247622350018296
0.3670212765957447 0.48405037804950674 0.4147961033580205
0.3672340425531915 0.5039473659098069 0.4070748841883517
0.36744680851063827 0.5238443537701071 0.39935366501868297
0.3676595744680851 0.5368236079728663 0.3961895456765998
0.3678723404255319 0.5449996900491948 0.3961895456765998
0.3680851063829787 0.5531757721255233 0.3961895456765998
0.36829787234042555 0.561351854201854 0.3961895456765998
0.36851063829787234 0.5689723548307081 0.3957969841193461
0.36872340425531913 0.5658595956285611 0.3878205386638448
0.368936170212766 0.5627468364264135 0.3798440932083414
0.36914893617021277 0.5596340772242666 0.3718676477528401
0.36936170212765956 0.5565213180221198 0.36389120229733873
0.36957446808510636 0.5534929164631168 0.3561309233023937
0.3697872340425532 0.5534929164631168 0.3561309233023937
0.37 0.5534929164631168 0.3561309233023937
0.3702127659574468 0.5545808576530656 0.35740018802400075
0.37042553191489364 0.5571349734225419 0.36037998975505636
0.3706382978723404 0.5590332717781287 0.36393584660992256
0.3708510638297872 0.5565713453467613 0.37132162590402473
0.371063829787234 0.5546066098502136 0.3815858383098314
0.37127659574468086 0.5530598066524638 0.3942696245313795
0.37148936170212765 0.5515130034547144 0.40695341075292435
0.37170212765957444 0.5530801183663792 0.41727161812211927
0.3719148936170213 0.5596203513344681 0.42381185109020814
0.3721276595744681 0.5575770847052567 0.4323642572107594
0.3723404255319149 0.5532374179185631 0.43871324428011865
0.3725531914893617 0.5518602860977265 0.4467122342840927
0.3727659574468085 0.5529042154189104 0.44992672203224227
0.3729787234042553 0.5498887653609744 0.45064755225267067
0.3731914893617021 0.5455227827142092 0.44704759172935166
0.37340425531914895 0.5438858029843918 0.4338122035348082
0.37361702127659574 0.538519707923319 0.4172410496379127
0.37382978723404253 0.5331624477505494 0.40014851189754497
0.3740425531914894 0.5272983841460182 0.3907066069392846
0.37425531914893617 0.5202885166086606 0.3818323219681312
0.37446808510638296 0.5184096428957728 0.38144380116871196
0.37468085106382976 0.5145570359908184 0.38341518009936365
0.3748936170212766 0.5124088654930241 0.3954544512354167
0.3751063829787234 0.5093329918530622 0.41083381943522596
0.3753191489361702 0.506054785104563 0.42571220359555983
0.37553191489361704 0.5007566587209912 0.4368597293585171
0.37574468085106383 0.4947767104582393 0.446540744098084
0.3759574468085106 0.48719322212323746 0.45322693040577383
0.37617021276595747 0.4717256864074161 0.4597085456282127
0.37638297872340426 0.4549414864637708 0.46899895765764366
0.37659574468085105 0.43862122241068474 0.4817500526259542
0.37680851063829784 0.42516781852029184 0.5003869896205425
0.3770212765957447 0.4135415419044481 0.5201035944835752
0.3772340425531915 0.4030608994894401 0.537372816049741
0.3774468085106383 0.3952759812076484 0.5479415281677824
0.3776595744680851 0.38688154104893574 0.5529617294626995
0.3778723404255319 0.38657708596622836 0.552616523212642
0.3780851063829787 0.3823436069268118 0.5515388373229115
0.37829787234042556 0.37957987298485585 0.550095946352427
0.37851063829787235 0.3818881431895444 0.5441987943717665
0.37872340425531914 0.38663830807024835 0.5377927015418865
0.37893617021276593 0.3935817932293768 0.5351159284331727
0.3791489361702128 0.39799581580991306 0.5386895139046859
0.3793617021276596 0.4020930672244425 0.5349291646311676
0.37957446808510636 0.40384580726215197 0.534208917242459
0.3797872340425532 0.40099272491488636 0.5244148389539596
0.38 0.39423546653639474 0.5097232340938141
0.3802127659574468 0.3937553837041774 0.4902928814452287
0.3804255319148936 0.3919904361555622 0.4763283967290478
0.38063829787234044 0.38927449037397815 0.46540779853007647
0.38085106382978723 0.3839120936571584 0.4531529883481237
0.381063829787234 0.3804252816850053 0.4426925524316644
0.38127659574468087 0.37737103753089807 0.43352981996934287
0.38148936170212766 0.3740066154420626 0.42618879247195796
0.38170212765957445 0.3710274960394766 0.4288333389724719
0.3819148936170213 0.3624937394006593 0.4334881153209176
0.3821276595744681 0.35600512812884805 0.4359644199186205
0.3823404255319149 0.34632024638252984 0.44154835046066276
0.3825531914893617 0.3398073223783317 0.4467572101821995
0.3827659574468085 0.33463967590572397 0.4528534929678456
0.3829787234042553 0.3276385302962287 0.46001360867964824
0.3831914893617021 0.32453939744610366 0.4659943679712266
0.38340425531914896 0.32161178818798686 0.47011301375592646
0.38361702127659575 0.32019273460242076 0.4727388455332359
0.38382978723404254 0.3196288337958135 0.4701788200078192
0.38404255319148933 0.3160723009281876 0.46978810728703735
0.3842553191489362 0.3168200604670542 0.4704445530043966
0.384468085106383 0.31845365158991407 0.46659910931070475
0.38468085106382977 0.32045333373924956 0.45971797807246767
0.3848936170212766 0.3246355114481663 0.45180089777446386
0.3851063829787234 0.32860427266670583 0.44461622136541473
0.3853191489361702 0.33430476659309466 0.4417863274176753
0.38553191489361704 0.34081376023926535 0.44324518007078073
0.38574468085106384 0.3484308926123362 0.44705374625731614
0.38595744680851063 0.3581906789085886 0.4558946359188475
0.3861702127659574 0.3744332642355779 0.4619766217262317
0.38638297872340427 0.39290557970743545 0.46443455038056347
0.38659574468085106 0.42195692238105775 0.4636264033132756
0.38680851063829785 0.44974074298444394 0.45944397836613093
0.3870212765957447 0.4752295805304247 0.45143939431156177
0.3872340425531915 0.49693688609776193 0.4467057572828008
0.3874468085106383 0.5185075527308279 0.444456350028613
0.3876595744680851 0.5363936748214725 0.4416222354079866
0.3878723404255319 0.5443933741347438 0.4407566550117099
0.3880851063829787 0.5557242072107077 0.4403279997393696
0.3882978723404255 0.5625321397154267 0.43477939423793016
0.38851063829787236 0.5644711934822229 0.42720781873669567
0.38872340425531915 0.5649913153794737 0.41784562458618113
0.38893617021276594 0.5632085728542034 0.40624318875040466
0.3891489361702128 0.5603913940392538 0.3972849864175401
0.3893617021276596 0.5583797025338252 0.39374932908163657
0.3895744680851064 0.5584742326934763 0.3917448084212149
0.38978723404255317 0.5581783950346514 0.39012758897700606
0.39 0.558683568164917 0.3848615417110171
0.3902127659574468 0.562118917731108 0.38043816880963177
0.3904255319148936 0.5617750759988354 0.3788357549022022
0.39063829787234045 0.5629103749892912 0.37940340439743014
0.39085106382978724 0.5598364791891672 0.37957987298485585
0.39106382978723403 0.5593551538837322 0.39052304531407167
0.3912765957446808 0.5603250594334539 0.4000334977735825
0.39148936170212767 0.5590843142787978 0.41741155962158405
0.39170212765957446 0.5552416459508176 0.43106251231208415
0.39191489361702125 0.5609856024367702 0.4448735610795452
0.3921276595744681 0.5588101898791402 0.4498579558031265
0.3923404255319149 0.5561213327134905 0.45302767375282876
0.3925531914893617 0.5542162903762708 0.4479475608535762
0.39276595744680853 0.5524093248566456 0.4427677889324184
0.3929787234042553 0.5505133412975229 0.43502884620427335
0.3931914893617021 0.5484855308053693 0.42214172530016203
0.3934042553191489 0.5435002969964572 0.40805962756457004
0.39361702127659576 0.5395154241513357 0.39920088896597583
0.39382978723404255 0.5340542655812367 0.39716658524670256
0.39404255319148934 0.5283151338242582 0.40821532153650725
0.3942553191489362 0.5231422716441462 0.4261162539325641
0.394468085106383 0.5188644503766484 0.44370249039362664
0.3946808510638298 0.5165227651832799 0.46398583131326837
0.39489361702127657 0.5106361650417333 0.47701785066885416
0.3951063829787234 0.51035807729663 0.491252580140497
0.3953191489361702 0.5064135710503767 0.5000488228720832
0.395531914893617 0.5036168330538201 0.5123109538182127
0.39574468085106385 0.497394709207955 0.5118871667080196
0.39595744680851064 0.49168158383776017 0.5134342940889105
0.39617021276595743 0.47485396323421153 0.5124882378292851
0.3963829787234043 0.456215419803201 0.506808247273364
0.39659574468085107 0.4380828705782915 0.4960329400799563
0.39680851063829786 0.42210242820096994 0.48257378960135633
0.39702127659574465 0.40895630293359514 0.4660062766341857
0.3972340425531915 0.3998199046440893 0.4506259622894239
0.3974468085106383 0.3884400262196532 0.4416552842383073
0.3976595744680851 0.38105013717347747 0.43527865621425166
0.39787234042553193 0.3756980569576304 0.4265216761050883
0.3980851063829787 0.37274059599413767 0.41790863861262706
0.3982978723404255 0.37274059599413767 0.40608293347094504
0.3985106382978723 0.3765271239106081 0.3887381202075992
0.39872340425531916 0.38614308726416013 0.3557773644109033
0.39893617021276595 0.39378456303168186 0.3126273389829287
0.39914893617021274 0.39679160761402227 0.2731803690575408
0.3993617021276596 0.4030794704790372 0.2577963039496202
0.3995744680851064 0.40311465339771013 0.2716234374270076
0.3997872340425532 0.4001800676993866 0.2996709395443663
0.4 0.398054421476506 0.3367430013073614
0.4002127659574468 0.3947911192723474 0.3760274133005067
0.4004255319148936 0.3898990103262356 0.4162702463382901
0.4006382978723404 0.3865993297780121 0.4547459509171852
0.40085106382978725 0.38299762925471026 0.4929616365288686
0.40106382978723404 0.38062873734831815 0.5320124850063356
0.40127659574468083 0.3772256166954901 0.5467593411685904
0.4014893617021277 0.37517294379876676 0.5659621891050856
0.40170212765957447 0.37102662555775323 0.5815869552922712
0.40191489361702126 0.3622498725088998 0.5893678592971646
0.40212765957446805 0.35306328282777777 0.5973160462801099
0.4023404255319149 0.3489337995667529 0.606281209162395
0.4025531914893617 0.3455474873881523 0.6170453578871186
0.4027659574468085 0.3396932993338422 0.626872294378679
0.40297872340425533 0.33508797881183494 0.6351269517933773
0.4031914893617021 0.3310530445280635 0.642296193609734
0.4034042553191489 0.3279669954380676 0.6459292558766121
0.40361702127659577 0.3242269296935027 0.6502008853815828
0.40382978723404256 0.3229115779189058 0.6475189388117621
0.40404255319148935 0.32170144959561636 0.632628288658222
0.40425531914893614 0.32374457995899386 0.6075369017627866
0.404468085106383 0.32475498779472267 0.5803883635590453
0.4046808510638298 0.3255478197366801 0.5536396619398221
0.4048936170212766 0.3291819763577446 0.521098840235637
0.4051063829787234 0.33456823922251105 0.48901039041150274
0.4053191489361702 0.3372811830233075 0.4633437333071106
0.405531914893617 0.34346708242283625 0.44054124390388294
0.4057446808510638 0.3499972138480227 0.41758517951646673
0.40595744680851065 0.3618684489665945 0.3989079645414106
0.40617021276595744 0.3724546351629968 0.3851299317868828
0.40638297872340423 0.39270222247008535 0.37987191947367666
0.4065957446808511 0.42082328559283205 0.3767311780859518
0.40680851063829787 0.44952640994411314 0.38488450900407667
0.40702127659574466 0.47237365032321565 0.4012106447178673
0.4072340425531915 0.4974509618340185 0.41509687893861075
0.4074468085106383 0.5122057873162413 0.4175169379996231
0.4076595744680851 0.5284636748337961 0.4175886848897289
0.4078723404255319 0.5422345651302791 0.414699484010368
0.40808510638297874 0.5508283877430898 0.3968999952564215
0.4082978723404255 0.5576609503766037 0.39412634970725763
0.4085106382978723 0.5617337822000044 0.4022611753595047
0.40872340425531917 0.5618085387701902 0.41032426155948337
0.40893617021276596 0.5591831263052374 0.4112906521185662
0.40914893617021275 0.5562238391377341 0.40731343241075985
0.40936170212765954 0.552222588891914 0.4043380204652416
0.4095744680851064 0.5499403512249675 0.40338441570957906
0.4097872340425532 0.5526613095835214 0.40487475350780705
0.41 0.5551298573279101 0.40793964526169824
0.4102127659574468 0.5540220873924263 0.411740876509725
0.4104255319148936 0.5565532396001841 0.4181547838582116
0.4106382978723404 0.5533185350111445 0.42208801919849154
0.41085106382978726 0.55166430416921 0.4293821958598028
0.41106382978723405 0.5524397685944165 0.4339896557162103
0.41127659574468084 0.5525158768930141 0.44192162988883804
0.41148936170212763 0.5497850661894923 0.444207561759331
0.4117021276595745 0.5559363728244012 0.44919351363665133
0.41191489361702127 0.550694159328476 0.45214552432378147
0.41212765957446806 0.5517269928169979 0.4530822583363073
0.4123404255319149 0.5532529759004067 0.44624122699527935
0.4125531914893617 0.5545489134151406 0.4298826353516154
0.4127659574468085 0.5518070639291899 0.41201391250826275
0.4129787234042553 0.5517932933274449 0.3963048037489148
0.41319148936170214 0.549749154257068 0.3850974371854865
0.41340425531914893 0.5441043599224458 0.3783894721653604
0.4136170212765957 0.5399041146787362 0.3745351680991447
0.41382978723404257 0.5372588133737194 0.3755220454675079
0.41404255319148936 0.5300036687870044 0.3791504179052274
0.41425531914893615 0.5234628065033018 0.3852346660496078
0.414468085106383 0.5200749547699574 0.3888313198455943
0.4146808510638298 0.515474181201179 0.38935026868588185
0.4148936170212766 0.5135941960113303 0.3877159933905161
0.4151063829787234 0.5064676588683541 0.38652536014310707
0.4153191489361702 0.5028538188081808 0.3836549912556648
0.415531914893617 0.4997741955651847 0.38542980676699795
0.4157446808510638 0.49271349051544105 0.38579731245777293
0.41595744680851066 0.48750866084364053 0.3932454442486429
0.41617021276595745 0.47282199733221636 0.4020151510981229
0.41638297872340424 0.4553448448816236 0.41128925379937303
0.4165957446808511 0.43612822656302164 0.4307601271344825
0.4168085106382979 0.42284036759232235 0.44569365952428885
0.41702127659574467 0.4081209004482857 0.46637993321470894
0.41723404255319146 0.39717523524678017 0.49121188099631385
0.4174468085106383 0.38901059624589035 0.5159684865457252
0.4176595744680851 0.3854999446886421 0.5348165676867261
0.4178723404255319 0.38177833208064366 0.5451592306587763
0.41808510638297874 0.37330719287387826 0.5531320675592615
0.41829787234042554 0.3713909872203534 0.5522066753426953
0.41851063829787233 0.3757774597983239 0.5435462789389601
0.4187234042553191 0.38245642817184816 0.5294785927872049
0.41893617021276597 0.3896537853227802 0.5107959611585672
0.41914893617021276 0.39556075226425164 0.49382580378369845
0.41936170212765955 0.39716658524670256 0.48544885723204567
0.4195744680851064 0.3987008565165852 0.47952029317618455
0.4197872340425532 0.39830370582291974 0.47254215961730206
0.42 0.39640008520930275 0.47316513218200146
0.42021276595744683 0.3961895456765998 0.47611231567910917
0.4204255319148936 0.3922525833212937 0.48024375278031833
0.4206382978723404 0.3889506478181457 0.47570002159032904
0.4208510638297872 0.3900456169019554 0.47268032349863087
0.42106382978723406 0.3867494489891843 0.46345398397760146
0.42127659574468085 0.38831193933560837 0.46262823644357587
0.42148936170212764 0.38537307363207246 0.45962808095986923
0.4217021276595745 0.380913390733543 0.455416622617947
0.4219148936170213 0.37095109823833755 0.44946246021184366
0.4221276595744681 0.3630344630375331 0.44567496077078034
0.42234042553191486 0.353049357993971 0.4454174680134879
0.4225531914893617 0.3470209629049312 0.4502105574580853
0.4227659574468085 0.34011620807512494 0.4546413462106019
0.4229787234042553 0.33440586650604487 0.4604657075118235
0.42319148936170214 0.3279626680184387 0.4582730314403693
0.42340425531914894 0.32534389030988337 0.4547502006770829
0.42361702127659573 0.3237659029259612 0.44913141583957317
0.4238297872340426 0.3223119281852353 0.44519665412092335
0.42404255319148937 0.32258444410897125 0.440165050050618
0.42425531914893616 0.3222065971341475 0.43467734326722035
0.42446808510638295 0.3257548225537979 0.42873270829450455
0.4246808510638298 0.32681973619931615 0.4185283325703435
0.4248936170212766 0.32768587584838654 0.4106443991052613
0.4251063829787234 0.3296481392473859 0.3996856005292158
0.42531914893617023 0.3395328247678379 0.39422775043160263
0.425531914893617 0.3457504744335849 0.3903797348848872
0.4257446808510638 0.35245446222106636 0.3914201964256284
0.4259574468085106 0.35965438170195874 0.3943277829634159
0.42617021276595746 0.3767664445703383 0.39417662138849957
0.42638297872340425 0.3933174680377328 0.386851924832101
0.42659574468085104 0.4209515827209639 0.3800620625699572
0.4268085106382979 0.4488209003934821 0.37890785591121057
0.4270212765957447 0.471963295034081 0.38176022577278695
0.4272340425531915 0.4949329008703432 0.39218932163922776
0.4274468085106383 0.5161859168471825 0.40587019340160785
0.4276595744680851 0.5313559726626255 0.4176313526392343
0.4278723404255319 0.5426682901306195 0.4280547109257052
0.4280851063829787 0.550708374570983 0.4375183612572567
0.42829787234042555 0.5611434669154647 0.4484336343818541
0.42851063829787234 0.5652173913043479 0.49884519280650225
0.42872340425531913 0.5643310863590828 0.5153806295267016
0.428936170212766 0.5631354004321121 0.5140520896078453
0.42914893617021277 0.5619397145051417 0.5127235496889894
0.42936170212765956 0.5607440285781714 0.5113950097701334
0.42957446808510635 0.559548342651201 0.5100664698512776
0.4297872340425532 0.5583526567242303 0.5087379299324213
0.43 0.55715697079726 0.5074093900135653
0.4302127659574468 0.5577028834597478 0.5046767446687075
0.43042553191489363 0.5608624095529029 0.5014397344763344
0.4306382978723404 0.5628450490687947 0.5049894905374438
0.4308510638297872 0.5574488856990689 0.5097651905862086
0.43106382978723407 0.5593460892464709 0.5193327900585718
0.43127659574468086 0.5584074781969592 0.5230872342566184
0.43148936170212765 0.5592822910340206 0.5259172199511093
0.43170212765957444 0.5575935418588224 0.5208509724255144
0.4319148936170213 0.5568277225218974 0.5093798788686653
0.4321276595744681 0.5564240351734244 0.49888645283063027
0.4323404255319149 0.5554786555419361 0.4939895967524997
0.4325531914893617 0.5512643084038533 0.4987734502605937
0.4327659574468085 0.5470499612657715 0.5035573037686865
0.4329787234042553 0.5428356141276899 0.5083411572767793
0.4331914893617021 0.5386212669896082 0.513125010784872
0.43340425531914895 0.5344069198515253 0.517908864292966
0.43361702127659574 0.5301925727134437 0.5226927178010587
0.43382978723404253 0.525978225575362 0.5274765713091516
0.4340425531914894 0.5217638784372791 0.5322604248172456
0.43425531914893617 0.5193739050892121 0.5362012900371066
0.43446808510638296 0.5179820367254757 0.5396809609464475
0.4346808510638298 0.5165901683617389 0.5431606318557893
0.4348936170212766 0.5136605108366482 0.5403413933088782
0.4351063829787234 0.512457254518808 0.5328446144552679
0.4353191489361702 0.5094308324401887 0.5187770921432464
0.43553191489361703 0.5056979123812795 0.48871809354994483
0.4357446808510638 0.5003780611209246 0.446098595400766
0.4359574468085106 0.4947822300908676 0.4060880630046139
0.43617021276595747 0.4812692267501246 0.3794694273928948
0.43638297872340426 0.46454884380570494 0.36443120075945296
0.43659574468085105 0.4492690664647401 0.3534297610739581
0.43680851063829784 0.4364241974693405 0.3496210945941433
0.4370212765957447 0.42233439157904973 0.34584184980456784
0.4372340425531915 0.41006860327352546 0.3429495807261178
0.4374468085106383 0.40240535036557246 0.3416654164420634
0.4376595744680851 0.39697748061872407 0.3419874876144035
0.4378723404255319 0.39192890077447534 0.3442250709100467
0.4380851063829787 0.387061511301075 0.35113884931774225
0.43829787234042555 0.38258623014050147 0.36330877329713207
0.43851063829787235 0.3862889644292572 0.3799710775965326
0.43872340425531914 0.39293660279965137 0.39266075351395924
0.43893617021276593 0.40009770395701016 0.40695944693675024
0.4391489361702128 0.4003072426270036 0.40983816556232283
0.43936170212765957 0.40678806242660653 0.4085187637851291
0.43957446808510636 0.40474154428525844 0.4032817896706261
0.4397872340425532 0.4026935134622817 0.39730535180421445
0.44 0.40045064840820616 0.3924263001410832
0.4402127659574468 0.3971213533340477 0.38909470081519243
