0.0 0.4811919882755251 0.4079140205178309
0.0002127659574468085 0.47525727911864873 0.4090776889799635
0.000425531914893617 0.4693225699617723 0.41024135744209617
0.0006382978723404255 0.4633878608048959 0.4114050259042288
0.000851063829787234 0.45745315164801953 0.41256869436636145
0.0010638297872340426 0.4515184424911431 0.41373236282849407
0.001276595744680851 0.4455837333342667 0.41489603129062674
0.0014893617021276596 0.43964902417739027 0.41605969975275936
0.001702127659574468 0.4337143150205139 0.417223368214892
0.0019148936170212765 0.4235575593047534 0.42332165742119104
0.002127659574468085 0.41042379013987257 0.43248122300429925
0.002340425531914894 0.3972584476017622 0.4410415035462594
0.002553191489361702 0.3891066387731451 0.44919331237487625
0.0027659574468085106 0.37861633583353066 0.4569821218645998
0.0029787234042553193 0.3711565685396864 0.46279296100359263
0.0031914893617021275 0.36614228799119014 0.4678245182430674
0.003404255319148936 0.36273593989944536 0.47372706230520417
0.003617021276595745 0.35906204201270153 0.47923790913532005
0.003829787234042553 0.35906204201270153 0.47923790913532005
0.004042553191489362 0.36117554760038567 0.4771244035476359
0.00425531914893617 0.36307515825352943 0.47522479289449204
0.004468085106382979 0.36311998152727487 0.4735254529488674
0.004680851063829788 0.36264539878213997 0.4691374418489485
0.004893617021276595 0.36274425786017855 0.46172599994129904
0.005106382978723404 0.35949318168753075 0.45887826789035824
0.005319148936170213 0.3563143285181888 0.4570189524407333
0.005531914893617021 0.3503974001119499 0.457743038593063
0.00574468085106383 0.3445138555213538 0.457743038593063
0.005957446808510639 0.33838713720384855 0.45403122260852596
0.006170212765957446 0.33463605276013686 0.4587200781631655
0.006382978723404255 0.33494196614954297 0.45887303485786857
0.006595744680851064 0.3370273324728444 0.4603529185920219
0.006808510638297872 0.33911861677690475 0.463777047916291
0.007021276595744681 0.34014219527356304 0.4679607743527432
0.00723404255319149 0.34078409143540983 0.4733911815955034
0.007446808510638298 0.34146929869003606 0.48121611251880064
0.007659574468085106 0.336571903451512 0.49014835806495866
0.007872340425531916 0.32488447643335505 0.5020412868180608
0.008085106382978723 0.31095261095642535 0.5149284154848135
0.008297872340425531 0.2965929123260314 0.5244257962086996
0.00851063829787234 0.2878658357488322 0.5236781420429604
0.008723404255319148 0.2841168373409706 0.519678987811084
0.008936170212765958 0.2856951079803868 0.5099709671816026
0.009148936170212766 0.2927075881456377 0.5024762665680016
0.009361702127659575 0.29723875601583566 0.49227351176248363
0.009574468085106383 0.3056556316652582 0.48462180662664506
0.00978723404255319 0.3147213789551733 0.4814921931584172
0.01 0.3250199399476882 0.4794024604716251
0.010212765957446808 0.33638684857764767 0.47540367206316214
0.010425531914893617 0.35503481536735065 0.4691647000677663
0.010638297872340425 0.37123154448344975 0.4633191868232747
0.010851063829787235 0.38581851962054875 0.45388142384294394
0.011063829787234043 0.4019020843404683 0.4434630244838075
0.01127659574468085 0.4152731954121778 0.4386465065626192
0.01148936170212766 0.4317243923375314 0.43417096542402805
0.011702127659574468 0.44702698631390075 0.43559262393847553
0.011914893617021277 0.46252079049579914 0.4349711232015231
0.012127659574468085 0.48060881763617846 0.4345259904504551
0.012340425531914893 0.5000169379798562 0.42910696772392554
0.012553191489361702 0.517840955586593 0.42225687170734977
0.01276595744680851 0.5349078963477036 0.4141923301801419
0.01297872340425532 0.5492313400266116 0.4049309450306977
0.013191489361702127 0.5632270192517549 0.3959337226716771
0.013404255319148937 0.5775915360029806 0.3872340889293261
0.013617021276595745 0.5909528213232463 0.38125695112820174
0.013829787234042552 0.6029327099521465 0.3720574639159853
0.014042553191489362 0.6114896926633305 0.37726589206556177
0.01425531914893617 0.620312613388194 0.3904442388104852
0.01446808510638298 0.6229147377591608 0.4043151369033966
0.014680851063829787 0.6264314244888305 0.41173949954656375
0.014893617021276596 0.6254438980487688 0.4227105296819217
0.015106382978723404 0.6205349664250667 0.4301562518103452
0.015319148936170212 0.6174608059175857 0.43431289050210126
0.015531914893617021 0.6176422731663413 0.43904838498624094
0.01574468085106383 0.6135592421237395 0.4445083279319774
0.015957446808510637 0.6081465380713347 0.44736167939032007
0.016170212765957447 0.6042583409247784 0.44945851883902743
0.016382978723404256 0.598441491220724 0.4474865003734298
0.016595744680851062 0.5938956755928818 0.4461045979407216
0.01680851063829787 0.591623313618076 0.4460185637518319
0.01702127659574468 0.5855027967446017 0.4417617671735709
0.01723404255319149 0.5819568494234995 0.4345609574945066
0.017446808510638297 0.5826586174994491 0.4223827651055106
0.017659574468085106 0.5818834087281306 0.4161810949349612
0.017872340425531916 0.5768175016279107 0.401536577035472
0.018085106382978722 0.5736387575994835 0.3851642505309502
0.01829787234042553 0.5696955431013001 0.373522356691777
0.01851063829787234 0.5664636280954667 0.3602618130750929
0.01872340425531915 0.5602809940548491 0.35566800321683534
0.018936170212765956 0.5519551259750067 0.3655052254027686
0.019148936170212766 0.5435372418016557 0.38585859488210306
0.019361702127659575 0.5329750434055811 0.4167075134262431
0.01957446808510638 0.5208473309069493 0.4527452859286292
0.01978723404255319 0.5066060606410351 0.4894650744357248
0.02 0.4918626010311953 0.5268458818000745
0.02021276595744681 0.47717826329515295 0.5446216590594942
0.020425531914893616 0.4628017892285609 0.5483776001415864
0.020638297872340425 0.45218078470624684 0.5419427343215171
0.020851063829787235 0.4440021684857607 0.5287857993592189
0.02106382978723404 0.4333488626842139 0.5158896923362939
0.02127659574468085 0.42368232797510197 0.5022607123564066
0.02148936170212766 0.4159420652291106 0.48661670664995915
0.02170212765957447 0.4092385858932723 0.46566833372546446
0.021914893617021276 0.3976066638791993 0.45069382794226215
0.022127659574468085 0.3858169111426657 0.444162312677247
0.022340425531914895 0.36945962171825614 0.4371807462848883
0.0225531914893617 0.36095372261890746 0.43460936901163516
0.02276595744680851 0.3546661022442985 0.43115413193317015
0.02297872340425532 0.3490789533427003 0.427522604052518
0.023191489361702126 0.3440922079643242 0.4258287005083509
0.023404255319148935 0.3450028396746166 0.42231264483760383
0.023617021276595745 0.34327947381259316 0.42123174568691957
0.023829787234042554 0.3432560252289299 0.41921831386183384
0.02404255319148936 0.3460801740623677 0.4176844162188569
0.02425531914893617 0.35512408230883785 0.4161271131913834
0.02446808510638298 0.3629873376745391 0.41972418226619823
0.024680851063829785 0.3653613827054132 0.42499507415697463
0.024893617021276595 0.3673337335661682 0.4255007327796776
0.025106382978723404 0.3683148742518876 0.4333118266201459
0.025319148936170214 0.3683847904981285 0.4394245221778286
0.02553191489361702 0.3678553981436248 0.43694871026400806
0.02574468085106383 0.3672690168148919 0.4392284145162938
0.02595744680851064 0.36427567636371405 0.444466760305855
0.026170212765957445 0.361176302734205 0.4436560556172246
0.026382978723404255 0.3609456892968269 0.44716717975462683
0.026595744680851064 0.36018095796401467 0.45480046117305006
0.026808510638297874 0.35338796240631004 0.46574473179379633
0.02702127659574468 0.3465949668486055 0.4766890024145424
0.02723404255319149 0.3442792604858501 0.47868869300167216
0.0274468085106383 0.34409161977891567 0.47643700451845855
0.027659574468085105 0.3439039790719812 0.47418531603524505
0.027872340425531914 0.3437163383650468 0.4719336275520315
0.028085106382978724 0.3435286976581123 0.46968193906881794
0.028297872340425533 0.34456523198029654 0.4700995565739431
0.02851063829787234 0.3469774783633506 0.47351690561660303
0.02872340425531915 0.34938972474640473 0.47693425465926303
0.02893617021276596 0.3518019711294588 0.48035160370192304
0.029148936170212764 0.3542142175125129 0.483768952744583
0.029361702127659574 0.3618507151444884 0.4869603775037681
0.029574468085106383 0.37282085297118506 0.49000763801118385
0.029787234042553193 0.38379099079788176 0.4930548985185996
0.03 0.39426194825621375 0.49423592290208573
0.03021276595744681 0.40399701632678564 0.4926657506326386
0.030425531914893618 0.41373208439735754 0.4910955783631915
0.030638297872340424 0.4225481480895877 0.48930324564394617
0.030851063829787233 0.42914584936440586 0.48697464519401035
0.031063829787234043 0.43574355063922404 0.4846460447440746
0.03127659574468085 0.44008132319327353 0.48190168376288245
0.03148936170212766 0.4437645980582139 0.47903691442348434
0.03170212765957447 0.44906078275100714 0.4754584985956096
0.031914893617021274 0.45690046432454634 0.47075468965148604
0.03212765957446809 0.4647401458980859 0.46605088070736234
0.03234042553191489 0.4743665132925696 0.45966026649576924
0.0325531914893617 0.488766029736585 0.44876333513273065
0.03276595744680851 0.5031655461806008 0.4378664037696917
0.03297872340425532 0.5134356897550422 0.4275183661362737
0.033191489361702124 0.5225116841666093 0.4163494876746829
0.03340425531914894 0.532237289402027 0.3985192114097507
0.03361702127659574 0.5395301805676158 0.3961581090810635
0.033829787234042556 0.5461563104115594 0.39689149288891884
0.03404255319148936 0.5491909563353424 0.4095911522610253
0.03425531914893617 0.5408431952795885 0.42493803903201866
0.03446808510638298 0.5437062087242911 0.4482499475346317
0.03468085106382979 0.5428400858065896 0.4629740371355593
0.03489361702127659 0.5518684361547084 0.4728759110044356
0.035106382978723406 0.5428370123686936 0.47845113593650823
0.03531914893617021 0.540791402051783 0.48162628673213714
0.03553191489361702 0.5445858132728545 0.4768568521361279
0.03574468085106383 0.54629905819232 0.46972762624469355
0.03595744680851064 0.5454368662908509 0.46248048411882714
0.036170212765957444 0.5444130114003324 0.4552123950869168
0.036382978723404256 0.5473819242165223 0.4477594244697696
0.03659574468085106 0.5406938555490077 0.4419640857172586
0.03680851063829787 0.5388373229115779 0.4388611153845256
0.03702127659574468 0.5387423953767403 0.4311203776112635
0.03723404255319149 0.5369294448839826 0.4264872819075495
0.0374468085106383 0.5351164943912249 0.4218541862038353
0.03765957446808511 0.5333035438984672 0.41722109050012124
0.03787234042553191 0.5314905934057096 0.41258799479640723
0.038085106382978726 0.5299038284846987 0.41092306537929496
0.03829787234042553 0.5292102788279407 0.4209795354022861
0.03851063829787234 0.5285167291711826 0.4310360054252772
0.03872340425531915 0.5270326433125557 0.4444144690505855
0.03893617021276596 0.5242833778452871 0.46310947422801246
0.03914893617021276 0.5227345147212574 0.47984805437797906
0.039361702127659576 0.5225419270756746 0.4943852203882176
0.03957446808510638 0.5207949015462876 0.5041994068864734
0.03978723404255319 0.5136039275084603 0.5042723006105014
0.04 0.5102362685342239 0.49600578330254697
0.04021276595744681 0.5059970458281108 0.4777839051983615
0.04042553191489362 0.5030075326435841 0.4582127857622433
0.040638297872340426 0.499004220290071 0.4428621805187379
0.04085106382978723 0.49474658748958456 0.4243851398732854
0.041063829787234045 0.49268952568401675 0.4158317570103238
0.04127659574468085 0.4828185196790632 0.40886679729262493
0.04148936170212766 0.46774284149584455 0.40775008039016425
0.04170212765957447 0.45240912353191487 0.4083128363659533
0.041914893617021276 0.43588662272766754 0.4132402896946952
0.04212765957446808 0.4153722069088285 0.4174430796110361
0.042340425531914895 0.3946045150500188 0.4245722616919659
0.0425531914893617 0.3791618620176805 0.43453792864145313
0.04276595744680851 0.36771471896105107 0.4412974916143217
0.04297872340425532 0.36295870166697325 0.44684617845741265
0.043191489361702126 0.3566526982373215 0.45636479822668935
0.04340425531914894 0.35209658023305257 0.46101305578759455
0.043617021276595745 0.3534880585774032 0.46314608562382165
0.04382978723404255 0.35492143238411916 0.4606269231259563
0.044042553191489364 0.35951978022726017 0.45460357182247096
0.04425531914893617 0.359623041728889 0.45216130103054125
0.044468085106382976 0.361634876387917 0.45342450179757676
0.04468085106382979 0.3622463950673813 0.45679623881122716
0.044893617021276595 0.35784698574563545 0.4621272302674005
0.0451063829787234 0.3554265967132279 0.46696800833221547
0.045319148936170214 0.3487563483623866 0.4630843713456934
0.04553191489361702 0.342604298805947 0.4583655760315235
0.045744680851063826 0.343813453869346 0.4555442142169258
0.04595744680851064 0.345022608932745 0.452722852402328
0.046170212765957445 0.35037580577627003 0.44938464229994507
0.04638297872340425 0.3602269533398626 0.4460293043490637
0.046595744680851064 0.3756671922654825 0.4430883064584694
0.04680851063829787 0.38756086911539595 0.43799209315111687
0.047021276595744683 0.40783070800627674 0.4330251077753644
0.04723404255319149 0.4207743131803396 0.43316744093307913
0.047446808510638296 0.4322083998903234 0.44054613870621345
0.04765957446808511 0.43586033405993085 0.44367665062075157
0.047872340425531915 0.43624816805080613 0.44406448461162684
0.04808510638297872 0.4324177727618568 0.447894879900576
0.048297872340425534 0.420490876537611 0.45257371368303373
0.04851063829787234 0.41502970933835387 0.4538348803126526
0.048723404255319146 0.4078439484585009 0.45488175845617246
0.04893617021276596 0.3948652623946928 0.45717211482037395
0.049148936170212765 0.38188657633088496 0.45946247118457534
0.04936170212765957 0.3797246568010292 0.46094550136416207
0.049574468085106384 0.37879740420522273 0.46233638025787177
0.04978723404255319 0.3779004656731013 0.4682471783767921
0.05 0.37828088752853845 0.4724098340560598
0.05021276595744681 0.3811797053864011 0.4759525436863522
0.050425531914893615 0.3856672213151495 0.4753900922231232
0.05063829787234043 0.39381167428805725 0.47351590892710516
0.050851063829787234 0.40384990078055316 0.4722065750367797
0.05106382978723404 0.41336718208531503 0.47352104203086665
0.05127659574468085 0.4221045802538662 0.4787634809319973
0.05148936170212766 0.42982939291259575 0.4749092490024019
0.051702127659574465 0.44051293212875914 0.47931418183244784
0.05191489361702128 0.45009077097448524 0.4809019577300611
0.052127659574468084 0.4593263606417893 0.478738683650853
0.05234042553191489 0.4721990551818491 0.4750538213133992
0.0525531914893617 0.48801443114999743 0.46843993264322786
0.05276595744680851 0.5033291051080435 0.4606274718465377
0.05297872340425532 0.5149474324644877 0.4513132675739019
0.05319148936170213 0.5239826819017014 0.44250850038809714
0.053404255319148934 0.5319576817191504 0.4350369596386052
0.05361702127659575 0.5405515256073429 0.43365988987965126
0.05382978723404255 0.5444315118828217 0.4357120711520625
0.05404255319148936 0.548173320533849 0.4430600280812803
0.05425531914893617 0.5513954742408741 0.4492364086262145
0.05446808510638298 0.5502749039001302 0.4514775493077023
0.054680851063829784 0.548811653020479 0.45481191988275516
0.0548936170212766 0.5515315254878206 0.45481191988275516
0.0551063829787234 0.5556391876515644 0.45563198994848586
0.05531914893617021 0.5577648723673262 0.4497551920803
0.05553191489361702 0.5593181261830297 0.44652559738723446
0.05574468085106383 0.5619997781628606 0.4443509790428061
0.055957446808510634 0.5671574217305175 0.43920738418918465
0.05617021276595745 0.5649180834347899 0.4436860607806398
0.05638297872340425 0.5642403517342451 0.4510801106241735
0.056595744680851066 0.5644088687590278 0.45925969181610754
0.05680851063829787 0.5651398111932368 0.46583817372398634
0.05702127659574468 0.5620832406254478 0.46779005499554627
0.05723404255319149 0.5576111936761894 0.4704340451339383
0.0574468085106383 0.5528296642418857 0.4716512159395035
0.057659574468085104 0.5500927345273637 0.4645351986817466
0.05787234042553192 0.546663749494496 0.4570639289411707
0.05808510638297872 0.5424138507838394 0.4491712599070941
0.05829787234042553 0.5352681602654557 0.43757219272174913
0.05851063829787234 0.5255551511557024 0.42710515777370534
0.05872340425531915 0.5148633364936671 0.4173171047050283
0.058936170212765954 0.5066212063252328 0.40457926717199355
0.05914893617021277 0.49630608804439236 0.39433772581586707
0.05936170212765957 0.4857121301281504 0.388475226377815
0.059574468085106386 0.47706250744407525 0.3859459217515134
0.05978723404255319 0.47171632178045114 0.3848155112126688
0.06 0.4668258706614166 0.3879510572799349
0.06021276595744681 0.46220540605938437 0.39005498599286775
0.06042553191489362 0.45919222214324085 0.3952452577164496
0.06063829787234042 0.4536330441135264 0.40663272870804656
0.060851063829787236 0.45085562854654226 0.4160672684692692
0.06106382978723404 0.4497476974768825 0.4225338091582978
0.06127659574468085 0.4450010203080751 0.4216229524045079
0.06148936170212766 0.441133365901319 0.42452369320957506
0.06170212765957447 0.441133365901319 0.42452369320957506
0.06191489361702127 0.43649555343237756 0.42336424009233964
0.062127659574468086 0.42847920418959995 0.42377907535709436
0.06234042553191489 0.41793480972505437 0.42641517397323075
0.0625531914893617 0.4114989967932311 0.4326631917754059
0.0627659574468085 0.4051236477057831 0.43903854086285393
0.06297872340425532 0.39886784396747493 0.44437194960901066
0.06319148936170213 0.3931491554751196 0.44580162173209936
0.06340425531914894 0.39228138739618945 0.44802453697784134
0.06361702127659574 0.391379964774272 0.45165395032789213
0.06382978723404255 0.39179786002206013 0.454391762235305
0.06404255319148935 0.3968849612740343 0.452938304734741
0.06425531914893617 0.4054746949118335 0.44902332858941263
0.06446808510638298 0.4126446141320483 0.4448360920643695
0.06468085106382979 0.41819247359398437 0.4405210902606415
0.06489361702127659 0.4172857981632229 0.4442832992084262
0.0651063829787234 0.41267189505451873 0.4515673509439059
0.06531914893617022 0.40376853773758403 0.4605225154132168
0.06553191489361702 0.39216492612316445 0.4693251571556655
0.06574468085106383 0.3823714140860588 0.47789448018813285
0.06595744680851064 0.3719313103035755 0.483244764617426
0.06617021276595744 0.3624355137248751 0.4851001465559355
0.06638297872340425 0.35359596432225676 0.48550824093051204
0.06659574468085107 0.34836355547407305 0.48402520952083294
0.06680851063829787 0.34697248573302913 0.478566848631048
0.06702127659574468 0.33752853558008616 0.47181352263365434
0.06723404255319149 0.33438236340346444 0.4630601794437467
0.06744680851063829 0.33391261295244234 0.4559304807766751
0.06765957446808511 0.3330499872881668 0.4472929005469072
0.06787234042553192 0.3264489661438597 0.445546952791314
0.06808510638297872 0.31966120101796675 0.44690844892326653
0.06829787234042553 0.31681208245765086 0.4387242148804177
0.06851063829787234 0.3119175345006493 0.44923152034457164
0.06872340425531914 0.30526995046871774 0.4569856597763257
0.06893617021276596 0.30240427658577573 0.46844835530809353
0.06914893617021277 0.30046711308571206 0.47537091877365845
0.06936170212765957 0.3024876196064233 0.4782608695652173
0.06957446808510638 0.3091471915918917 0.4782608695652173
0.06978723404255319 0.31806457080751294 0.4751347478698363
0.06999999999999999 0.32850204135714145 0.47098748880258134
0.07021276595744681 0.34207112649788385 0.46946751343429405
0.07042553191489362 0.3540637544767416 0.4675511308559045
0.07063829787234042 0.3597374515796767 0.46344794513199206
0.07085106382978723 0.35977397481705137 0.4575335234892491
0.07106382978723404 0.36482266742822655 0.4491190358039571
0.07127659574468086 0.37072336845660653 0.44894968246213973
0.07148936170212766 0.38582809621788455 0.45160407882048426
0.07170212765957447 0.396596576036088 0.44636056927820067
0.07191489361702127 0.40784043089378946 0.4421371653347093
0.07212765957446808 0.42818299295211526 0.4432088085468962
0.07234042553191489 0.4477435444685138 0.4455526981851449
0.0725531914893617 0.4752725480929376 0.44252440857869
0.07276595744680851 0.49020281303180896 0.4524522611107543
0.07297872340425532 0.5077957647994534 0.4575664974904677
0.07319148936170213 0.525799361996283 0.4690923836823288
0.07340425531914893 0.5437773525797176 0.4757818685505835
0.07361702127659574 0.5617553431631523 0.4824713534188383
0.07382978723404256 0.5733185296379171 0.48689358983829223
0.07404255319148936 0.5827784527716177 0.4905724488347314
0.07425531914893617 0.5902294737514883 0.49506586709530914
0.07446808510638298 0.5960271981344079 0.49967493562599713
0.07468085106382978 0.5993241568426695 0.5053491192822831
0.0748936170212766 0.602161612921439 0.5119564694626827
0.07510638297872341 0.6062792088650727 0.5144113336590133
0.07531914893617021 0.6106235617199864 0.5144113336590133
0.07553191489361702 0.609627550943128 0.5091238831128682
0.07574468085106383 0.6091841719589643 0.49846148809219387
0.07595744680851063 0.6112254142322 0.4887468154372546
0.07617021276595745 0.6134825258535267 0.47582292224412903
0.07638297872340426 0.6154626451139992 0.466545129008673
0.07659574468085106 0.6146906230485588 0.4592510119792865
0.07680851063829787 0.615351861388572 0.4535597700752237
0.07702127659574468 0.6192080285002596 0.4506069693522166
0.0772340425531915 0.6169594325303736 0.44926851965393866
0.0774468085106383 0.6084291154792132 0.4429941179518098
0.07765957446808511 0.5996327299765407 0.4386172489579401
0.07787234042553191 0.5915235760091118 0.43271770402343807
0.07808510638297872 0.5820403954351117 0.42249739008657483
0.07829787234042553 0.5708600092300821 0.41453367801366786
0.07851063829787235 0.5630619739636571 0.40663497364700013
0.07872340425531915 0.5567205934025043 0.397122902805271
0.07893617021276596 0.5517624742759676 0.3884575503396808
0.07914893617021276 0.5450852415054951 0.3816017420407798
0.07936170212765957 0.5363409002289623 0.37666563127441394
0.07957446808510638 0.5270016255719148 0.37307360256016475
0.0797872340425532 0.5149808819761049 0.37274059599413767
0.08 0.5008400554788149 0.37274059599413767
0.08021276595744681 0.4846740267491498 0.37274059599413767
0.08042553191489361 0.46923000013129834 0.3757265254666753
0.08063829787234042 0.45484458448167375 0.3801125162686214
0.08085106382978724 0.4445131989913623 0.3882300334395804
0.08106382978723405 0.43331635032856913 0.4004241760272309
0.08127659574468085 0.4176549930806067 0.418461097132505
0.08148936170212766 0.39921812875850654 0.4369399416226323
0.08170212765957446 0.382071946919683 0.44641546316514
0.08191489361702127 0.3650625417384597 0.45525360505885143
0.08212765957446809 0.3491174278389342 0.45913214627765503
0.0823404255319149 0.33317231393940966 0.4630106874964584
0.0825531914893617 0.32657218146591566 0.4643608601980078
0.08276595744680851 0.3216640400636924 0.46525324954386654
0.08297872340425531 0.3187722788390585 0.46435117478434423
0.08319148936170212 0.3170040816816184 0.4629903069769496
0.08340425531914894 0.3162868706139603 0.468727995518215
0.08361702127659575 0.31874718432825744 0.4688396229643548
0.08382978723404255 0.32364225194686863 0.46818462258613097
0.08404255319148936 0.33037837232753586 0.4691466020366911
0.08425531914893616 0.33860069549727045 0.46750590303319256
0.08446808510638298 0.34997974163661383 0.46598869688128
0.08468085106382979 0.3605402663837915 0.46217144971155816
0.0848936170212766 0.3691934764959569 0.45969711773326827
0.0851063829787234 0.375873499774783 0.4602023282934568
0.08531914893617021 0.3814489138953948 0.4625917914880046
0.08553191489361701 0.37723818334651815 0.46078719268134327
0.08574468085106383 0.3744768033170499 0.4599149895505613
0.08595744680851064 0.373926547063508 0.46046524580410325
0.08617021276595745 0.3766053848134647 0.46019286576183344
0.08638297872340425 0.3828329777360788 0.45996820979587016
0.08659574468085106 0.3917664463773306 0.4603506883175002
0.08680851063829788 0.3994876103778245 0.45494587351715454
0.08702127659574468 0.4096059131306112 0.445836908809373
0.08723404255319149 0.42075648761173895 0.441203842242606
0.0874468085106383 0.43225420480906396 0.44668098513038446
0.0876595744680851 0.42949332082433817 0.4365577438530569
0.08787234042553191 0.42672934074501156 0.43446180117408845
0.08808510638297873 0.42132593510805216 0.443739123853769
0.08829787234042553 0.4130829534180901 0.44278174972840695
0.08851063829787234 0.40601923842905935 0.4455574774707639
0.08872340425531915 0.39745237091018804 0.443063508525595
0.08893617021276595 0.3911478866181413 0.4423683978686203
0.08914893617021276 0.38590767882177196 0.4419399150868209
0.08936170212765958 0.3822657644385904 0.4441890329680085
0.08957446808510638 0.380112033943977 0.44957335920454183
0.08978723404255319 0.3831771682476877 0.4568992537070646
0.09 0.38795501115612496 0.46486232522112675
0.0902127659574468 0.3935543860151108 0.4722208425958815
0.09042553191489362 0.3998548513818248 0.48164782528889305
0.09063829787234043 0.40992780379491 0.48570599430191197
0.09085106382978723 0.42179740004075605 0.48770274824885507
0.09106382978723404 0.4344891174955843 0.4913530733615797
0.09127659574468085 0.4429814749485515 0.49520010690255356
0.09148936170212765 0.45118982690532683 0.49682462139716654
0.09170212765957447 0.4644787874132965 0.49682462139716654
0.09191489361702128 0.47289371495289345 0.49682462139716654
0.09212765957446808 0.4790498442048765 0.49682462139716654
0.09234042553191489 0.48995939585572645 0.49480137349404313
0.0925531914893617 0.499022627746957 0.48949710977820315
0.0927659574468085 0.5093947453053623 0.48409400816270454
0.09297872340425532 0.5182133596004963 0.4764129227639396
0.09319148936170213 0.5219828251477608 0.4699571635784403
0.09340425531914893 0.5270026689205904 0.4599174760327811
0.09361702127659574 0.5306585650207627 0.4490599668820208
0.09382978723404255 0.5326342062189426 0.4407132434852022
0.09404255319148937 0.5337149769796499 0.43547982931767665
0.09425531914893617 0.5353486228147688 0.43080284452634127
0.09446808510638298 0.5365603857112182 0.42744634653024355
0.09468085106382979 0.5399318649902382 0.4319652905437378
0.09489361702127659 0.5405446711432615 0.4385345164237011
0.0951063829787234 0.5386988832882649 0.44461028089796784
0.09531914893617022 0.5378602833414754 0.45454422415076295
0.09553191489361702 0.5378602833414754 0.4643598363087663
0.09574468085106383 0.5333826740803489 0.46619901361975885
0.09595744680851064 0.5293413064142395 0.46863601964463353
0.09617021276595744 0.5262333810494219 0.4718613260849618
0.09638297872340426 0.5232128699658904 0.47335113118684263
0.09659574468085107 0.5240497422932969 0.4708405142046229
0.09680851063829787 0.5280842738972021 0.46486948937987804
0.09702127659574468 0.5325041387501209 0.4573371094048024
0.09723404255319149 0.538949906995439 0.4486642072810304
0.09744680851063829 0.5485485309183232 0.4382910287324321
0.09765957446808511 0.5534180649950401 0.42695447863766967
0.09787234042553192 0.5558586361899197 0.41942794216609114
0.09808510638297872 0.5627257313683159 0.41035870976579003
0.09829787234042553 0.5652059421349935 0.400126326880396
0.09851063829787234 0.5655789725538145 0.39415084084600505
0.09872340425531914 0.5624859665417368 0.39091924670961425
0.09893617021276596 0.559404841706866 0.3842718918403577
0.09914893617021277 0.5532615346343877 0.38089437966515577
0.09936170212765957 0.542947603805103 0.37865336406803196
0.09957446808510638 0.5308640059916315 0.38028356615129955
0.09978723404255319 0.5184847814705876 0.382252957675041
0.1 0.5061381883835747 0.3840526891694204
0.10021276595744681 0.4979267350285957 0.3893826394290451
0.10042553191489362 0.48822279525426576 0.39462822132743475
0.10063829787234042 0.4779522076903345 0.4024941205111422
0.10085106382978723 0.47346527545410777 0.40780201584357667
0.10106382978723404 0.468379589809321 0.4139148630070347
0.10127659574468086 0.46383752578721954 0.4191579823200005
0.10148936170212766 0.45436722922243505 0.42504068602063794
0.10170212765957447 0.4439870431275734 0.42948633254414137
0.10191489361702127 0.43601081908788497 0.4360052903442014
0.10212765957446808 0.4261562017852732 0.43475242189928653
0.10234042553191489 0.411733706293005 0.43984271442596956
0.1025531914893617 0.39788690438803775 0.43929244400854295
0.10276595744680851 0.3844671874911133 0.44252853195696706
0.10297872340425532 0.37499136810378497 0.4471890579095489
0.10319148936170212 0.36789462146495705 0.4528186174212178
0.10340425531914893 0.36245708980233154 0.45343422820232
0.10361702127659575 0.35505731010347075 0.45881665179198594
0.10382978723404256 0.34776366544191717 0.46533370514637257
0.10404255319148936 0.3447238811948951 0.4722646571466408
0.10425531914893617 0.34440644846116264 0.47599213233616716
0.10446808510638297 0.34626170316333205 0.47352390837175823
0.10468085106382978 0.3532084250241585 0.468455992135901
0.1048936170212766 0.354633379392946 0.46379968375962577
0.1051063829787234 0.3609047344092672 0.4519667467934347
0.10531914893617021 0.3605344765991362 0.44454612916539726
0.10553191489361702 0.3633717282879198 0.44150811347920965
0.10574468085106382 0.3656494502210863 0.43966273395296
0.10595744680851064 0.3664469825748295 0.441133365901319
0.10617021276595745 0.3623051602165475 0.441133365901319
0.10638297872340426 0.36062948570863884 0.441133365901319
0.10659574468085106 0.3591641321148009 0.44244579010332385
0.10680851063829787 0.3585728326536517 0.445527975244785
0.10702127659574467 0.35530448632632256 0.4512899526777961
0.1072340425531915 0.34927588640419416 0.4583481742241023
0.1074468085106383 0.3451224363883589 0.46731954965270545
0.1076595744680851 0.34157157252203785 0.4779721412516684
0.10787234042553191 0.3337135414704954 0.4929110996841506
0.10808510638297872 0.32700610851113976 0.5129305228201977
0.10829787234042552 0.3223651868104166 0.5327898257432647
0.10851063829787234 0.31847648403629875 0.549628616918771
0.10872340425531915 0.3173048218296411 0.5628870067673443
0.10893617021276596 0.3186262899508164 0.569802634213649
0.10914893617021276 0.32159426839651944 0.5671889785592524
0.10936170212765957 0.3275588468575457 0.5575776892563357
0.10957446808510639 0.3355509843305087 0.5397804353669595
0.1097872340425532 0.3419679087936136 0.523096431762887
0.11 0.3502090212424374 0.5099093759460805
0.1102127659574468 0.3594641878968721 0.497863744715589
0.11042553191489361 0.36995972526880194 0.48592693814106613
0.11063829787234042 0.38317603212355333 0.47271063128631474
0.11085106382978724 0.39441657025097365 0.4620852793339251
0.11106382978723404 0.4074517756045906 0.45555064090419906
0.11127659574468085 0.4198578799961534 0.45394457263119836
0.11148936170212766 0.42671576424923696 0.45737351475774
0.11170212765957446 0.4360025855897103 0.46176332179222207
0.11191489361702127 0.4481475987991722 0.4623580864630309
0.11212765957446809 0.46260230688407994 0.45682088009794125
0.1123404255319149 0.48338966489995094 0.4469194791081155
0.1125531914893617 0.49832376166470443 0.4422525738691301
0.1127659574468085 0.5154546303872913 0.4272873567159374
0.11297872340425531 0.526891532681804 0.4188224124351724
0.11319148936170213 0.5386779500648603 0.4090238707935317
0.11340425531914894 0.5492622789476843 0.40320472043187555
0.11361702127659574 0.5487434425758619 0.39966356023994026
0.11382978723404255 0.5512134334673366 0.4017263792416406
0.11404255319148936 0.5487997863761334 0.40844290197303107
0.11425531914893616 0.5398350510128526 0.4157717141409958
0.11446808510638298 0.5443084286484521 0.42556592139363447
0.11468085106382979 0.5392239960216715 0.4267355544231758
0.1148936170212766 0.5425655627884228 0.4284318514899854
0.1151063829787234 0.5464463982202277 0.4263790559755012
0.11531914893617021 0.5500763061351297 0.4185595123976284
0.11553191489361703 0.5552753750254156 0.4123502910886075
0.11574468085106383 0.560067985796302 0.4064883566926915
0.11595744680851064 0.5642355196511305 0.3981532889830345
0.11617021276595745 0.5683967836508546 0.39423546653639474
0.11638297872340425 0.5737977772918432 0.3923878724679034
0.11659574468085106 0.572562409944695 0.3913043478260869
0.11680851063829788 0.5792369680019411 0.39797853450725046
0.11702127659574468 0.5770483690910123 0.40806219546547606
0.11723404255319149 0.5699004063866235 0.4107344453993008
0.1174468085106383 0.5636055009315004 0.4191252122080252
0.1176595744680851 0.5591188323449758 0.42461187114206217
0.11787234042553191 0.5543810588854942 0.42070426626591473
0.11808510638297873 0.5519555806682079 0.41656382376924433
0.11829787234042553 0.5515388373229115 0.40968386542303076
0.11851063829787234 0.5449435773754387 0.4035171805528491
0.11872340425531915 0.5364540883857001 0.3992556085166429
0.11893617021276595 0.5313140968768215 0.39682461072468334
0.11914893617021277 0.5274430410765247 0.3949537674809274
0.11936170212765958 0.5232867894516927 0.3941615232456104
0.11957446808510638 0.5241093246895037 0.4040782669079559
0.11978723404255319 0.5182409101939061 0.4102413629492446
0.12 0.5153230397764819 0.42410124743200966
0.1202127659574468 0.5094035494515515 0.437821446878976
0.12042553191489362 0.5038649835094087 0.450185532372362
0.12063829787234043 0.4975475132212037 0.46087622237410597
0.12085106382978723 0.49094954589977413 0.4673231616107791
0.12106382978723404 0.48477702027710584 0.46885205664076235
0.12127659574468085 0.47477139984934247 0.46882944067915444
0.12148936170212765 0.46475090016868764 0.4667049793088929
0.12170212765957447 0.4611396899662847 0.46309376910648975
0.12191489361702128 0.45282487379201597 0.46655287819925334
0.12212765957446808 0.44300993072941003 0.47181916022478065
0.12234042553191489 0.4332906407237996 0.48086551055915916
0.1225531914893617 0.42395486151818146 0.4940249221699643
0.12276595744680852 0.4174695789006177 0.5082489509633766
0.12297872340425532 0.41386177539552177 0.5230922348584858
0.12319148936170213 0.4087132991305182 0.5357286584757488
0.12340425531914893 0.40404757629619553 0.5397726484229057
0.12361702127659574 0.40096986720675126 0.5404160467588055
0.12382978723404255 0.3972505028393913 0.5339805973447778
0.12404255319148937 0.3944881629976698 0.5219074612085634
0.12425531914893617 0.39593351047676695 0.5055068674989028
0.12446808510638298 0.392324218854141 0.49016737810274247
0.12468085106382978 0.3906278778375283 0.47675726793715817
0.12489361702127659 0.3881143925305012 0.46107521693190817
0.1251063829787234 0.3880583191617627 0.4494825732460125
0.12531914893617022 0.38579693626927525 0.4415100512704502
0.125531914893617 0.38181183483826875 0.4325461967683638
0.12574468085106383 0.3805569125549584 0.42542960112420264
0.12595744680851065 0.37703690147388147 0.41861863812596467
0.12617021276595744 0.37336028147908534 0.4136254656816075
0.12638297872340426 0.3668575374010395 0.4119587814264727
0.12659574468085105 0.36043533265103256 0.4090891856220479
0.12680851063829787 0.35708855516211696 0.41182570747285563
0.1270212765957447 0.3457437494865081 0.414007549731519
0.12723404255319148 0.3373451393989523 0.41805633224554867
0.1274468085106383 0.3281042345447005 0.4276871160588659
0.1276595744680851 0.31490821169573285 0.4399123641491677
0.12787234042553192 0.2999857539499746 0.4575850493515778
0.1280851063829787 0.28642215016206607 0.47492021111164606
0.12829787234042553 0.27433235110173615 0.4928867546946837
0.12851063829787235 0.26966725639008265 0.506629697432337
0.12872340425531914 0.2749955661109221 0.5158855364647764
0.12893617021276596 0.28555902198701677 0.5226787437060751
0.12914893617021275 0.2974771942758649 0.5209379953015194
0.12936170212765957 0.31343940189015207 0.5171748795365549
0.1295744680851064 0.3296366404459118 0.5109017608568565
0.12978723404255318 0.3461342986031765 0.506733583736865
0.13 0.35844886298321327 0.503868291397714
0.1302127659574468 0.3692296434365642 0.5022479897480854
0.13042553191489362 0.3808179927698549 0.5020974170985059
0.13063829787234044 0.38153395212506114 0.4974936733097541
0.13085106382978723 0.3837697684932942 0.4960793492744222
0.13106382978723405 0.38903057677882036 0.49201036459895986
0.13127659574468084 0.3932561854622056 0.4860794276301246
0.13148936170212766 0.3972148812918408 0.4821207318004894
0.13170212765957448 0.40202356405581835 0.48045685701116514
0.13191489361702127 0.41126613402941986 0.48077099347424396
0.1321276595744681 0.41807999591016853 0.4741768980886684
0.13234042553191488 0.4337926293557769 0.46719350544617577
0.1325531914893617 0.4559876372274736 0.458863613706664
0.1327659574468085 0.47672905700124657 0.4557608083477755
0.13297872340425532 0.4953286013239361 0.4536211333334684
0.13319148936170214 0.5103949553968731 0.4495121276772129
0.13340425531914893 0.5205810461897519 0.4414507978428069
0.13361702127659575 0.5207898910942345 0.43535283140551984
0.13382978723404254 0.5122841068397773 0.4317074952964667
0.13404255319148936 0.5033121221191118 0.431362970200293
0.13425531914893618 0.491745686803839 0.4319246635049017
0.13446808510638297 0.48248655879403785 0.4316866128299213
0.1346808510638298 0.47777497450046524 0.43009124392698017
0.13489361702127659 0.48590018332202034 0.4252161186340472
0.1351063829787234 0.49579435261829513 0.42008412399297274
0.13531914893617022 0.5108099687429005 0.41420844811812724
0.13553191489361702 0.5218721988310987 0.4072035694892798
0.13574468085106384 0.5353555093711572 0.39837160059408494
0.13595744680851063 0.5520103069657193 0.3920152590357479
0.13617021276595745 0.5662343592213592 0.3890068428972214
0.13638297872340424 0.5769220282773075 0.38674350730772344
0.13659574468085106 0.5892217914776513 0.3892783367689615
0.13680851063829788 0.5957806582755141 0.394823526801403
0.13702127659574467 0.5993909006027955 0.398461679455125
0.1372340425531915 0.6031070238216952 0.4008598328104593
0.13744680851063829 0.6077191774410369 0.40522744411866213
0.1376595744680851 0.6094388207858771 0.406978536685277
0.13787234042553193 0.6110414324436592 0.4137439850532764
0.13808510638297872 0.6087501378272265 0.41298022018113223
0.13829787234042554 0.6088991193500524 0.4141831922907251
0.13851063829787233 0.6091841719589643 0.4153297097950218
0.13872340425531915 0.6086575694760961 0.4152037345957833
0.13893617021276597 0.6082071323888618 0.41702595938392173
0.13914893617021276 0.6113148013639924 0.41741838819890725
0.13936170212765958 0.6144407205425608 0.4160331814971612
0.13957446808510637 0.6172006586588581 0.4157303370786516
0.1397872340425532 0.6156364785292849 0.4133892875180489
0.13999999999999999 0.6124963964586106 0.41024920544737464
0.1402127659574468 0.6064099138166235 0.41176989194225244
0.14042553191489363 0.594414365859747 0.4175149900217213
0.14063829787234042 0.5762871827669006 0.42107132054528207
0.14085106382978724 0.5582435527947707 0.4225995166291163
0.14106382978723403 0.5402360969319572 0.4269838672229301
0.14127659574468085 0.5230179673076266 0.4304092709404792
0.14148936170212767 0.5045409191624612 0.4317647277583173
0.14170212765957446 0.48222912728147854 0.43330846370680537
0.14191489361702128 0.4570249129204406 0.43690906575838223
0.14212765957446807 0.43209178998110254 0.44063807922204423
0.1423404255319149 0.40965003739670186 0.4455472125998818
0.1425531914893617 0.388394929874168 0.4527219091975149
0.1427659574468085 0.36810633150143696 0.4540103050166405
0.14297872340425533 0.3501063503688207 0.45616875114721117
0.14319148936170212 0.33843446344555295 0.46123126933529346
0.14340425531914894 0.33167743785939935 0.4658242371892317
0.14361702127659573 0.3271028852636075 0.46975066249858544
0.14382978723404255 0.32854320092391137 0.47119097815888944
0.14404255319148937 0.3318711837796017 0.4769968557666442
0.14425531914893616 0.3366295490465118 0.4785174996445782
0.14446808510638298 0.3434194675603433 0.4753330646318152
0.14468085106382977 0.35137175779999497 0.4733756717147044
0.1448936170212766 0.3555505700999522 0.4721856126117212
0.1451063829787234 0.35699546009002237 0.4661218690662536
0.1453191489361702 0.3564940135155163 0.4582876739127467
0.14553191489361703 0.3530438735430577 0.45141300802536244
0.14574468085106382 0.3502686858817783 0.4422142286571191
0.14595744680851064 0.3502686858817783 0.43635260175646057
0.14617021276595746 0.3504484161595727 0.430464318811321
0.14638297872340425 0.351014429042812 0.42578388312257354
0.14659574468085107 0.35083576371209096 0.4212783423182215
0.14680851063829786 0.3546062819038122 0.4126658153734431
0.14702127659574468 0.3594586389851414 0.4057471900304086
0.14723404255319147 0.3618259606160411 0.4035591424791113
0.1474468085106383 0.36635216918904534 0.4044717802628166
0.14765957446808511 0.37195370569365643 0.4132428999974602
0.1478723404255319 0.37583625514150865 0.4282003454128052
0.14808510638297873 0.377249529728942 0.4439064961809025
0.14829787234042552 0.37955006797135865 0.4614723667924904
0.14851063829787234 0.384042104309294 0.4765749328553612
0.14872340425531916 0.38770179978181096 0.4862407870423282
0.14893617021276595 0.3874056218850548 0.49045028334305424
0.14914893617021277 0.38481344712171883 0.4936463280503267
0.14936170212765956 0.3768385282599092 0.49727129116933105
0.14957446808510638 0.3713631327671831 0.4988788064515847
0.1497872340425532 0.36603440159639 0.5013165942908184
0.15 0.36085600718889066 0.5057780914921057
0.15021276595744681 0.36023137655277404 0.5079410818879823
0.1504255319148936 0.36250619963542835 0.5159177582264467
0.15063829787234043 0.3689543042065904 0.5258737627467385
0.15085106382978725 0.3760521918486804 0.5360001424084713
0.15106382978723404 0.3844036289894945 0.5487232521269877
0.15127659574468086 0.3947215398192664 0.5608182667367065
0.15148936170212765 0.4045622330696767 0.5681786660356355
0.15170212765957447 0.4138435043046399 0.5706528607344948
0.15191489361702126 0.42423659536975533 0.5710796287249633
0.15212765957446808 0.4368656183782193 0.5723771313231533
0.1523404255319149 0.45030203141143005 0.5723284259028523
0.1525531914893617 0.4660246367259251 0.5690092291917477
0.15276595744680851 0.478448801616772 0.5567177796005928
0.1529787234042553 0.4880815236973378 0.5431071254893418
0.15319148936170213 0.5029315846323237 0.5259887245197775
0.15340425531914895 0.5115540053107825 0.5024865706921444
0.15361702127659574 0.5189166072299375 0.48296868409083954
0.15382978723404256 0.5335078548469001 0.4542667612930355
0.15404255319148935 0.5407297440831255 0.43376356084688417
0.15425531914893617 0.5473633866216348 0.4162649219203846
0.154468085106383 0.551721484498934 0.4092882562849736
0.15468085106382978 0.5566609796561356 0.40693698094772834
0.1548936170212766 0.5588541232160313 0.40751820033673003
0.1551063829787234 0.5626326122576826 0.40854472042429113
0.15531914893617021 0.5680134168515617 0.40593481023140626
0.155531914893617 0.5749877870053737 0.4012220038637237
0.15574468085106383 0.5770233386613368 0.3950495610749814
0.15595744680851065 0.5805926711191337 0.3867797456038212
0.15617021276595744 0.5805776477806168 0.37973978261884134
0.15638297872340426 0.5805564530063666 0.37284151679129157
0.15659574468085105 0.5793586649591136 0.36556675871986793
0.15680851063829787 0.5781131933243253 0.36316448790175565
0.1570212765957447 0.5746043342924705 0.3604842717257036
0.15723404255319148 0.5669121523063331 0.35915175719168685
0.1574468085106383 0.5607735218535684 0.35673879528946634
0.1576595744680851 0.5546902321216646 0.3572971537429107
0.15787234042553192 0.5495110250618802 0.36173506451245546
0.15808510638297874 0.5451795845729115 0.36859808928959065
0.15829787234042553 0.5405558175495325 0.374718869698805
0.15851063829787235 0.536619351462547 0.39076712877069386
0.15872340425531914 0.5305863023280296 0.40105405280701084
0.15893617021276596 0.5253114581225115 0.41290601517247083
0.15914893617021275 0.5193513112576159 0.42734525242370314
0.15936170212765957 0.5144373022820028 0.4381243413220425
0.1595744680851064 0.5109030176516579 0.44930439251012444
0.15978723404255318 0.5088342600191742 0.45550379567208116
0.16 0.5063745622855093 0.4587618229942702
0.1602127659574468 0.5019809137004555 0.46120785949721804
0.16042553191489362 0.49682167191564897 0.462141928769663
0.16063829787234044 0.48997545269952325 0.46414917485339396
0.16085106382978723 0.47949209633209655 0.46218773747689335
0.16106382978723405 0.4668030902968599 0.4606741573033708
0.16127659574468084 0.4526262908689891 0.4606741573033708
0.16148936170212766 0.4408641267950325 0.45730517577540947
0.16170212765957448 0.4264594016930377 0.4490603307479385
0.16191489361702127 0.4099855108785692 0.4467440052281255
0.1621276595744681 0.3912169663561271 0.4500993875369868
0.16234042553191488 0.378392421651126 0.45172228595639496
0.1625531914893617 0.35831009412435083 0.4527540707034093
0.1627659574468085 0.32912447253911914 0.4547203545882931
0.16297872340425532 0.30409518413498227 0.4548252168275959
0.16319148936170214 0.2850634181486341 0.45550069701030865
0.16340425531914893 0.2753831859663162 0.45162860413738143
0.16361702127659575 0.2707670900699725 0.4495653313987464
0.16382978723404254 0.270848967048008 0.4472549719700038
0.16404255319148936 0.2783688118519003 0.4453359158439692
0.16425531914893618 0.28832886133270974 0.4456724971196852
0.16446808510638297 0.30015948740779475 0.44383219822117637
0.1646808510638298 0.3090104171750735 0.44164971153166976
0.16489361702127658 0.3183355973969939 0.4416528074192304
0.1651063829787234 0.33042975261292346 0.44326704773203973
0.16531914893617022 0.3343476994231949 0.4421663952510602
0.16553191489361702 0.3418532406454595 0.4424990704772232
0.16574468085106384 0.3533102463943988 0.4436158955990664
0.16595744680851063 0.3623239709729517 0.44275883353154244
0.16617021276595745 0.3698389692864745 0.4411431965688672
0.16638297872340424 0.3829328934404124 0.4451814183132645
0.16659574468085106 0.39185671757348856 0.44614131258458783
0.16680851063829788 0.4001736539619421 0.4480865678994351
0.16702127659574467 0.40373174808327034 0.4534237090814274
0.1672340425531915 0.4082420938746053 0.45552937296752655
0.16744680851063828 0.4128954403386263 0.45899246365341206
0.1676595744680851 0.4200108752266836 0.46593173502150537
0.16787234042553192 0.4237428414845395 0.4732474795881483
0.16808510638297872 0.42452369320957506 0.47853090086374445
0.16829787234042554 0.4228242022647025 0.4836139305951675
0.16851063829787233 0.4210999316906067 0.4826286864654143
0.16872340425531915 0.42324337682429425 0.4787999354861317
0.16893617021276597 0.4280867708620799 0.47785861993714235
0.16914893617021276 0.42962199240092386 0.47728382999511476
0.16936170212765958 0.42765757611258065 0.4788323807499242
0.16957446808510637 0.42262253652408227 0.4836453201646056
0.1697872340425532 0.41629620432500186 0.48859713251259346
0.17 0.417910749923808 0.4915696803411063
0.1702127659574468 0.4197315624889766 0.4978947280971837
0.17042553191489362 0.4261390447092572 0.5042383791245063
0.17063829787234042 0.4304671437243715 0.5081336682381092
0.17085106382978724 0.43479524273948633 0.5120289573517126
0.17106382978723403 0.4418007213135612 0.5142380525641328
0.17127659574468085 0.4498521917864798 0.515005010425651
0.17148936170212767 0.4591010594604665 0.5135080336569382
0.17170212765957446 0.46695198845291586 0.5096100431685222
0.17191489361702128 0.46939193650514965 0.5024292980632227
0.17212765957446807 0.4759700154752598 0.4999324489021393
0.1723404255319149 0.4830553398236186 0.49107579346669095
0.1725531914893617 0.49201417809206277 0.481117233730116
0.1727659574468085 0.503110228838755 0.47009815935087335
0.17297872340425532 0.5138839775380677 0.4614713234938105
0.17319148936170212 0.5188958144473163 0.45940895647932195
0.17340425531914894 0.5232211461198768 0.457743038593063
0.17361702127659576 0.5281589690815183 0.45815752723947617
0.17382978723404255 0.5294075493622458 0.4644000610342976
0.17404255319148937 0.5321630012732432 0.47225906188061473
0.17425531914893616 0.533257533677814 0.4823217810229322
0.17446808510638298 0.5345472125590452 0.487480496547857
0.17468085106382977 0.5358368914402764 0.49263921207278116
0.1748936170212766 0.534988656916991 0.4800708011368494
0.1751063829787234 0.5386770027326028 0.4726791924578085
0.1753191489361702 0.5427730987318806 0.45964977337916707
0.17553191489361702 0.5500381702523301 0.44716657699048407
0.17574468085106382 0.5602176958577009 0.43096032361234243
0.17595744680851064 0.5774825520785613 0.4160844528827493
0.17617021276595746 0.5761763863250883 0.4045597823082993
0.17638297872340425 0.5823456373347135 0.3949632372883766
0.17659574468085107 0.5879184947531099 0.39212455895001086
0.17680851063829786 0.5913240314011414 0.38739618954567656
0.17702127659574468 0.5937958923511266 0.3878033205736453
0.1772340425531915 0.5932175584344697 0.38883084102439086
0.1774468085106383 0.5875098002124883 0.3920165143269047
0.1776595744680851 0.5816896889707014 0.39688566943897374
0.1778723404255319 0.5748297721463779 0.4004760554333764
0.17808510638297873 0.5681409376193788 0.4025421959810859
0.17829787234042552 0.5618333903345104 0.4003031723298555
0.17851063829787234 0.5538302886850593 0.3953012337989486
0.17872340425531916 0.5454877560449165 0.3898757324943638
0.17893617021276595 0.5400087290196068 0.38153048087141356
0.17914893617021277 0.5344281719232729 0.37447640028157564
0.17936170212765956 0.5252300522229577 0.36935659914518665
0.17957446808510638 0.5179234566516742 0.36857276373831804
0.1797872340425532 0.5109793577824202 0.37037131057566974
0.18 0.5029406931540686 0.37572559884475615
0.1802127659574468 0.49552828406971955 0.37841490718253673
0.1804255319148936 0.48645972321970515 0.38047190431192124
0.18063829787234043 0.480987097541973 0.3845209501263375
0.18085106382978725 0.4700734890867481 0.38747040232920626
0.18106382978723404 0.4646280478945608 0.38877236079834604
0.18127659574468086 0.45739326260491253 0.3930102535438408
0.18148936170212765 0.4490812585315736 0.40160514999440383
0.18170212765957447 0.4378488959291742 0.4085999694876528
0.18191489361702126 0.4289935207428654 0.41993844409070114
0.18212765957446808 0.4171945757220263 0.43478392940743144
0.1823404255319149 0.4024515185759851 0.4437431609679888
0.1825531914893617 0.3867788558235537 0.4453501910427907
0.1827659574468085 0.37567127800072686 0.451555412451559
0.1829787234042553 0.3678351273239216 0.4597309024327735
0.18319148936170213 0.3621652376650242 0.4712040158276839
0.18340425531914895 0.35699962288238707 0.4848172747861798
0.18361702127659574 0.35316160827526555 0.49264171168248244
0.18382978723404256 0.35222276502198335 0.49317028291597076
0.18404255319148935 0.3553496222937809 0.4936981774347055
0.18425531914893617 0.35530236542383903 0.4856079239013117
0.184468085106383 0.35951425352479766 0.47889066323482504
0.18468085106382978 0.36281143851885084 0.47456439365048836
0.1848936170212766 0.36394121188677775 0.4685266417228116
0.1851063829787234 0.36374852519090956 0.46648671605591
0.1853191489361702 0.3601252440169887 0.46599016732480686
0.185531914893617 0.3608777405069258 0.47127483688028143
0.18574468085106383 0.35886514527842034 0.4790459751352409
0.18595744680851065 0.3531642497801035 0.4922636817661399
0.18617021276595744 0.349034611200284 0.5030979619226019
0.18638297872340426 0.34708100551242244 0.5167801219851352
0.18659574468085105 0.34497328348831124 0.5229287331400658
0.18680851063829787 0.3400301228202658 0.5231232800916772
0.1870212765957447 0.34212510545828456 0.5220341431129798
0.18723404255319148 0.34440644846116264 0.5152450083151823
0.1874468085106383 0.34440644846116264 0.5080367594575754
0.1876595744680851 0.3437223266346325 0.5049338557015597
0.18787234042553191 0.34416671810716076 0.5061155563901887
0.18808510638297873 0.34202080422536635 0.4986428696455383
0.18829787234042553 0.3406231434812763 0.49171150377969547
0.18851063829787235 0.33959198973440347 0.48643088174480664
0.18872340425531914 0.33855539077902197 0.48124788696789883
0.18893617021276596 0.3416125460518027 0.47510105701999655
0.18914893617021278 0.3445119084376194 0.4704445530043966
0.18936170212765957 0.34554633749295405 0.4707702519277743
0.1895744680851064 0.3469417980385673 0.47220487533220207
0.18978723404255318 0.3500134102260957 0.4717102981402674
0.19 0.35518340679073723 0.4749861719203821
0.1902127659574468 0.3598322659816894 0.48144872959852103
0.19042553191489361 0.3641918455713563 0.48248312568110585
0.19063829787234043 0.3714310094702817 0.4838885164890316
0.19085106382978723 0.3765324311661159 0.4851001465559355
0.19106382978723405 0.3795940758710206 0.48460807604934303
0.19127659574468084 0.3837382777019762 0.48191878140891786
0.19148936170212766 0.3884824094355043 0.4747424104513635
0.19170212765957448 0.3949997277276445 0.4674166615987906
0.19191489361702127 0.4022518521692586 0.45829468812166074
0.1921276595744681 0.41346011529171095 0.4510618329257126
0.19234042553191488 0.42758213284769697 0.4363818125819048
0.1925531914893617 0.4478119721704894 0.4270928832587047
0.19276595744680852 0.4680921539424381 0.4177810409844439
0.19297872340425531 0.49112300286452415 0.405993664304292
0.19319148936170213 0.5071574563707033 0.3984364515679683
0.19340425531914893 0.5195049949543507 0.39230184250916156
0.19361702127659575 0.5312779390901099 0.38570839760173864
0.19382978723404254 0.5454406849738187 0.3776764276127217
0.19404255319148936 0.5529721594351364 0.3682050492183091
0.19425531914893618 0.5584662362882841 0.3606506935452312
0.19446808510638297 0.5629074674672403 0.35756994763991784
0.1946808510638298 0.5667877898091673 0.35710796287249624
0.19489361702127658 0.5704835841526129 0.3580604503668766
0.1951063829787234 0.5732150835209476 0.3648891987877133
0.19531914893617022 0.5756732305200758 0.3764376363111489
0.19553191489361701 0.5779813914575561 0.3896626973952551
0.19574468085106383 0.5794454366974578 0.39698292359476334
0.19595744680851063 0.5807533537451732 0.40426365071959686
0.19617021276595745 0.5783729942779545 0.4106112759655131
0.19638297872340427 0.5757617948381326 0.4204506223084366
0.19659574468085106 0.5743687656262632 0.4235466536394723
0.19680851063829788 0.5709609943360222 0.42405494582268055
0.19702127659574467 0.5668982692761445 0.42452369320957506
0.1972340425531915 0.5659152953469948 0.42626845331619245
0.19744680851063828 0.5666614624171515 0.43093891514229227
0.1976595744680851 0.5649852209673187 0.43596763949179035
0.19787234042553192 0.5616741429644371 0.43871548894497275
0.19808510638297872 0.5588347372558058 0.44126095327281983
0.19829787234042554 0.5589677095109985 0.4430874450415241
0.19851063829787233 0.5560503487214838 0.4404436009117253
0.19872340425531915 0.5537673353139152 0.436368803883897
0.19893617021276597 0.5527391802536384 0.43828607331861624
0.19914893617021276 0.5476998939247435 0.4472059250415648
0.19936170212765958 0.5449362818344645 0.4626885435656118
0.19957446808510637 0.5395123509015961 0.48187301368577246
0.1997872340425532 0.5309036903179097 0.4991088574405397
0.2 0.5172830434615173 0.5171396810878963
0.2002127659574468 0.5144155781134347 0.5358680041114765
0.20042553191489362 0.49335526730009077 0.54560932047895
0.20063829787234042 0.4841673505036705 0.544153893011517
0.20085106382978724 0.47322974677886454 0.538921394124692
0.20106382978723403 0.47342075083467994 0.5264183693795508
0.20127659574468085 0.4624844164940694 0.5052747896543704
0.20148936170212767 0.4515480821534588 0.4841312099291901
0.20170212765957446 0.4427328290167164 0.46680420224447355
0.20191489361702128 0.4350646247820855 0.4530366049796745
0.20212765957446807 0.4258718973183031 0.43969891711518955
0.2023404255319149 0.4135091516551839 0.4282792193281211
0.2025531914893617 0.4012864796931615 0.41548289120226806
0.2027659574468085 0.39027024295179824 0.4082641198793059
0.20297872340425532 0.3801610734891915 0.4065233368541904
0.20319148936170212 0.3722733037555541 0.4090185071428239
0.20340425531914894 0.36494758118386267 0.4173753026624117
0.20361702127659576 0.3549834719445765 0.4303143540831888
0.20382978723404255 0.35127154251811576 0.4478263461833726
0.20404255319148937 0.3462684687207086 0.4640655704169753
0.20425531914893616 0.3442908069555596 0.4739538792427197
0.20446808510638298 0.3436172554307834 0.47732163686660073
0.20468085106382977 0.3441457273457139 0.47207206613746067
0.2048936170212766 0.3437545918375493 0.4675149250247238
0.2051063829787234 0.3447957893929944 0.4643913323583885
0.2053191489361702 0.3463095676072466 0.4617021568675945
0.20553191489361702 0.34533440195065734 0.4626773225241839
0.20574468085106382 0.3450422215086704 0.4672703366131316
0.20595744680851064 0.3427033663194588 0.4767818359981122
0.20617021276595746 0.33711708036244115 0.48457319809383625
0.20638297872340425 0.3311530409025292 0.4912805794583665
0.20659574468085107 0.3249224946329032 0.4961353699679033
0.20680851063829786 0.32126108084580407 0.4941970847539623
0.20702127659574468 0.3209574987787005 0.4948380531794103
0.2072340425531915 0.32287008516694227 0.4917734525387995
0.2074468085106383 0.32136616996144163 0.4874628968788819
0.2076595744680851 0.31686150079946396 0.481079830728642
0.2078723404255319 0.31475145097629315 0.47002110223119187
0.20808510638297872 0.3111871030776747 0.4602491632365476
0.20829787234042554 0.3115867054599119 0.4514372660192294
0.20851063829787234 0.3135732231170285 0.4475029494022867
0.20872340425531916 0.3167241728776916 0.44753857382847007
0.20893617021276595 0.3211189145849284 0.4498281636019585
0.20914893617021277 0.3229115779189058 0.4557242903748956
0.20936170212765956 0.32594927738957274 0.46002131319606326
0.20957446808510638 0.3332974615063782 0.4631033042935191
0.2097872340425532 0.34311577985890834 0.46530122143343283
0.21 0.3497973192745713 0.4628639197471794
0.2102127659574468 0.3598044339868803 0.46262823644357587
0.2104255319148936 0.3740924574224722 0.4666613353433968
0.21063829787234042 0.3873806535137701 0.47086597541924413
0.21085106382978724 0.40931076787974474 0.4764471487444408
0.21106382978723404 0.4206226384938159 0.484321356325714
0.21127659574468086 0.4353697194723935 0.48900830483634583
0.21148936170212765 0.4480467258089523 0.4880893260985015
0.21170212765957447 0.46198726573622034 0.4839886794407341
0.2119148936170213 0.475130404195133 0.4783605428951057
0.21212765957446808 0.486919943887436 0.4732840524220843
0.2123404255319149 0.5001117327163456 0.4678239577747046
0.2125531914893617 0.514705195902804 0.4618789226489107
0.2127659574468085 0.5310458035442672 0.457988848310183
0.2129787234042553 0.5434120370168146 0.4584344113810971
0.21319148936170212 0.5538650598912322 0.4539545444349182
0.21340425531914894 0.5624868550925841 0.45103899476680215
0.21361702127659574 0.5679124726629154 0.44906770113800976
0.21382978723404256 0.5711047937928708 0.44747154057303196
0.21404255319148935 0.5702488364707954 0.445187771497664
0.21425531914893617 0.5676729305507359 0.44261186557760446
0.214468085106383 0.5580239540439477 0.441572316271386
0.21468085106382978 0.5493083542869771 0.4421779021228456
0.2148936170212766 0.5456545178814841 0.44522276579408965
0.2151063829787234 0.5421938641360975 0.4470208422302703
0.2153191489361702 0.5398143624816805 0.44725874997571763
0.21553191489361703 0.5398143624816805 0.44486761193056773
0.21574468085106382 0.5368672737508658 0.44195942123247345
0.21595744680851064 0.5339295808482248 0.43902020420156995
0.21617021276595744 0.541696057861778 0.43772579136597783
0.21638297872340426 0.5495350184897569 0.43722520762090866
0.21659574468085105 0.5574196868394575 0.43722520762090866
0.21680851063829787 0.5636991982993986 0.43486830422901396
0.2170212765957447 0.5690384688123634 0.43113081486993865
0.21723404255319148 0.5754120999794542 0.4330406860424872
0.2174468085106383 0.5798729848558866 0.4354588430212
0.2176595744680851 0.5798729848558866 0.4360324068668088
0.2178723404255319 0.5776896205393387 0.43406480373425815
0.21808510638297873 0.5749877870053737 0.431362970200293
0.21829787234042553 0.5746550031881816 0.43080833050497286
0.21851063829787234 0.5716801077839581 0.42637018363232077
0.21872340425531914 0.5658359530182475 0.42470042512783207
0.21893617021276596 0.5596577464383702 0.4276123848017848
0.21914893617021278 0.5513414846970297 0.42813825344098927
0.21936170212765957 0.5428899190164782 0.4272016288760662
0.2195744680851064 0.5380491246045603 0.42949099421625747
0.21978723404255318 0.5324211552060079 0.42921324783587045
0.22 0.5272856617668015 0.42509861984285363
0.2202127659574468 0.5230332728632946 0.4218643769493324
0.2204255319148936 0.517508347603722 0.4177673638360574
0.22063829787234043 0.5141655605148007 0.414261751220124
0.22085106382978723 0.5117454206897648 0.40977738848457396
0.22106382978723405 0.5105031753786029 0.4079140205178309
0.22127659574468084 0.5101838644611443 0.4059981550130792
0.22148936170212766 0.5076596539338978 0.40371087809686207
0.22170212765957448 0.5013106204563039 0.40935446341027887
0.22191489361702127 0.4882449581301904 0.4036241888843429
0.2221276595744681 0.4659553631395323 0.4086534325511475
0.22234042553191488 0.43384409988895944 0.41273905476360134
0.2225531914893617 0.40033754622177814 0.41502015670347014
0.22276595744680852 0.37398040250797715 0.4193474489549897
0.2229787234042553 0.3476232587941796 0.4236747412065088
0.22319148936170213 0.3308952856660977 0.42820094709975765
0.22340425531914893 0.3181628457837786 0.43288732637934135
0.22361702127659575 0.31021006350757196 0.43779742400970145
0.22382978723404254 0.3103856437351036 0.44272493626778214
0.22404255319148936 0.3125475507578945 0.44920528786888453
0.22425531914893618 0.31630976972834013 0.4507302604065941
0.22446808510638297 0.3235233909038244 0.44947276415937903
0.2246808510638298 0.33158733734243595 0.44656588189057983
0.22489361702127658 0.34090685564429357 0.44207488306848997
0.2251063829787234 0.3473345007179624 0.439766123793877
0.22531914893617022 0.35245044301794964 0.43699752962494237
0.225531914893617 0.3572893068092831 0.43429408891060084
0.22574468085106383 0.36164998390614983 0.4338913633297644
0.22595744680851063 0.36575861641000845 0.43467558175059384
0.22617021276595745 0.3708850826246254 0.4382679577048065
0.22638297872340427 0.3770528037174356 0.4451590785610093
0.22659574468085106 0.38691417029491904 0.45445040544468707
0.22680851063829788 0.3939430989856647 0.4610414775425352
0.22702127659574467 0.39662966217865325 0.4654625485878876
0.2272340425531915 0.39640703813226125 0.4680554889528687
0.22744680851063828 0.3986279413998743 0.4717416681618908
0.2276595744680851 0.39912066438690763 0.4758441810624973
0.22787234042553192 0.40003750324020165 0.48089098469148256
0.22808510638297871 0.3971807732765208 0.48605353940967433
0.22829787234042553 0.4035752854445462 0.4880768038310123
0.22851063829787233 0.4150713480172038 0.4889446947346149
0.22872340425531915 0.42456722193796054 0.48707599006033353
0.22893617021276597 0.4300530226134572 0.48981889039808174
0.22914893617021276 0.4280437385313906 0.49466972860404806
0.22936170212765958 0.41860758069037507 0.5032202745183203
0.22957446808510637 0.406599800793221 0.5023570717118646
0.2297872340425532 0.3954629790530733 0.5007327796775769
0.23 0.3822335704029084 0.4982034865984907
0.2302127659574468 0.3736351006439734 0.4963773690722487
0.23042553191489362 0.37158784180314697 0.4933663588241944
0.23063829787234041 0.37204233920641244 0.48845073927159127
0.23085106382978723 0.3768240609557422 0.48841538068334217
0.23106382978723405 0.3858448383375761 0.48755990385178133
0.23127659574468085 0.39216751714936093 0.48857194090957334
0.23148936170212767 0.4021648277334921 0.4914373232274004
0.23170212765957446 0.41437494988380585 0.49453169545825004
0.23191489361702128 0.42033902150569624 0.4939488053715524
0.23212765957446807 0.4343100125613672 0.4938871332265522
0.2323404255319149 0.4448983276731929 0.48970739671925967
0.2325531914893617 0.460889241851483 0.483798648342945
0.2327659574468085 0.4813934446722205 0.4709025861039124
0.23297872340425532 0.5003685294964517 0.45606214708870163
0.23319148936170211 0.5160331335237094 0.4431446567012714
0.23340425531914893 0.5282438011961607 0.4317745332074887
0.23361702127659575 0.5379673290139811 0.4269127692985784
0.23382978723404255 0.5473438509964353 0.42433994083874493
0.23404255319148937 0.554296124850914 0.4268254347143909
0.23425531914893616 0.553708707342297 0.4290792241275262
0.23446808510638298 0.5531404246011029 0.43216068905956295
0.2346808510638298 0.5470500847012469 0.4339772547254184
0.2348936170212766 0.5395482485138369 0.4351672102638723
0.2351063829787234 0.533793881147808 0.4390471764123961
0.2353191489361702 0.5296225625713437 0.4410886221841588
0.23553191489361702 0.5285983966766137 0.4405848783629286
0.23574468085106381 0.5285119980242853 0.43917928676111373
0.23595744680851063 0.529907106835207 0.43736206756635626
0.23617021276595745 0.5330019715290659 0.4375688115030118
0.23638297872340425 0.5346662283841975 0.4339176272522163
0.23659574468085107 0.5395536653335986 0.43156925965332377
0.23680851063829786 0.5391551812200311 0.4354535222796731
0.23702127659574468 0.5423142480673223 0.4284250864503812
0.2372340425531915 0.5418321752003296 0.42836811791154156
0.2374468085106383 0.5427217458319185 0.4255719388598869
0.2376595744680851 0.5447365239611871 0.42837640604649485
0.2378723404255319 0.5465037003476035 0.42542576321728004
0.23808510638297872 0.5446995603321934 0.42452369320957506
0.23829787234042554 0.5446995603321934 0.4248916681670648
0.23851063829787233 0.543984067644886 0.4240927967254225
0.23872340425531915 0.5420618675238398 0.4149468212370303
0.23893617021276595 0.5430970463984361 0.4097904436087952
0.23914893617021277 0.5408275736561631 0.4095682760069324
0.23936170212765956 0.5373591660245913 0.41182217879824123
0.23957446808510638 0.5367883127889399 0.41182217879824123
0.2397872340425532 0.5382793131622193 0.4153818422396652
0.24 0.5307530147411988 0.41638993797021656
0.2402127659574468 0.5219792666581989 0.41365206615762906
0.2404255319148936 0.5132166670529975 0.41138783756301767
0.24063829787234042 0.5050129674299998 0.4129039672088649
0.24085106382978724 0.4957791944176926 0.41999315589852704
0.24106382978723404 0.484133027447484 0.42256961406936977
0.24127659574468086 0.47570966534920106 0.427268748006219
0.24148936170212765 0.4651454922429779 0.43177993114155966
0.24170212765957447 0.4558431914057196 0.43622105207437517
0.2419148936170213 0.44596171242115906 0.4387998411992073
0.24212765957446808 0.4273018462192329 0.45007500171616993
0.2423404255319149 0.40937299840364183 0.46257540927075325
0.2425531914893617 0.38870016645100164 0.47183978489946254
0.2427659574468085 0.36893215221328435 0.4792011722144306
0.2429787234042553 0.3478585223458201 0.4878488315079421
0.24319148936170212 0.3377504386651179 0.48412310698583294
0.24340425531914894 0.3291933137762427 0.48366273277478783
0.24361702127659574 0.32033027729718855 0.48056476679401317
0.24382978723404256 0.31675017711403947 0.4782608695652173
0.24404255319148935 0.3122495857166181 0.4755860800614324
0.24425531914893617 0.3095208282248509 0.4673998075861307
0.244468085106383 0.31176993998566677 0.4600913203953787
0.24468085106382978 0.31928704825917514 0.4530217536740471
0.2448936170212766 0.3248380484191775 0.44606457815172085
0.2451063829787234 0.32883992605530343 0.4374823399007222
0.2453191489361702 0.3326456252493134 0.43371513484266294
0.24553191489361703 0.33463605276013686 0.42950266833931944
0.24574468085106382 0.33463605276013686 0.4226226564423659
0.24595744680851064 0.33463605276013686 0.4168699578335693
0.24617021276595744 0.3330212034580204 0.41088578917230256
0.24638297872340426 0.3335421593690709 0.40986809965803617
0.24659574468085105 0.335501412471518 0.41263169858026194
0.24680851063829787 0.3317671007419148 0.4195297036479119
0.2470212765957447 0.33569279654757056 0.4246033974269062
0.24723404255319148 0.3382453359774915 0.42696217556909943
0.2474468085106383 0.34564713436493344 0.4316731416762357
0.2476595744680851 0.35329336086053215 0.4343876451790471
0.2478723404255319 0.35792121278833244 0.43711791396989624
0.24808510638297873 0.36135221167657394 0.43396580638715837
0.24829787234042552 0.3666327238773366 0.43293340876705233
0.24851063829787234 0.372958729410092 0.43277445228162764
0.24872340425531914 0.377144493119956 0.4313533447864843
0.24893617021276596 0.37969769056386704 0.4337883196565431
0.24914893617021278 0.38233766383641055 0.441380293944297
0.24936170212765957 0.3873584185665724 0.4492250010133683
0.2495744680851064 0.39258992740568305 0.45965598209997055
0.24978723404255318 0.4017377395028489 0.4686067913246481
0.25 0.4169526172962789 0.47659461653621843
0.2502127659574468 0.4337398517793734 0.48342674827657134
0.25042553191489364 0.45097137961779143 0.49261140092462985
0.25063829787234043 0.45885320972902194 0.496487058195468
0.2508510638297872 0.4640309966830444 0.4994249487670323
0.251063829787234 0.46921535123474745 0.5034621686282474
0.25127659574468086 0.47241548462341204 0.5046662166762025
0.25148936170212766 0.47435271128480694 0.5074459583505592
0.25170212765957445 0.47423591959300243 0.5055011858362852
0.2519148936170213 0.47387319349578577 0.5041434161769058
0.2521276595744681 0.47736210086757586 0.5017098192476794
0.2523404255319149 0.4833187524799001 0.5003805916199451
0.2525531914893617 0.4921680673695533 0.4965086451438458
0.2527659574468085 0.5047705025154322 0.49397514370892015
0.2529787234042553 0.519617394011208 0.4909623839765511
0.2531914893617021 0.5324973746425454 0.49145173521826657
0.25340425531914895 0.5437528759547274 0.4908470784259537
0.25361702127659574 0.5536612974203202 0.48998534440644836
0.25382978723404254 0.5640017756449744 0.4873450640458694
0.2540425531914894 0.5686027109435356 0.48249908487858156
0.2542553191489362 0.5721744053205728 0.477380918605757
0.25446808510638297 0.5738488979323447 0.470600459954779
0.25468085106382976 0.5740107474352711 0.46597548813990464
0.2548936170212766 0.5721543633202014 0.4618465869237446
0.2551063829787234 0.5710796287249633 0.460671937361006
0.2553191489361702 0.5706684660919311 0.4598733302902821
0.25553191489361704 0.5642403517342451 0.4622881045703256
0.25574468085106383 0.5645601563948984 0.4584178990906553
0.2559574468085106 0.5659745627747793 0.4512211968734342
0.2561702127659574 0.5641074796823126 0.44839472665112207
0.25638297872340426 0.5619735452381973 0.4476599155361943
0.25659574468085106 0.5609660790512074 0.45048117120409653
0.25680851063829785 0.5560809584108518 0.45505803463034233
0.2570212765957447 0.5509924156171511 0.46171737049714096
0.2572340425531915 0.5476306790425012 0.4677488928496261
0.2574468085106383 0.5410789685369536 0.47244556366408835
0.25765957446808513 0.5374841559534617 0.47615544783107355
0.2578723404255319 0.5366098576669315 0.47040648878512337
0.2580851063829787 0.5359062042012701 0.4597140759614985
0.2582978723404255 0.5359062042012701 0.4501318828415658
0.25851063829787235 0.5367002956794864 0.4471785514138208
0.25872340425531914 0.5360351453457536 0.44190701276821975
0.25893617021276594 0.5395237360997347 0.4438465148251675
0.2591489361702128 0.5273105596930775 0.4411789916604107
0.2593617021276596 0.5229037624370861 0.4417664884967354
0.25957446808510637 0.515784462706729 0.4337131388181115
0.2597872340425532 0.5095048181935157 0.42657775957482336
0.26 0.5014808439792059 0.41354728266997287
0.2602127659574468 0.4904024357021554 0.40297167987584265
0.2604255319148936 0.4787332090706196 0.39393048912695466
0.26063829787234044 0.4650848401165845 0.3843757697270098
0.26085106382978723 0.4544292911970065 0.38172712718209273
0.261063829787234 0.44271154590303763 0.3839264560143495
0.2612765957446809 0.4323843971191899 0.38736289903408094
0.26148936170212767 0.42255022175248536 0.39407016354348445
0.26170212765957446 0.41473621827070417 0.4007044227844858
0.26191489361702125 0.4082687497315707 0.406912081498838
0.2621276595744681 0.39914131131438735 0.41016955322479076
0.2623404255319149 0.3892961710298284 0.41239503281277234
0.2625531914893617 0.38082250794043876 0.41680901153227184
0.26276595744680853 0.373536620803169 0.41811868659304713
0.2629787234042553 0.36668349912386783 0.4212001132781279
0.2631914893617021 0.36464335207300497 0.42480462056988705
0.26340425531914896 0.35945837280421994 0.4293665004991974
0.26361702127659575 0.3546504916780097 0.431362970200293
0.26382978723404255 0.35222276502198335 0.4305097907637922
0.26404255319148934 0.350764560115503 0.4279506861536076
0.2642553191489362 0.35202632402216794 0.42319615909718944
0.264468085106383 0.3566055268940476 0.4169725108313762
0.26468085106382977 0.3614249249758059 0.4140853130019077
0.2648936170212766 0.36515488989491357 0.412319798203912
0.2651063829787234 0.3659013190034197 0.4157767690879196
0.2653191489361702 0.3675814225584995 0.4293081533118533
0.265531914893617 0.3695222330590198 0.4296961352848982
0.26574468085106384 0.3689506385635936 0.43799727826245083
0.26595744680851063 0.3688324377137273 0.44740984814166335
0.2661702127659574 0.3736625687554154 0.45473482635040013
0.2663829787234043 0.3740621754883196 0.45965405024275835
0.26659574468085107 0.3819932768412025 0.4588119431063938
0.26680851063829786 0.3867092375783089 0.45853676732232884
0.2670212765957447 0.3879705122243994 0.451276725835378
0.2672340425531915 0.3866735809284466 0.44894968246213973
0.2674468085106383 0.38530073525552694 0.4498477343007753
0.2676595744680851 0.3781765209612539 0.45324102494027874
0.26787234042553193 0.37173044950410683 0.4577761455129914
0.2680851063829787 0.36613281217578575 0.4656234707895971
0.2682978723404255 0.3619582850438944 0.47142159257449934
0.26851063829787236 0.3610161211529066 0.47142159257449934
0.26872340425531915 0.3597863175904411 0.4683470836683353
0.26893617021276595 0.3623963931546221 0.4652026542672181
0.26914893617021274 0.36611569172427755 0.46530513287080216
0.2693617021276596 0.37080480686088807 0.4694858034412495
0.2695744680851064 0.37512040590598156 0.4763190395978029
0.26978723404255317 0.3783726793774721 0.48988833180257213
0.27 0.3814639859021327 0.50908301639662
0.2702127659574468 0.38153395212506114 0.5276183118155253
0.2704255319148936 0.38175462042116215 0.5436281543763923
0.27063829787234045 0.38507535305634705 0.5556905204751759
0.27085106382978724 0.3897088182184717 0.5626268788375908
0.27106382978723403 0.3939355385791583 0.5542509998064713
0.2712765957446808 0.40354613380000937 0.5484697067688975
0.2714893617021277 0.40870200474031565 0.5391334589013638
0.27170212765957447 0.415495260683072 0.5253073234187983
0.27191489361702126 0.4262354725279803 0.5126591710369746
0.2721276595744681 0.4392139995762734 0.5054569828818712
0.2723404255319149 0.4497231120485803 0.49781191355432103
0.2725531914893617 0.46379916181880454 0.49003185995406306
0.2727659574468085 0.47988674993459046 0.48455818643281123
0.27297872340425533 0.4931330205780455 0.4793919367523084
0.2731914893617021 0.508834432388307 0.4742024787648289
0.2734042553191489 0.52186638250008 0.46991361586424624
0.27361702127659576 0.5344418503991141 0.46773871949442064
0.27382978723404255 0.547823287967411 0.4574297480304312
0.27404255319148935 0.5505517683431804 0.4509338498312305
0.2742553191489362 0.5536934793913764 0.4422106869355513
0.274468085106383 0.5570795024770987 0.4434213400787699
0.2746808510638298 0.5550955461023576 0.4377330546391575
0.27489361702127657 0.5573970522022647 0.43585976574752244
0.2751063829787234 0.5532538290587584 0.43939768421280306
0.2753191489361702 0.5535506953363412 0.4441222634848511
0.275531914893617 0.5573645345320631 0.44824960246678597
0.27574468085106385 0.5600829608761098 0.4512676650985336
0.27595744680851064 0.5613092330239375 0.4526119054561347
0.27617021276595743 0.5613092330239375 0.4538348803126526
0.2763829787234042 0.5613092330239375 0.4543490860174657
0.2765957446808511 0.5613092330239375 0.4549339349469666
0.27680851063829787 0.5608943102120576 0.45160418596452756
0.27702127659574466 0.5584457639713047 0.4499718218040256
0.2772340425531915 0.5592754893941034 0.4445424715493998
0.2774468085106383 0.5593551538837322 0.4319985658893707
0.2776595744680851 0.5609591053584002 0.41743011520320816
0.27787234042553194 0.5632115153067032 0.40204468237596863
0.27808510638297873 0.5623138834800258 0.3849896776690962
0.2782978723404255 0.559463596127577 0.3675290120365908
0.2785106382978723 0.557853131268147 0.3661273472657296
0.27872340425531916 0.5520556212229656 0.3682770761236693
0.27893617021276595 0.5460363289965965 0.373666561707841
0.27914893617021275 0.5410042209236074 0.38051821970997224
0.2793617021276596 0.5353231459282214 0.38676740220489686
0.2795744680851064 0.5284000142442529 0.3905980153895298
0.2797872340425532 0.5209247794339691 0.39199186055488616
0.27999999999999997 0.5146754830928361 0.3906031280346345
0.2802127659574468 0.5025862755164701 0.38777483329776313
0.2804255319148936 0.4926296448019683 0.38512838794628224
0.2806382978723404 0.4853259433603335 0.38288109519501
0.28085106382978725 0.4774821355983541 0.38398676311460334
0.28106382978723404 0.4662530839620308 0.38446507083536874
0.28127659574468084 0.4559465208226739 0.38619854417317606
0.2814893617021277 0.4473684823278794 0.3873035280532966
0.2817021276595745 0.4348440757307622 0.38005255581286024
0.28191489361702127 0.42583563127204427 0.37682891200611196
0.28212765957446806 0.4156547224934263 0.37475819901123925
0.2823404255319149 0.4061443870363362 0.3792109816674351
0.2825531914893617 0.39094489828461415 0.3904770788982647
0.2827659574468085 0.3727549706735469 0.40544985957346075
0.28297872340425534 0.35776734116211045 0.4228872753498583
0.28319148936170213 0.33992637131114356 0.44277764415263193
0.2834042553191489 0.32271107057064397 0.46534653297269235
0.2836170212765957 0.3060170452144035 0.4858658726330058
0.28382978723404256 0.29551017253797607 0.5038561312408927
0.28404255319148936 0.29081605308639447 0.516902109426698
0.28425531914893615 0.2918153482979925 0.5211998996630204
0.284468085106383 0.30213063831740145 0.517694802366265
0.2846808510638298 0.31127861626892195 0.5100640356423153
0.2848936170212766 0.32349101887054194 0.49979625213455275
0.2851063829787234 0.3296355078649957 0.48711303598820016
0.2853191489361702 0.3342029705338322 0.4773600498665619
0.285531914893617 0.34079610729393117 0.4705220519334486
0.2857446808510638 0.34692016014331717 0.46535882428081365
0.28595744680851065 0.35377817368327996 0.4570083751159081
0.28617021276595744 0.3585761002851982 0.4445418328139697
0.28638297872340424 0.3639591265042779 0.43484220868689083
0.2865957446808511 0.3700267285452826 0.4247839218381708
0.2868085106382979 0.377378381113586 0.4192118287567769
0.28702127659574467 0.381122515000789 0.42020409780489254
0.28723404255319146 0.38659650556985714 0.4256780883739607
0.2874468085106383 0.38921115297562653 0.4337376260695796
0.2876595744680851 0.3922739277963137 0.4450141723155184
0.2878723404255319 0.3931219044920801 0.460925820001177
0.28808510638297874 0.3906175369208877 0.4797563492538319
0.28829787234042553 0.38539754622964856 0.49732239124718264
0.2885106382978723 0.38042126775095614 0.5096548991269813
0.28872340425531917 0.3765786085920852 0.5218802551304385
0.28893617021276596 0.3759651322561267 0.5334318524387447
0.28914893617021276 0.3810942593549574 0.5398422636330792
0.28936170212765955 0.3890147246753553 0.5394936147018925
0.2895744680851064 0.3982169978063071 0.5342989170954048
0.2897872340425532 0.4051915820450201 0.5301141665521769
0.29 0.4104239032911823 0.5227904669923348
0.2902127659574468 0.4164348638652214 0.5148921051681519
0.2904255319148936 0.41936398802005115 0.5109149363871192
0.2906382978723404 0.4187288628826652 0.5095935429022059
0.2908510638297872 0.4177372799475266 0.5026188911666354
0.29106382978723405 0.42460351236524885 0.49341458775281594
0.29127659574468084 0.4259475658383929 0.48698865479590764
0.29148936170212764 0.42910165269776873 0.47962911879069725
0.2917021276595745 0.4325594894993154 0.47255793233627347
0.2919148936170213 0.437499539134545 0.4662620632103499
0.29212765957446807 0.4456582448221884 0.4607230242663677
0.2923404255319149 0.4563704057885906 0.4562126407015668
0.2925531914893617 0.47107698014949717 0.44975420325332005
0.2927659574468085 0.4863285217947818 0.44441140566488674
0.2929787234042553 0.5030063442720026 0.4397419005150098
0.29319148936170214 0.5209920449138864 0.4322770335360166
0.29340425531914893 0.5362897588448668 0.4244191672486994
0.2936170212765957 0.5482111735533353 0.41694816829992914
0.29382978723404257 0.5558182741447588 0.408580357649363
0.29404255319148936 0.564504405411039 0.399099071167706
0.29425531914893616 0.5685039015017143 0.39174810881939576
0.29446808510638295 0.5705861197105186 0.3869026805312319
0.2946808510638298 0.573522653622182 0.38983921444289527
0.2948936170212766 0.5703815475345158 0.39360746756151593
0.2951063829787234 0.5611981843558473 0.39822294529401236
0.29531914893617023 0.552729526091639 0.40427198691130395
0.295531914893617 0.5434828486295791 0.40998793572429193
0.2957446808510638 0.5329767163933279 0.41475329750854906
0.29595744680851066 0.5215930591401976 0.41475329750854906
0.29617021276595745 0.5174101141712489 0.41663971484682627
0.29638297872340424 0.5137613961446692 0.4198544300976478
0.29659574468085104 0.511376853764347 0.4245353904372942
0.2968085106382979 0.5142706679513063 0.4310464723579524
0.2970212765957447 0.512323203426069 0.44389175159795846
0.29723404255319147 0.5153383335669637 0.4588093189310219
0.2974468085106383 0.5210044986443875 0.47154341383529247
0.2976595744680851 0.5244501979113615 0.4721176970464548
0.2978723404255319 0.5278958971783355 0.47269198025761705
0.29808510638297875 0.5313415964453104 0.47326626346877954
0.29829787234042554 0.5312604522418264 0.47190048435663773
0.29851063829787233 0.5310210063507572 0.4691248782632646
0.2987234042553191 0.5268621769820797 0.47348106910660454
0.298936170212766 0.5234276826052727 0.4806716717064073
0.29914893617021276 0.5241632412219034 0.47544067968372394
0.29936170212765956 0.510212306355886 0.4752327945140041
0.2995744680851064 0.5035740415885676 0.4726644074684246
0.2997872340425532 0.49424035499384056 0.46787059581258306
0.3 0.48510973016538605 0.4670909077855939
0.3002127659574468 0.476885730450586 0.45734493904853424
0.30042553191489363 0.470425325514777 0.45154016660159796
0.3006382978723404 0.46258429388542105 0.4433991642648862
0.3008510638297872 0.4559354951937448 0.43632143592124945
0.30106382978723406 0.4513386849826442 0.432667740341191
0.30127659574468085 0.44659651074177964 0.42459443313369055
0.30148936170212765 0.4385616508842413 0.41755840508061715
0.3017021276595745 0.42903911519018073 0.4132375317624425
0.3019148936170213 0.42206776934965007 0.41250877148424686
0.3021276595744681 0.4168075566366707 0.41203762270984506
0.30234042553191487 0.41240063525524884 0.42014643335674823
0.3025531914893617 0.40456868066028934 0.4297527599044631
0.3027659574468085 0.39420241189702426 0.4373111496832719
0.3029787234042553 0.3891106782057301 0.4504857664859297
0.30319148936170215 0.38564412171561957 0.4584710611948603
0.30340425531914894 0.381077588933708 0.46842616067679516
0.30361702127659573 0.3777879262555139 0.47201890815094666
0.3038297872340425 0.3733469733923183 0.47152236085509414
0.3040425531914894 0.3722966461872557 0.4662707248297817
0.30425531914893617 0.37020813721831974 0.4589390183965324
0.30446808510638296 0.37180630041732676 0.4494589670162763
0.3046808510638298 0.3750501640162543 0.4420209783957901
0.3048936170212766 0.38157583822700014 0.4357282336893004
0.3051063829787234 0.37943504652761656 0.431862298068011
0.30531914893617024 0.3786028334147533 0.43047872031766904
0.30553191489361703 0.3767786435358788 0.4285617407513162
0.3057446808510638 0.3794353276459308 0.43586271381367264
0.3059574468085106 0.38739000953496316 0.43624816805080613
0.30617021276595746 0.39440230533566667 0.434572153576054
0.30638297872340425 0.3980656045236578 0.43962879639959135
0.30659574468085105 0.4064879234800468 0.44375634356264565
0.3068085106382979 0.4153408931522121 0.44744264195443895
0.3070212765957447 0.4222704319720593 0.45060457950503435
0.3072340425531915 0.42711440967338254 0.45481191988275516
0.30744680851063827 0.42917852919338917 0.45331856447594754
0.3076595744680851 0.42952347315255834 0.45004130412471266
0.3078723404255319 0.42598554547559353 0.4494389436650181
0.3080851063829787 0.41972755767986075 0.4510178923064171
0.30829787234042555 0.41189129318811374 0.4548908533353479
0.30851063829787234 0.4036071929521729 0.4600684159828109
0.30872340425531913 0.39827499249456505 0.46515088566415813
0.308936170212766 0.3956932450157882 0.4665363947239862
0.3091489361702128 0.3952125061064973 0.46889575079185286
0.30936170212765957 0.3968939860644003 0.47451195330800283
0.30957446808510636 0.4006623098697002 0.4770776131664084
0.3097872340425532 0.40572078032261955 0.4828590741497229
0.31 0.4059599413776258 0.48710164654219335
0.3102127659574468 0.40602559990794324 0.49311343870770846
0.31042553191489364 0.40693698094772834 0.4962129557045536
0.31063829787234043 0.40659412825885544 0.49826442150406247
0.3108510638297872 0.4047519385019974 0.4967714350491673
0.311063829787234 0.404849513309975 0.49975574010747437
0.31127659574468086 0.40725639743059744 0.5007139895560817
0.31148936170212765 0.41079219336412826 0.5026868588177822
0.31170212765957445 0.4186067664085052 0.5035086957691689
0.3119148936170213 0.42489437350294734 0.5032460822978407
0.3121276595744681 0.4310616378031184 0.5011945584072172
0.3123404255319149 0.4337237269258123 0.49788096975363405
0.3125531914893617 0.43771797579152416 0.4933327667121921
0.3127659574468085 0.4449368875957227 0.48852473692914916
0.3129787234042553 0.4528710213302474 0.4855853711940624
0.3131914893617021 0.46658302267372376 0.4819611858116772
0.31340425531914895 0.47782126427248794 0.4770151128564283
0.31361702127659574 0.48822219866899386 0.4730397760491308
0.31382978723404253 0.4985432329766166 0.46811968785951785
0.3140425531914894 0.5088598770269923 0.4602301247584746
0.3142553191489362 0.5172262378505995 0.4519970156911689
0.31446808510638297 0.533137744641639 0.44174442238239886
0.31468085106382976 0.5378453577272663 0.4329322037581409
0.3148936170212766 0.5480030740748877 0.42850926799176187
0.3151063829787234 0.5562662233743143 0.42293223281122805
0.3153191489361702 0.5585967959405942 0.4198571769860266
0.31553191489361704 0.5567274047501397 0.41950463367914814
0.31574468085106383 0.5566821882320472 0.42534386991817236
0.3159574468085106 0.5537896077506903 0.430089239342617
0.31617021276595747 0.5496772195229619 0.43652864982028255
0.31638297872340426 0.5471131264844137 0.43958070822705647
0.31659574468085105 0.5466536394723986 0.4416490733393889
0.31680851063829785 0.5447559956973009 0.44279938876156166
0.3170212765957447 0.5450954040479755 0.44211040547142155
0.3172340425531915 0.5449381194856798 0.4354640817218761
0.3174468085106383 0.5462863001131948 0.42776346010699356
0.3176595744680851 0.5474979044995371 0.4171908570512567
0.3178723404255319 0.5557249720278138 0.40583731231882514
0.3180851063829787 0.5660170843116186 0.39730846249696805
0.3182978723404255 0.5810648703343089 0.3921524798511978
0.31851063829787235 0.5871367878089087 0.38935026868588185
0.31872340425531914 0.6003363501270568 0.3896577933089213
0.31893617021276593 0.6057007624776706 0.3896053526296204
0.3191489361702128 0.6072300928187591 0.38403388282089257
0.3193617021276596 0.6055832962954324 0.38610082901480214
0.31957446808510637 0.5981041722115237 0.3889382705481211
0.3197872340425532 0.5862827236329384 0.39219013717011686
0.32 0.5738499873213948 0.39978334096199164
0.3202127659574468 0.561475986701689 0.409852246643523
0.3204255319148936 0.5448759903019319 0.4213083040631279
0.32063829787234044 0.5259144180873088 0.4357690008807986
0.32085106382978723 0.5087325602669676 0.44592683173754705
0.321063829787234 0.49220931534547924 0.4471956664787553
0.32127659574468087 0.475676302167861 0.44866210365549514
0.32148936170212766 0.4582142370378719 0.44359858787031636
0.32170212765957445 0.446647302450229 0.43848803750846443
0.32191489361702125 0.43431848729326644 0.43527722807636976
0.3221276595744681 0.42106774066367825 0.43567933257505037
0.3223404255319149 0.41136356354964715 0.44163185386518927
0.3225531914893617 0.39936411674769257 0.43886749093856353
0.3227659574468085 0.3894136485384976 0.4427371174643616
0.3229787234042553 0.3816175798086884 0.4472860659296227
0.3231914893617021 0.37505697051548076 0.4533858656318356
0.32340425531914896 0.3684302117960001 0.4609608459348807
0.32361702127659575 0.36509181231609167 0.46601995279180586
0.32382978723404254 0.3588865938174986 0.4675719170258232
0.32404255319148934 0.3561309233023937 0.4690642557959601
0.3242553191489362 0.3529748026589007 0.46568016866210243
0.324468085106383 0.3512457254518808 0.4594962236626772
0.32468085106382977 0.34903341094596224 0.45405584774986546
0.3248936170212766 0.3443231378296204 0.44886637183059747
0.3251063829787234 0.3434294088910601 0.44283147862502203
0.3253191489361702 0.34159965140904563 0.44211040547142155
0.325531914893617 0.33968767370353214 0.4394289214004374
0.32574468085106384 0.3327481450989526 0.44425911589488665
0.32595744680851063 0.32686030682410067 0.4490787135365029
0.3261702127659574 0.32037115686598333 0.45070837056984653
0.32638297872340427 0.3059006447073877 0.4549983787683161
0.32659574468085106 0.293728217352433 0.4575421538463889
0.32680851063829786 0.28049437761654883 0.45401104670716247
0.3270212765957447 0.26848047466735403 0.45574177400715904
0.3272340425531915 0.2628881975167432 0.45401923796071864
0.3274468085106383 0.24957629947966706 0.4547462249621439
0.3276595744680851 0.23707052684241167 0.4557774235284801
0.3278723404255319 0.22184027530620073 0.46182568763032866
0.3280851063829787 0.21139273097355196 0.4659642189807059
0.3282978723404255 0.20099212302162667 0.4699274423570289
0.32851063829787236 0.19746553864377414 0.47358276268080685
0.32872340425531915 0.2018136037334794 0.48001875475677974
0.32893617021276594 0.21148780989844623 0.48628996232567273
0.32914893617021274 0.227961720839757 0.48900830483634583
0.3293617021276596 0.2514819961149502 0.4897814810375106
0.3295744680851064 0.275207530775146 0.4922429908225783
0.32978723404255317 0.2991255987548262 0.4948446169122216
0.33 0.3201436127532517 0.4942516878059691
0.3302127659574468 0.3391721035153874 0.4946810870190521
0.3304255319148936 0.35767917373769914 0.49390853059589607
0.33063829787234045 0.3728047758589861 0.4929164631167562
0.33085106382978724 0.3895984169060394 0.4929164631167562
0.33106382978723403 0.4030813917955788 0.4920978827143157
0.3312765957446808 0.42159592954326647 0.4936881633083107
0.33148936170212767 0.438451060939938 0.4938935026868587
0.33170212765957446 0.45889485740471836 0.5006953269829584
0.33191489361702126 0.47373486447875224 0.49802436635629416
0.3321276595744681 0.4928069834285759 0.5001953246257431
0.3323404255319149 0.5161937326979253 0.4962359430537883
0.3325531914893617 0.5470049512260668 0.4910858804537532
0.3327659574468085 0.5802443722234613 0.4782288392612574
0.33297872340425533 0.6121642618618099 0.4619023674977668
0.3331914893617021 0.6365556364119674 0.44663978733415133
0.3334042553191489 0.6530752966723965 0.4324156657115799
0.33361702127659576 0.6675434785523954 0.42101638154131166
0.33382978723404255 0.6794162466594658 0.4129139927152289
0.33404255319148934 0.686315222390551 0.4045907643338782
0.3342553191489362 0.6898891291606066 0.3979452394804476
0.334468085106383 0.6889778151775645 0.3969207666090103
0.3346808510638298 0.6830021669125027 0.4006265794766158
0.33489361702127657 0.6771299309656177 0.4054299127080511
0.3351063829787234 0.6748865408185358 0.4113549123921563
0.3353191489361702 0.6706935803981162 0.4214941524353313
0.335531914893617 0.6697606253053248 0.42778436409617787
0.33574468085106385 0.6633941385979173 0.43661733439950945
0.33595744680851064 0.6489559585483832 0.4381562336053235
0.33617021276595743 0.6374943445030249 0.44507349083361536
0.3363829787234042 0.6327246094091687 0.44861707685991425
0.33659574468085107 0.6053775604489182 0.4435704759796693
0.33680851063829786 0.590752353391367 0.43960968256846045
0.33702127659574466 0.5810940671480176 0.43746949853779105
0.3372340425531915 0.5747460595133861 0.4378975554254887
0.3374468085106383 0.5713477568235649 0.43580738467790653
0.3376595744680851 0.569699940549185 0.4321091035234711
0.33787234042553194 0.5709689986039632 0.42992506837538924
0.33808510638297873 0.5725180066886172 0.42940889106008795
0.3382978723404255 0.5731667887562278 0.43440443313531674
0.3385106382978723 0.5734107534063992 0.4460021695663458
0.33872340425531916 0.5690930167858219 0.4600987074541537
0.33893617021276595 0.5643125203501717 0.4724444283433299
0.33914893617021274 0.5617175512031737 0.4776483922963631
0.3393617021276596 0.5554913539254603 0.4782608695652173
0.3395744680851064 0.5464646884462988 0.47114507615462115
0.3397872340425532 0.5399796207583824 0.46569707038446856
0.34 0.530795391976255 0.45960042585848165
0.3402127659574468 0.5232201393219442 0.45652560151343674
0.3404255319148936 0.5107015797602834 0.4545101398351621
0.3406382978723404 0.4962142183713711 0.458326575748043
0.34085106382978725 0.4796017693459221 0.457022724872931
0.34106382978723404 0.46830917514000586 0.4561701705143722
0.34127659574468083 0.4548202980555216 0.4521075607921275
0.3414893617021277 0.44269164717448317 0.44746059668438376
0.3417021276595745 0.43189480623786924 0.4421182811536988
0.34191489361702126 0.42103772084105595 0.43841334014695693
0.34212765957446806 0.4118677246670598 0.4380630375439415
0.3423404255319149 0.4002306030044642 0.4398454757675346
0.3425531914893617 0.3881723324920028 0.44234283901792465
0.3427659574468085 0.3751905315402832 0.4415102790622645
0.34297872340425534 0.3668192849557363 0.4394415627474899
0.34319148936170213 0.35863708803701627 0.43827125789031335
0.3434042553191489 0.35616121331288836 0.4382022471910112
0.34361702127659577 0.35201454881617655 0.4329839034112074
0.34382978723404256 0.34702758218353674 0.42467410614518775
0.34404255319148935 0.3440754745747407 0.41884282482133367
0.34425531914893615 0.34200696243260276 0.4227420656561559
0.344468085106383 0.340217274285704 0.41783144022894764
0.3446808510638298 0.340197075566727 0.4219671848413193
0.3448936170212766 0.34108074452255177 0.4264966193510903
0.3451063829787234 0.34323417408438445 0.43032085236129863
0.3453191489361702 0.3458420195822924 0.43291849425751944
0.345531914893617 0.3453834880312652 0.43855531429168904
0.3457446808510638 0.34428674089256356 0.44211040547142155
0.34595744680851065 0.33860384873204974 0.44452318555092674
0.34617021276595744 0.33100654453920886 0.4493089550311394
0.34638297872340423 0.32375767212026335 0.45233694537927566
0.3465957446808511 0.312626210481347 0.45518492270941413
0.3468085106382979 0.29712884928437716 0.4606944147865559
0.34702127659574467 0.28252726765745034 0.46251192278265046
0.3472340425531915 0.26894315056973417 0.4653872500977514
0.3474468085106383 0.2633114741106724 0.4606734672713955
0.3476595744680851 0.25874346056630415 0.4557889594528579
0.3478723404255319 0.26459652392619837 0.45527675909711135
0.34808510638297874 0.26804618945163744 0.4497475477623337
0.34829787234042553 0.27346193087848686 0.44316021087501634
0.3485106382978723 0.2791092489941857 0.438158716556218
0.34872340425531917 0.2839274536167745 0.4343428181615871
0.34893617021276596 0.29047896792604405 0.4385974376486617
0.34914893617021275 0.29680785902578344 0.44657126275112724
0.34936170212765955 0.3009724805213065 0.4564103580270363
0.3495744680851064 0.3062659107406709 0.4689716511474843
0.3497872340425532 0.31163841717288165 0.48314727886999936
0.35 0.3201239855822134 0.4912052667954858
0.3502127659574468 0.3340788078812655 0.4990305773521104
0.3504255319148936 0.3480571970750227 0.5039051237171738
0.3506382978723404 0.3630085711481812 0.5022883688187272
0.35085106382978726 0.3802335636551027 0.48737757459599645
0.35106382978723405 0.3959395811034659 0.47346203573540696
0.35127659574468084 0.41724646602346166 0.4637929689545623
0.35148936170212763 0.43973050690095866 0.46190942288428616
0.3517021276595745 0.4608911580196632 0.46174830437006664
0.3519148936170213 0.4804851791915401 0.467525900179013
0.35212765957446807 0.5046194691393956 0.4802006361596947
0.3523404255319149 0.5229695755073464 0.4939923014949794
0.3525531914893617 0.5359400032959631 0.5040682338538028
0.3527659574468085 0.5505819185875127 0.508477034861421
0.3529787234042553 0.562509526044983 0.5074827552879178
0.35319148936170214 0.5728574595105673 0.5016377851818798
0.35340425531914893 0.5788094428416004 0.49753364940669076
0.3536170212765957 0.5839266309007437 0.5008782674420237
0.35382978723404257 0.5901442591088326 0.5041565377618923
0.35404255319148936 0.5931789155513785 0.5054316658851176
0.35425531914893615 0.5978104761335771 0.5064697649873408
0.354468085106383 0.6020793673775088 0.5056843594257742
0.3546808510638298 0.5985017955196351 0.5065787523902427
0.3548936170212766 0.6010345789962296 0.5013348832955261
0.3551063829787234 0.592578809767219 0.49172757203107353
0.3553191489361702 0.5842453904248995 0.4811434432826273
0.355531914893617 0.579989538405987 0.47378019273861804
0.3557446808510638 0.5743001604177386 0.4626652253292088
0.35595744680851066 0.5746385018402602 0.45299467813194977
0.35617021276595745 0.5748261243228516 0.44389575845413437
0.35638297872340424 0.5755035524409968 0.43774097305653176
0.35659574468085103 0.5765203487159777 0.43518179200677
0.3568085106382979 0.5807401833848416 0.4333170493404983
0.3570212765957447 0.5828041035661944 0.435195487367167
0.35723404255319147 0.5800664530205802 0.43693258068720964
0.3574468085106383 0.5737031138929537 0.4364833745647901
0.3576595744680851 0.5688622298295394 0.43544955843442434
0.3578723404255319 0.5595797396558924 0.4344142514448271
0.35808510638297875 0.5548050292928576 0.4316142751450217
0.35829787234042554 0.5468943713998706 0.4218934894086072
0.35851063829787233 0.5436166137726025 0.4145150067822004
0.3587234042553191 0.5394065607568883 0.4055521396528336
0.35893617021276597 0.5339677766483455 0.40052537896550033
0.35914893617021276 0.5265298653251282 0.3968199136210756
0.35936170212765955 0.5182810714124617 0.3952125061064973
0.3595744680851064 0.5103129761386416 0.3950957822254909
0.3597872340425532 0.5010928483870521 0.39397105045326875
0.36 0.4945358583004487 0.39175059310143723
0.3602127659574468 0.49004343799284233 0.3977404868449123
0.3604255319148936 0.48549187564292157 0.3963075210321682
0.3606382978723404 0.48018537657904753 0.39849394811215166
0.3608510638297872 0.4739470006953164 0.40564410678974006
0.36106382978723406 0.4669279390482861 0.41438330328663847
0.36127659574468085 0.4592463645200197 0.42114154954730915
0.36148936170212764 0.4519803452694113 0.4235466536394723
0.3617021276595745 0.446549050788316 0.4235466536394723
0.3619148936170213 0.44144703778671224 0.4246895351307523
0.3621276595744681 0.4351001180910764 0.42832085014325466
0.36234042553191487 0.4265079555890134 0.4364073560777465
0.3625531914893617 0.41819438793304575 0.4463836372649078
0.3627659574468085 0.411481756212711 0.4582731669694724
0.3629787234042553 0.40560078889435236 0.4683179841284876
0.36319148936170215 0.40132130836851465 0.47402395816293796
0.36340425531914894 0.4032562817314533 0.4794429670949347
0.36361702127659573 0.396310145839806 0.4868625161474517
0.3638297872340425 0.38510737337999756 0.49493748966205625
0.36404255319148937 0.37767945270948916 0.49642307379615785
0.36425531914893616 0.36963275046833705 0.49346964126599524
0.36446808510638296 0.3644814968978451 0.4877449156142186
0.3646808510638298 0.36247349382693617 0.4806297883603539
0.3648936170212766 0.36160644551082016 0.47205292309093194
0.3651063829787234 0.36039610862909915 0.4621492862729424
0.36531914893617023 0.3587843964939817 0.45175781917683694
0.365531914893617 0.35947135014023596 0.44248008724289883
0.3657446808510638 0.3647533527779079 0.4364435127998451
0.3659574468085106 0.3621330496441908 0.432526528331971
0.36617021276595746 0.3629631633407386 0.4274125902056429
0.36638297872340425 0.36177026547946556 0.42092388876863585
0.36659574468085104 0.3587900179011725 0.412799218368344
0.3668085106382979 0.35694138068506 0.41246605399347147
0.3670212765957447 0.3568203600076844 0.4115345759334294
0.3672340425531915 0.3576784553603875 0.41488312726029775
0.36744680851063827 0.3538297255649396 0.4201142463995998
0.3676595744680851 0.3519461395895369 0.42661313488049013
0.3678723404255319 0.34930863717458094 0.4337291102424756
0.3680851063829787 0.3477725830219628 0.44416450810672403
0.36829787234042555 0.3437512514778677 0.4525359981557423
0.36851063829787234 0.3414753297508548 0.4580499157086488
0.36872340425531913 0.34006588728075166 0.4674490513188359
0.368936170212766 0.33875511804407005 0.4696784204378169
0.36914893617021277 0.3410549809101006 0.4703044367241452
0.36936170212765956 0.34421016431691454 0.46953294148237673
0.36957446808510636 0.34733296303728317 0.46458998914075994
0.3697872340425532 0.3533871957907792 0.4567035352900627
0.37 0.3565247221849008 0.45565769315868887
0.3702127659574468 0.35967497154929745 0.4546076100372232
0.37042553191489364 0.3636549483681744 0.4538348803126526
0.3706382978723404 0.3689021007702174 0.45627718644136867
0.3708510638297872 0.373730640060747 0.45941239021473607
0.371063829787234 0.3810538360290661 0.46068136046541913
0.37127659574468086 0.39007520935125123 0.46528831756844324
0.37148936170212765 0.40055717787322964 0.4753867905955553
0.37170212765957444 0.41104257957797424 0.48373330737569936
0.3719148936170213 0.41844902343267654 0.48899411780112717
0.3721276595744681 0.4341536956267596 0.48913150909658387
0.3723404255319149 0.44461184458995806 0.4843618178701503
0.3725531914893617 0.4591393169672453 0.47693446432504827
0.3727659574468085 0.4779051166835813 0.4621581404851732
0.3729787234042553 0.49575074813239844 0.4572428706491261
0.3731914893617021 0.5131160663413039 0.45457259118056825
0.37340425531914895 0.5265092637171462 0.4523801713394606
0.37361702127659574 0.5344885126293624 0.4473931407693256
0.37382978723404253 0.5416936585287061 0.44406448461162684
0.3740425531914894 0.54826789480472 0.440942191948166
0.37425531914893617 0.5485467582967842 0.43424836867373623
0.37446808510638296 0.5442009836933732 0.428870087006192
0.37468085106382976 0.5395924686990299 0.4246421936550864
0.3748936170212766 0.5337313421573884 0.42346798092470417
0.3751063829787234 0.5309654999745343 0.4255108248480818
0.3753191489361702 0.5243677292728712 0.42671041952111133
0.37553191489361704 0.5213865387238645 0.4283451860352714
0.37574468085106383 0.5243195426493268 0.43069158917564115
0.3759574468085106 0.5265746228225068 0.4341946779850234
0.37617021276595747 0.5290136649588296 0.43814898493928883
0.37638297872340426 0.5329278197210683 0.4420631397015275
0.37659574468085105 0.5359897643447687 0.44060306604451843
0.37680851063829784 0.5400318575209299 0.447083276580242
0.3770212765957447 0.542354921127996 0.4497308025901244
0.3772340425531915 0.5433091083456426 0.447822428154831
0.3774468085106383 0.5450581795084585 0.4487764816504246
0.3776595744680851 0.5472263747171529 0.44947192349045917
0.3778723404255319 0.5496324817051099 0.44519875327782693
0.3780851063829787 0.554048437629771 0.4400734945270227
0.37829787234042556 0.5567178515254847 0.4304815211441124
0.37851063829787235 0.5583896208791885 0.4255007327796776
0.37872340425531914 0.561444920598566 0.4255007327796776
0.37893617021276593 0.5642378283671171 0.4259879908811648
0.3791489361702128 0.5666449909946156 0.427191572194914
0.3793617021276596 0.5624785432348279 0.42954055734642715
0.37957446808510636 0.5572096834460663 0.4311682317223658
0.3797872340425532 0.5535278908493987 0.43055459962292125
0.38 0.5442359153681577 0.4333082699919045
0.3802127659574468 0.5338092838445199 0.43586690980412424
0.3804255319148936 0.5260576402299569 0.43445752005602184
0.38063829787234044 0.5167687711724566 0.43816639556799397
0.38085106382978723 0.5075632619874009 0.44104614315510865
0.381063829787234 0.4986679293938391 0.44459922444274547
0.38127659574468087 0.4889225418248643 0.4509037616023448
0.38148936170212766 0.47195232474967946 0.4509037616023448
0.38170212765957445 0.4549821076744946 0.4509037616023448
0.3819148936170213 0.43799304611153844 0.4509219530005598
0.3821276595744681 0.41934285018608536 0.45254370916799064
0.3823404255319149 0.3989303144980758 0.4498032911824454
0.3825531914893617 0.37930617317847537 0.4482032177942438
0.3827659574468085 0.3680896314523766 0.4472387491495964
0.3829787234042553 0.3618547757123179 0.4456467555582339
0.3831914893617021 0.35723586675587815 0.44728409604327013
0.38340425531914896 0.3546871681413372 0.4512832604169097
0.38361702127659575 0.35460561134639684 0.4572650177863187
0.38382978723404254 0.357171447208116 0.4651819329561668
0.38404255319148933 0.36186844177062927 0.47340167344056505
0.3842553191489362 0.3664625591759568 0.4767266944080476
0.384468085106383 0.3714181452852075 0.47657128056679826
0.38468085106382977 0.3766158053263512 0.47320662295924154
0.3848936170212766 0.3793042665775546 0.4656847412129862
0.3851063829787234 0.3840999832225441 0.45283002896579166
0.3853191489361702 0.38835158124037134 0.44119289755869034
0.38553191489361704 0.38045895250026884 0.42989613035674273
0.38574468085106384 0.3787742819982642 0.42147277784671894
0.38595744680851063 0.37490962792596105 0.4123058225793819
0.3861702127659574 0.36981802012080683 0.4030441997738762
0.38638297872340427 0.3637869396988082 0.39700628508229635
0.38659574468085106 0.3605893357453227 0.39370198477691487
0.38680851063829785 0.35695334318388766 0.388577170242839
0.3870212765957447 0.3575641667829354 0.3856935652472616
0.3872340425531915 0.36218070339347463 0.39111680515562164
0.3874468085106383 0.3629438638945022 0.39551770209761294
0.3876595744680851 0.3692128085316185 0.40542289540748583
0.3878723404255319 0.3706809161455243 0.4207477688320007
0.3880851063829787 0.37176355642403514 0.4392095064355059
0.3882978723404255 0.3701300950066705 0.4576614766880844
0.38851063829787236 0.3670327067499526 0.47358097040265534
0.38872340425531915 0.3659013190034197 0.4871213420377496
0.38893617021276594 0.36306087046366814 0.4959331689211162
0.3891489361702128 0.3612260886676076 0.500102877133474
0.3893617021276596 0.36184304216993834 0.4999058586605453
0.3895744680851064 0.36551965782804186 0.49622924300244187
0.38978723404255317 0.37529260601439635 0.4986649679303571
0.39 0.3836138779373379 0.5028756288258898
0.3902127659574468 0.3900082911849409 0.512055984635382
0.3904255319148936 0.39829755856688226 0.5190734741528767
0.39063829787234045 0.4061391641379022 0.5250778431614209
0.39085106382978724 0.408120453894202 0.530723789335615
0.39106382978723403 0.4138952131059549 0.5379792385089838
0.3912765957446808 0.42115442045467427 0.5473752727140301
0.39148936170212767 0.427999077218514 0.5596109030013827
0.39170212765957446 0.43706117626774543 0.5690161953493161
0.39191489361702125 0.44628112163976336 0.571436869566049
0.3921276595744681 0.4565593783538223 0.5701025891548608
0.3923404255319149 0.4699411471998103 0.5643633927750891
0.3925531914893617 0.4895799190136497 0.5543877749653726
0.39276595744680853 0.5047972718473311 0.5343852647840661
0.3929787234042553 0.5204147306082537 0.5154215861493459
0.3931914893617021 0.5361165415425665 0.495241452181968
0.3934042553191489 0.5505409151889425 0.48657614719302256
0.39361702127659576 0.5566459861096962 0.4767140800169331
0.39382978723404255 0.5609141410508517 0.4753297508549097
0.39404255319148934 0.5631788296138703 0.47813414573980895
0.3942553191489362 0.5631627939738767 0.47433835154334036
0.394468085106383 0.5562158841188289 0.4729593696055134
0.3946808510638298 0.5504512207538755 0.4662098504186999
0.39489361702127657 0.5238998315879678 0.45478276984233346
0.3951063829787234 0.5030299147454801 0.4460233026802856
0.3953191489361702 0.4802548185519345 0.4409226994663625
0.395531914893617 0.4588846609063362 0.43908673332057657
0.39574468085106385 0.4457399194301639 0.4359271917476085
0.39595744680851064 0.43768835941582784 0.4348983966443819
0.39617021276595743 0.43742209368674334 0.4295619654573131
0.3963829787234043 0.44258983139814345 0.42062644755915995
0.39659574468085107 0.45102613012136306 0.4155081958771719
0.39680851063829786 0.46364062388600663 0.4119643353769506
0.39702127659574465 0.4743125461914824 0.40890444845237506
0.3972340425531915 0.47866276959923654 0.4113613695281352
0.3974468085106383 0.4777753578478803 0.4098741157934646
0.3976595744680851 0.47025337775190734 0.40967222144828996
0.39787234042553193 0.45675760451505565 0.4090300375616694
0.3980851063829787 0.4467626378782053 0.41157415408945014
0.3982978723404255 0.4355260532716438 0.4127760433873494
0.3985106382978723 0.43129349812217205 0.41161376256387827
0.39872340425531916 0.42907850087366395 0.4057947462844138
0.39893617021276595 0.4256424890871399 0.4031553243926467
0.39914893617021274 0.42608074409745267 0.396754025933659
0.3993617021276596 0.4250342972192773 0.3900278378018312
0.3995744680851064 0.42889813311467256 0.38430133430629315
0.3997872340425532 0.4368030514513569 0.3777877568843159
0.4 0.44444967624754367 0.37593829151417724
0.4002127659574468 0.45542581804937404 0.37808837495802466
0.4004255319148936 0.47535198605065865 0.3806386333518865
0.4006382978723404 0.4948884064416246 0.3819514073562006
0.40085106382978725 0.5122829489398129 0.3809260484796802
0.40106382978723404 0.5318012237108022 0.3812150542497625
0.40127659574468083 0.5477346962283521 0.38506052815608854
0.4014893617021277 0.5591906015260985 0.3912884544685112
0.40170212765957447 0.5680011881820155 0.4025451647967523
0.40191489361702126 0.5716346620260996 0.41132219642696205
0.40212765957446805 0.5629724765795449 0.42436091691537087
0.4023404255319149 0.5506966812778641 0.43355280684716246
0.4025531914893617 0.5307979276297079 0.4455661872424
0.4027659574468085 0.5151951797848124 0.4509727592610246
0.40297872340425533 0.5011641964754207 0.456198176532052
0.4031914893617021 0.4928803630249986 0.46241105161986845
0.4034042553191489 0.4858948729419206 0.46933656613526353
0.40361702127659577 0.4843810197552801 0.4787220835964255
0.40382978723404256 0.48042875958544734 0.4845962909658807
0.40404255319148935 0.474604827683542 0.48939283545941953
0.40425531914893614 0.46903204500681095 0.48915161805101726
0.404468085106383 0.46510238932905773 0.4846431807311095
0.4046808510638298 0.46717209473485843 0.47997946034410927
0.4048936170212766 0.47699229796933107 0.47341264252692106
0.4051063829787234 0.4911099558310472 0.4688670417215223
0.4053191489361702 0.5049212455243546 0.46192964124960245
0.405531914893617 0.516798208311681 0.461196956292047
0.4057446808510638 0.5153052095419101 0.4576598749058572
0.40595744680851065 0.5109958112785346 0.455058237832721
0.40617021276595744 0.4914299791913023 0.4557201673202458
0.40638297872340423 0.4763929895466313 0.4519054294929101
0.4065957446808511 0.4550305348133835 0.4521178088722833
0.40680851063829787 0.4387683911146421 0.45648841197964557
0.40702127659574466 0.4239658751049222 0.45398836608012816
0.4072340425531915 0.41358646438507884 0.4541687580746834
0.4074468085106383 0.4024029195310121 0.45133356704219924
0.4076595744680851 0.3893039593444945 0.4486085661583097
0.4078723404255319 0.37767013998092874 0.4456321825374187
0.40808510638297874 0.3695425235647918 0.44370890446618333
0.4082978723404255 0.36285717310444626 0.4411051091041526
0.4085106382978723 0.3562522754356213 0.44240413959288066
0.40872340425531917 0.35479565120939716 0.44653971280046106
0.40893617021276596 0.35447666856905435 0.4554220096876427
0.40914893617021275 0.35491362317929653 0.463877531282921
0.40936170212765954 0.35276149005100976 0.47273653619772776
0.4095744680851064 0.35564128563878283 0.47948049221000627
0.4097872340425532 0.35795491568440474 0.481126944896428
0.41 0.36099832465661796 0.4811919882755251
0.4102127659574468 0.3631151603565446 0.4770422298893936
0.4104255319148936 0.36632960361660893 0.47250570329789915
0.4106382978723404 0.3701361510315422 0.4741923560839847
0.41085106382978726 0.37373823189664246 0.4811131785812057
0.41106382978723405 0.3811103713498943 0.4948365955411021
0.41127659574468084 0.3835139052340822 0.5083182876006884
0.41148936170212763 0.3854421104054715 0.5196975118811458
0.4117021276595745 0.3881388994145854 0.5301809920139152
0.41191489361702127 0.39373254993180085 0.53881428800031
0.41212765957446806 0.4003555889524391 0.5432662366014682
0.4123404255319149 0.4092210661209902 0.5414046523693933
0.4125531914893617 0.4211114322526872 0.5315021485973372
0.4127659574468085 0.43493074329634457 0.5177724872178936
0.4129787234042553 0.452290201519349 0.5010815073349352
0.41319148936170214 0.4712771211252504 0.47853789699545585
0.41340425531914893 0.48632029157328704 0.4558097911554648
0.4136170212765957 0.49927093574039166 0.4331480170488668
0.41382978723404257 0.5108491481165921 0.41436211906146475
0.41404255319148936 0.5204639578559646 0.4043586007101945
0.41425531914893615 0.5300224193151698 0.400119251422495
0.414468085106383 0.5361755584194444 0.39853622287523555
0.4146808510638298 0.5411256126168124 0.403028822667318
0.4148936170212766 0.5441843984460026 0.4092107653016071
0.4151063829787234 0.5437225207620908 0.41925221971144644
0.4153191489361702 0.5461806306693101 0.4274858338838084
0.415531914893617 0.5469603993251795 0.4330670494994773
0.4157446808510638 0.5473817066641541 0.4386624920611337
0.41595744680851066 0.5492004960572696 0.4459123220520339
0.41617021276595745 0.548586752746751 0.4502454132669922
0.41638297872340424 0.5456920280972082 0.4469647469321101
0.4165957446808511 0.5487401277307349 0.44086854766505684
0.4168085106382979 0.5501400719634421 0.43722520762090866
0.41702127659574467 0.5476800506799425 0.43436814636676274
0.41723404255319146 0.5446068515481967 0.4308280960232434
0.4174468085106383 0.5437225207620908 0.4262915268057012
0.4176595744680851 0.5420328522660611 0.4246730993034922
0.4178723404255319 0.5368306914664591 0.42210583799225704
0.41808510638297874 0.533952125061065 0.42395883449460525
0.41829787234042554 0.5312632648763302 0.4197556218879431
0.41851063829787233 0.5271292937059142 0.41889338145480953
0.4187234042553191 0.5245764992280785 0.4149605675425648
0.41893617021276597 0.5216671963073651 0.410423547201548
0.41914893617021276 0.5194636805018337 0.4071877044361896
0.41936170212765955 0.5174074534556752 0.4022142858131012
0.4195744680851064 0.5143320271915118 0.40021666365826225
0.4197872340425532 0.5098078307343468 0.40619172292571115
0.42 0.5005998918921827 0.4095847646851191
0.42021276595744683 0.4914834943938835 0.41498126208493413
0.4204255319148936 0.47929527706864017 0.42042224557096763
0.4206382978723404 0.4682034163397966 0.4232132493163103
0.4208510638297872 0.45862513953451817 0.42338892170746684
0.42106382978723406 0.4504128867249296 0.4190260793084749
0.42127659574468085 0.44311372803149646 0.41330964064503867
0.42148936170212764 0.43742620499848794 0.40702296936231885
0.4217021276595745 0.4316231476018795 0.40096587817173396
0.4219148936170213 0.42472773258312735 0.39778319053634753
0.4221276595744681 0.41747205073631216 0.39716658524670256
0.42234042553191486 0.40703531240760815 0.40507115312946934
0.4225531914893617 0.39649004765298096 0.41797769134863316
0.4227659574468085 0.38610809663115164 0.4314742276770116
0.4229787234042553 0.3757421829489308 0.44009995173562827
0.42319148936170214 0.36384198062718437 0.44694297370391944
0.42340425531914894 0.3619022848420375 0.44620031551377554
0.42361702127659573 0.36043887474013175 0.4472510848760686
0.4238297872340426 0.3577006310163426 0.44269233294562654
0.42404255319148937 0.36131186358371425 0.43935147110004474
0.42425531914893616 0.36898179175917856 0.43710313590542804
0.42446808510638295 0.3791130496890383 0.4408565612749428
0.4246808510638298 0.38801739072442654 0.43938635382069713
0.4248936170212766 0.39962705786079916 0.4440746981481069
0.4251063829787234 0.405780642705284 0.4493207477973913
0.42531914893617023 0.40730584792164004 0.4543134915572111
0.425531914893617 0.4089338599139397 0.4584514647411397
0.4257446808510638 0.40626281160043404 0.4633024057908704
0.4259574468085106 0.40420452444516436 0.4661390703084987
0.42617021276595746 0.39811294840974265 0.47074561888661354
0.42638297872340425 0.39446125820587136 0.4750286952956076
0.42659574468085104 0.38653756900146957 0.48302764838983486
0.4268085106382979 0.37941106719101364 0.4814451969662884
0.4270212765957447 0.37509264248363605 0.4871507377329423
0.4272340425531915 0.36909299443006954 0.4883178584077475
0.4274468085106383 0.3645180640609988 0.4905946674649257
0.4276595744680851 0.3616535243831448 0.4918631223887825
0.4278723404255319 0.3577664441709574 0.49028253792291215
0.4280851063829787 0.3563906091175778 0.49040572497454143
0.42829787234042555 0.3539444809480136 0.48527091760318636
0.42851063829787234 0.35222276502198335 0.48504038053822124
0.42872340425531913 0.3511914605897884 0.4855615339099405
0.428936170212766 0.3508427844321759 0.48682244220712845
0.42914893617021277 0.35061592042906886 0.48740146024343134
0.42936170212765956 0.3502686858817783 0.4897894099988214
0.42957446808510635 0.3529346207611607 0.4902959002567054
0.4297872340425532 0.35486464379661403 0.4906731440408739
0.43 0.3626211917443378 0.49469603798257444
0.4302127659574468 0.36492427943331696 0.4934397349404383
0.43042553191489363 0.3709672307166195 0.49205318436199874
0.4306382978723404 0.37638562792418273 0.49193942354665365
0.4308510638297872 0.3835058857423101 0.4889993775978239
0.43106382978723407 0.38577691061544866 0.4881651853502342
0.43127659574468086 0.3911099414248416 0.4906375387138295
0.43148936170212765 0.396749098651453 0.4935649186489707
0.43170212765957444 0.4012723417144922 0.4877921900076228
0.4319148936170213 0.40850597942912614 0.4861662873291979
0.4321276595744681 0.41485644660063614 0.48412310698583294
0.4323404255319149 0.427655998891307 0.4828903034102825
0.4325531914893617 0.43982785096450977 0.47933175924009325
0.4327659574468085 0.4527599635995366 0.47047140421249417
0.4329787234042553 0.4688082709678946 0.4581761284194049
0.4331914893617021 0.4865580306224369 0.4461464501645841
0.43340425531914895 0.5017190510647477 0.43372786759876947
0.43361702127659574 0.5139478238484296 0.4212988255534561
0.43382978723404253 0.525286330270931 0.41217351580953204
0.4340425531914894 0.5314587226772826 0.4012842150928799
0.43425531914893617 0.5357164639762725 0.3945200768738912
0.43446808510638296 0.540791402051783 0.3872447937304737
0.4346808510638298 0.5408599994599927 0.37373431141940616
0.4348936170212766 0.5420055183508675 0.3595936607790158
0.4351063829787234 0.5442448994848884 0.34807276262514797
0.4353191489361702 0.5464223980839885 0.3429148520977777
0.43553191489361703 0.5459629042836633 0.348987318563039
0.4357446808510638 0.5456255545377661 0.37100532088555155
0.4359574468085106 0.5453239049986027 0.40571680595469356
0.43617021276595747 0.5448726914964216 0.4471626789453773
0.43638297872340426 0.5365723743932947 0.49122882191876055
0.43659574468085105 0.5302620571543344 0.5292006751624542
0.43680851063829784 0.5228011983346407 0.5577832304941754
0.4370212765957447 0.5145527252584448 0.5743266701620185
0.4372340425531915 0.512457254518808 0.578650199757573
0.4374468085106383 0.510114989505812 0.5734306602554602
0.4376595744680851 0.5111875344377236 0.5571040806320557
0.4378723404255319 0.5159296232086846 0.5384520862972939
0.4380851063829787 0.5239403058043423 0.5160522880072819
0.43829787234042555 0.5332115535285064 0.4882397837143276
0.43851063829787235 0.5408817171021281 0.4614377148053974
0.43872340425531914 0.5420651071712045 0.4377830019366662
0.43893617021276593 0.5441375869017281 0.421410697162296
0.4391489361702128 0.5464750936614258 0.40800494755340017
0.43936170212765957 0.5508712817988651 0.4010886256505225
0.43957446808510636 0.5528066210266854 0.39490340703815696
0.4397872340425532 0.5477392515538277 0.38956741370853487
0.44 0.5446842521957717 0.3859191490882063
0.4402127659574468 0.5405369303242763 0.38446507083536874
