0.0 0.4665363947239862 0.45969711773326827
0.0002127659574468085 0.4665363947239862 0.45933710647718556
0.000425531914893617 0.4665363947239862 0.4589770952211028
0.0006382978723404255 0.4665363947239862 0.4586170839650201
0.000851063829787234 0.4665363947239862 0.45825707270893734
0.0010638297872340426 0.4665363947239862 0.45789706145285464
0.001276595744680851 0.46783546314068153 0.45817606139862804
0.0014893617021276596 0.46946751343429405 0.45797968759486757
0.001702127659574468 0.4689998097386145 0.45613973722461754
0.0019148936170212765 0.466216869583142 0.4582269423412218
0.002127659574468085 0.4681995737055397 0.4567399142494236
0.002340425531914894 0.4712307905991226 0.45461344134297216
0.002553191489361702 0.47239863214460187 0.45327575572699796
0.0027659574468085106 0.47415402010460744 0.45329668773255144
0.0029787234042553193 0.4760540691807321 0.45434032280121284
0.0031914893617021275 0.4757499866374365 0.4559990773441213
0.003404255319148936 0.47915403142750546 0.4577010997391557
0.003617021276595745 0.4804476851057293 0.4583479265782676
0.003829787234042553 0.48278464160687784 0.4599942008282477
0.004042553191489362 0.4868396205237427 0.4624757495640349
0.00425531914893617 0.49114631713183654 0.46165119687347334
0.004468085106382979 0.4938935026868587 0.4617574077238834
0.004680851063829788 0.4939906772070222 0.4635404930002363
0.004893617021276595 0.4963619676862875 0.46195963268072604
0.005106382978723404 0.49608059147193734 0.46090716694824413
0.005319148936170213 0.4981703420796322 0.4598999038858481
0.005531914893617021 0.5054251352741395 0.45803550904907625
0.00574468085106383 0.5014943687261318 0.45689293053105295
0.005957446808510639 0.49989886831304253 0.4575999103874948
0.006170212765957446 0.5013493877066294 0.4561493909939079
0.006382978723404255 0.5017098192476794 0.4588598200585025
0.006595744680851064 0.5009736075548793 0.4589609060404679
0.006808510638297872 0.5028217765841245 0.4587200781631655
0.007021276595744681 0.5003231835114115 0.46139265006434416
0.00723404255319149 0.49877870053737183 0.4619864457862963
0.007446808510638298 0.5000330097227129 0.4610240422808028
0.007659574468085106 0.5007327796775769 0.46298047697603634
0.007872340425531916 0.500248375402629 0.46312910275893737
0.008085106382978723 0.4964320470933166 0.4609125984258828
0.008297872340425531 0.487680513842949 0.4581824084408365
0.00851063829787234 0.47708194864408593 0.4538348803126526
0.008723404255319148 0.4706155315335353 0.4538348803126526
0.008936170212765958 0.46673324383810827 0.4538348803126526
0.009148936170212766 0.4612660914793214 0.44944296094209857
0.009361702127659575 0.4547716811050506 0.45400894777498546
0.009574468085106383 0.4521974544113801 0.44744350332702837
0.00978723404255319 0.447086116364187 0.4480734286696579
0.01 0.44452626698066394 0.44791916806000875
0.010212765957446808 0.4427290305948719 0.446327876313557
0.010425531914893617 0.4400382875331539 0.44551367937397973
0.010638297872340425 0.43940370957477765 0.44805199120748423
0.010851063829787235 0.44188762195835823 0.44894968246213973
0.011063829787234043 0.4448529377369765 0.4491382689068926
0.01127659574468085 0.4440904251412358 0.4499007815026333
0.01148936170212766 0.44550449993738006 0.44944671692365784
0.011702127659574468 0.4469952295949858 0.4489498070377893
0.011914893617021277 0.4442757336244703 0.4503096173108717
0.012127659574468085 0.4430874450415241 0.45134929151807684
0.012340425531914893 0.4417781510473688 0.4508333659771233
0.012553191489361702 0.4381179927509184 0.4475513706915731
0.01276595744680851 0.4373072980796465 0.4434978973352133
0.01297872340425532 0.43604223581603524 0.44249595913908746
0.013191489361702127 0.4341455256509335 0.4404220012267668
0.013404255319148937 0.4314277659553909 0.436345361683453
0.013617021276595745 0.4329114806269287 0.4370224232641239
0.013829787234042552 0.428586849490705 0.43679518945274565
0.014042553191489362 0.4223225557445217 0.43637169721323016
0.01425531914893617 0.4176732795855082 0.4386963352927369
0.01446808510638298 0.41227286766661236 0.4393295163839042
0.014680851063829787 0.40584689785821565 0.43722520762090866
0.014893617021276596 0.40372818070553507 0.43722520762090866
0.015106382978723404 0.3984724620787456 0.43437748225305095
0.015319148936170212 0.39480838944602825 0.43031942646805044
0.015531914893617021 0.3931463406630657 0.42745481191988266
0.01574468085106383 0.38898625319812363 0.42745481191988266
0.015957446808510637 0.3879164840982953 0.42745481191988266
0.016170212765957447 0.3870964589984009 0.4257524517633783
0.016382978723404256 0.38392253820040984 0.4258260119470648
0.016595744680851062 0.38293026228328436 0.43010704613919953
0.01680851063829787 0.3844440167067693 0.43103027230072566
0.01702127659574468 0.38309024215357146 0.4300963054009866
0.01723404255319149 0.3842331981957709 0.42987263633928363
0.017446808510638297 0.38390560778052296 0.4309453936850363
0.017659574468085106 0.3858335047426905 0.42921319389147844
0.017872340425531916 0.387736253775763 0.428941947835115
0.018085106382978722 0.38966204750502853 0.43183063842901304
0.01829787234042553 0.39248196874208874 0.4352100162897134
0.01851063829787234 0.40090737795930276 0.44125793113244094
0.01872340425531915 0.41277480231125224 0.44308368872504844
0.018936170212765956 0.42545243277354894 0.45302925635989955
0.019148936170212766 0.4358782031766251 0.45508827108956534
0.019361702127659575 0.4451950010683114 0.45903826758645183
0.01957446808510638 0.4520514631676522 0.4637965596078965
0.01978723404255319 0.45567577321331915 0.4644006112821743
0.02 0.45830298670902514 0.46560697404115753
0.02021276595744681 0.4608655112518652 0.4659521979646878
0.020425531914893616 0.46439388346620397 0.46418801185751846
0.020638297872340425 0.46946751343429405 0.4617331900696348
0.020851063829787235 0.4695374064037554 0.4625583434741145
0.02106382978723404 0.47028629283957973 0.46165119687347334
0.02127659574468085 0.46656064862523355 0.46161481602160237
0.02148936170212766 0.46849204404033207 0.45871929307509524
0.02170212765957447 0.4703306635724914 0.45779998330901556
0.021914893617021276 0.47216984770784715 0.45601774388961264
0.022127659574468085 0.4748374618455213 0.4533501297519385
0.022340425531914895 0.4729068900872469 0.4552807015102129
0.0225531914893617 0.4772873893535255 0.4541593737165499
0.02276595744680851 0.48135172567222917 0.45445305153405496
0.02297872340425532 0.4819250401240808 0.4564399562716213
0.023191489361702126 0.4804516291420155 0.4596667999095372
0.023404255319148935 0.4814282137715175 0.4620376727035949
0.023617021276595745 0.48326649180443776 0.4578032507874167
0.023829787234042554 0.48514403894710983 0.45870252120669575
0.02404255319148936 0.48937312571020364 0.4570108865014583
0.02425531914893617 0.48998534440644836 0.45995492611888256
0.02446808510638298 0.49310537773432356 0.46165119687347334
0.024680851063829785 0.4963555548787646 0.46165119687347334
0.024893617021276595 0.49939785270138903 0.4621658431343178
0.025106382978723404 0.5017098192476794 0.46262823644357587
0.025319148936170214 0.5032369859766634 0.46262823644357587
0.02553191489361702 0.5054979791468708 0.46219971584913416
0.02574468085106383 0.5050363272819476 0.4622746727999713
0.02595744680851064 0.5014386679625464 0.46252067087314663
0.026170212765957445 0.5012274048501196 0.4606863680783537
0.026382978723404255 0.5028899420778175 0.4633006511236258
0.026595744680851064 0.5039008558036071 0.4617842805349412
0.026808510638297874 0.5042587732969177 0.4606741573033708
0.02702127659574468 0.5028322944732844 0.4606741573033708
0.02723404255319149 0.5001218330689012 0.4619566701778112
0.0274468085106383 0.4994701942462146 0.46228248958915447
0.027659574468085105 0.5007075530296596 0.46165119687347334
0.027872340425531914 0.49993687359170624 0.46165119687347334
0.028085106382978724 0.49374853302178806 0.46079302443266107
0.028297872340425533 0.48589201294327494 0.45959611417903384
0.02851063829787234 0.47788147433820294 0.4552267294853581
0.02872340425531915 0.47150485978361595 0.45298490451903184
0.02893617021276596 0.46558824397345316 0.45161742596396615
0.029148936170212764 0.45732932108762947 0.4493232807179039
0.029361702127659574 0.44907039820180567 0.44702913547184164
0.029574468085106383 0.4459114785509886 0.4444637667293086
0.029787234042553193 0.443003105976178 0.4425321007981521
0.03 0.44200000684147245 0.4475475964716802
0.03021276595744681 0.44117016672622533 0.45193600240980697
0.030425531914893618 0.44144068822726895 0.4523417846613724
0.030638297872340424 0.4417112097283125 0.4527475669129378
0.030851063829787233 0.44198173122935613 0.4531533491645033
0.031063829787234043 0.44225225273039975 0.4535591314160687
0.03127659574468085 0.44252277423144337 0.45396491366763414
0.03148936170212766 0.442793295732487 0.45437069591919954
0.03170212765957447 0.4430638172335306 0.454776478170765
0.031914893617021274 0.4430874450415241 0.45399090198344755
0.03212765957446809 0.4430874450415241 0.4530913123999289
0.03234042553191489 0.4430874450415241 0.45219172281641024
0.0325531914893617 0.441402085879147 0.4508695856750213
0.03276595744680851 0.43882655654404196 0.4493242680739582
0.03297872340425532 0.437049008005294 0.45240940001929136
0.033191489361702124 0.4340202234916809 0.45213838641180504
0.03340425531914894 0.431362970200293 0.4476932787418123
0.03361702127659574 0.4297922576028878 0.4460185637518319
0.033829787234042556 0.42561587786956584 0.4447926077182873
0.03404255319148936 0.4202148829456199 0.44173467141133593
0.03425531914893617 0.4126079797304448 0.43966006144356085
0.03446808510638298 0.4082344291132544 0.4386571447381369
0.03468085106382979 0.4039667664208762 0.4376327686319399
0.03489361702127659 0.3989312229602916 0.435869285197574
0.035106382978723406 0.39762585319327326 0.4339489078282463
0.03531914893617021 0.3943823368410732 0.43269579659843466
0.03553191489361702 0.38835234268916874 0.4352450204474404
0.03574468085106383 0.38588746062298684 0.4321639178647131
0.03595744680851064 0.38568192664520945 0.4295746934236301
0.036170212765957444 0.3858539702259901 0.4284318514899854
0.036382978723404256 0.3824141486975542 0.42771592977817735
0.03659574468085106 0.37991981263279884 0.4271148722719397
0.03680851063829787 0.3775278445746922 0.42870059870000066
0.03702127659574468 0.37512753157679507 0.42940889106008795
0.03723404255319149 0.3768242748365546 0.42940889106008795
0.0374468085106383 0.37795288677159383 0.4295724375235595
0.03765957446808511 0.3794154116867322 0.4305503919283141
0.03787234042553191 0.3802027560355151 0.43251074077605695
0.038085106382978726 0.39025457332775215 0.43972182709440094
0.03829787234042553 0.4003063906199889 0.44693291341274477
0.03851063829787234 0.41035820791222566 0.45414399973108854
0.03872340425531915 0.42041002520446275 0.4613550860494326
0.03893617021276596 0.42814294556895505 0.4634958404915481
0.03914893617021276 0.43482404823307935 0.4633367666185927
0.039361702127659576 0.4415051508972038 0.4631776927456373
0.03957446808510638 0.4481862535613281 0.463018618872682
0.03978723404255319 0.4548673562254524 0.4628595449997266
0.04 0.46154845888957685 0.4627004711267712
0.04021276595744681 0.4649955148173763 0.4642810333779565
0.04042553191489362 0.4664822805178667 0.46607493204199474
0.040638297872340426 0.46930354497062227 0.463926441729094
0.04085106382978723 0.4684904738641915 0.46044147264193536
0.041063829787234045 0.46847106260545734 0.4587394894218997
0.04127659574468085 0.4675163092936697 0.4596827427353646
0.04148936170212766 0.46846949724533166 0.4549168029770544
0.04170212765957447 0.47027838421566226 0.45481191988275516
0.041914893617021276 0.4704445530043966 0.45481191988275516
0.04212765957446808 0.4704445530043966 0.4530442905975081
0.042340425531914895 0.4704445530043966 0.4554491792304203
0.0425531914893617 0.47567478570568816 0.45504178335267326
0.04276595744680851 0.47842990849286665 0.4553849591316312
0.04297872340425532 0.47966449978933756 0.4557889594528579
0.043191489361702126 0.4805074801460335 0.4546188336904142
0.04340425531914894 0.4813648570622784 0.4520536699592008
0.043617021276595745 0.482716373251418 0.45340518614834024
0.04382978723404255 0.4856832023897609 0.4567948711156883
0.044042553191489364 0.4894060284166297 0.46017700282801594
0.04425531914893617 0.4929164631167562 0.4554212813710148
0.044468085106382976 0.49310330840438127 0.4502537012855861
0.04468085106382979 0.49676018717016973 0.45665323912571604
0.044893617021276595 0.49682462139716654 0.45676599902296044
0.0451063829787234 0.5016154750276599 0.4597602825420188
0.045319148936170214 0.5039071495421855 0.46165119687347334
0.04553191489361702 0.5024160242436587 0.46165119687347334
0.045744680851063826 0.5013224995323899 0.4608765574428944
0.04595744680851064 0.5005867022492622 0.4594049628766386
0.046170212765957445 0.4998509049661343 0.4579333683103829
0.04638297872340425 0.5011617918003978 0.4580945515162938
0.046595744680851064 0.5027767100843884 0.4584982810872914
0.04680851063829787 0.5036638983878847 0.45976266225619533
0.047021276595744683 0.5036638983878847 0.46207627878919605
0.04723404255319149 0.5030378381388632 0.46012399544748944
0.047446808510638296 0.5010573718166708 0.4560042664946466
0.04765957446808511 0.500541286386407 0.45540597287051804
0.047872340425531915 0.5010913910855866 0.457743038593063
0.04808510638297872 0.4978950081469537 0.457743038593063
0.048297872340425534 0.4875924654387452 0.4549587125398291
0.04851063829787234 0.47765839050184156 0.4519931693244656
0.048723404255319146 0.47630935489410053 0.45188080117244755
0.04893617021276596 0.46433578696319894 0.4507981064792381
0.049148936170212765 0.45740916774288853 0.447924947056298
0.04936170212765957 0.45096079619492024 0.4470037511208738
0.049574468085106384 0.4527963306108985 0.4441567498091042
0.04978723404255319 0.4452212084802383 0.4459736426772047
0.05 0.4441003706736067 0.4450774102437092
0.05021276595744681 0.4423759610417485 0.4501070948913641
0.050425531914893615 0.43916300858139945 0.44721951548981725
0.05063829787234043 0.4382022471910112 0.44664928305756496
0.050851063829787234 0.43995066589918574 0.45005533606124
0.05106382978723404 0.442298810239598 0.4536464755444762
0.05127659574468085 0.4430365175626356 0.45290876822143855
0.05148936170212766 0.4448751166428669 0.453453731276331
0.051702127659574465 0.44512739388028566 0.4523495971934089
0.05191489361702128 0.4428353349621663 0.4491009485097544
0.052127659574468084 0.4394288609327902 0.4511448329273801
0.05234042553191489 0.4382022471910112 0.45061699234770614
0.0525531914893617 0.4378593696280517 0.44872109742016675
0.05276595744680851 0.435658253340389 0.4472536865617249
0.05297872340425532 0.4336350692425774 0.45026772179818664
0.05319148936170213 0.4319081183516042 0.45199405790496705
0.053404255319148934 0.4306657894444222 0.44950940009060314
0.05361702127659575 0.4303859306301905 0.4458772012551704
0.05382978723404255 0.4300175005937898 0.44207691183174874
0.05404255319148936 0.4226778322240021 0.4414096692526772
0.05425531914893617 0.4154355678310205 0.4394521948901024
0.05446808510638298 0.4093071893570091 0.4368045248951383
0.054680851063829784 0.40680173403448194 0.4349254334032429
0.0548936170212766 0.40496884334027283 0.432311892835895
0.0551063829787234 0.400762107526744 0.42973717968805514
0.05531914893617021 0.39162017856596965 0.42790879389590025
0.05553191489361702 0.38790836348795277 0.427815288219365
0.05574468085106383 0.38599017980236244 0.42829483414076264
0.055957446808510634 0.38460352804865516 0.4284318514899854
0.05617021276595745 0.38342949825483696 0.4284318514899854
0.05638297872340425 0.3822750673128556 0.42858913441152413
0.056595744680851066 0.381191086614017 0.4293117882107498
0.05680851063829787 0.38010710591517843 0.4300344420099754
0.05702127659574468 0.37977968114702054 0.43178458776534356
0.05723404255319149 0.3801687050524675 0.43450775510347245
0.0574468085106383 0.38056331510811 0.4372292092166284
0.057659574468085104 0.3836141936152091 0.43913600828356536
0.05787234042553192 0.38666507212230833 0.44104280735050233
0.05808510638297872 0.3911424809783854 0.44395657337982575
0.05829787234042553 0.3974346651004223 0.44815136279451706
0.05851063829787234 0.4041534641259124 0.4517256782126414
0.05872340425531915 0.4142912605702306 0.450327361461701
0.058936170212765954 0.42442905701454875 0.44892904471076056
0.05914893617021277 0.4343499978466266 0.44961550809752066
0.05936170212765957 0.44380161508987037 0.45481389758130464
0.059574468085106386 0.4521781431891424 0.45897495448052505
0.05978723404255319 0.45730481568712344 0.46000028898012124
0.06 0.46243148818510454 0.4610256234797175
0.06021276595744681 0.46597564298855876 0.46123490903879827
0.06042553191489362 0.46704336636739324 0.4601671856599638
0.06063829787234042 0.4681110897462278 0.45909946228112924
0.060851063829787236 0.4693890853253602 0.4591693838937499
0.06106382978723404 0.470782974240493 0.4598663283513163
0.06127659574468085 0.47217686315562574 0.4605632728088827
0.06148936170212766 0.4736807822499115 0.4606741573033708
0.06170212765957447 0.47520551942009814 0.4606741573033708
0.06191489361702127 0.47673025659028473 0.4606741573033708
0.062127659574468086 0.47825499376047137 0.4606741573033708
0.06234042553191489 0.47977973093065795 0.4606741573033708
0.0625531914893617 0.4811992242264298 0.45929617157396063
0.0627659574468085 0.4825766769628295 0.45736773774300105
0.06297872340425532 0.48395412969922924 0.45543930391204135
0.06319148936170213 0.4852920586125894 0.4538348803126526
0.06340425531914894 0.48643427471121764 0.4538348803126526
0.06361702127659574 0.48757649080984583 0.4538348803126526
0.06382978723404255 0.4887187069084741 0.4538348803126526
0.06404255319148935 0.4913210124778987 0.4541239687678467
0.06425531914893617 0.4944192479955146 0.4545112482075487
0.06446808510638298 0.497219837878349 0.45491072400305077
0.06468085106382979 0.4989871068788242 0.45535254125316965
0.06489361702127659 0.5007644144965041 0.4558047768623215
0.0651063829787234 0.5033531676274439 0.4570991534277913
0.06531914893617022 0.5059419207583837 0.4583935299932611
0.06553191489361702 0.5047590559400648 0.45908727039479114
0.06574468085106383 0.5023036360442629 0.45957835437395156
0.06595744680851064 0.5017098192476794 0.46056182431376635
0.06617021276595744 0.5017360082202108 0.46162500790094196
0.06638297872340425 0.5023198576569382 0.46104115846421473
0.06659574468085107 0.5019337691585898 0.4606741573033708
0.06680851063829787 0.4999061257681436 0.4606741573033708
0.06702127659574468 0.5008770759535403 0.4606741573033708
0.06723404255319149 0.5018302906615498 0.4607946287172412
0.06744680851063829 0.5022158676702121 0.46118020572590335
0.06765957446808511 0.5026014446788744 0.46156578273456556
0.06787234042553192 0.4980955251535027 0.45902757763674223
0.06808510638297872 0.49219768475275183 0.45565738312202747
0.06829787234042553 0.48665069241617814 0.452420312860552
0.06851063829787234 0.48151684539815875 0.4493400046497404
0.06872340425531914 0.4735440259258268 0.4479726428920372
0.06893617021276596 0.46330499296027283 0.4479726428920372
0.06914893617021277 0.4557378483450286 0.4479726428920372
0.06936170212765957 0.45134809764485834 0.4479726428920372
0.06957446808510638 0.446958346944688 0.4479726428920372
0.06978723404255319 0.4425685962445177 0.4479726428920372
0.06999999999999999 0.442354232877095 0.44870412510905766
0.07021276595744681 0.4426264763490577 0.44952085552494564
0.07042553191489362 0.44289871982102036 0.45033758594083356
0.07063829787234042 0.4430874450415241 0.4507993995451648
0.07085106382978723 0.4430874450415241 0.45045921176235615
0.07106382978723404 0.4430874450415241 0.4501190239795475
0.07127659574468086 0.4430874450415241 0.44977883619673886
0.07148936170212766 0.4430874450415241 0.4494386484139302
0.07170212765957447 0.4430874450415241 0.4490984606311216
0.07191489361702127 0.4430874450415241 0.44894968246213973
0.07212765957446808 0.4430874450415241 0.44894968246213973
0.07234042553191489 0.4430874450415241 0.44894968246213973
0.0725531914893617 0.44265274936064797 0.44862366070148263
0.07276595744680851 0.4407850690181707 0.44722290044462465
0.07297872340425532 0.43904758159625396 0.4458210060045422
0.07319148936170213 0.4381083492722885 0.4444121575185939
0.07340425531914893 0.43689747055431427 0.44294945048716855
0.07361702127659574 0.431409548364808 0.44063874640737644
0.07382978723404256 0.4259216261753013 0.43832804232758416
0.07404255319148936 0.42043370398579505 0.43601733824779204
0.07425531914893617 0.41444351226819237 0.433396486915918
0.07446808510638298 0.4082137553284388 0.4306277060538053
0.07468085106382978 0.40198399838868515 0.42785892519169255
0.0748936170212766 0.3987492039070322 0.4288501356919311
0.07510638297872341 0.39602623784593805 0.4304839153285876
0.07531914893617021 0.39330327178484387 0.4321176949652441
0.07553191489361702 0.39056009435419364 0.4329787523078195
0.07574468085106383 0.3877611176948596 0.43170649018994045
0.07595744680851063 0.38496214103552556 0.4304342280720614
0.07617021276595745 0.38216316437619136 0.4291619659541822
0.07638297872340426 0.38043982545870214 0.4289001998750105
0.07659574468085106 0.38016505625874797 0.42999927667482707
0.07680851063829787 0.37989028705879385 0.4310983534746437
0.07702127659574468 0.37961551785883973 0.43219743027446034
0.0772340425531915 0.3798614204266826 0.43290310465404924
0.0774468085106383 0.38018493650989976 0.43355013682048366
0.07765957446808511 0.380508452593117 0.43419716898691807
0.07787234042553191 0.3849593286859707 0.43740167676778596
0.07808510638297872 0.3901373716841535 0.4410567659429738
0.07829787234042553 0.3953154146823364 0.4447118551181617
0.07851063829787235 0.40481366251365036 0.4494172647593643
0.07872340425531915 0.4167158005385977 0.4547071038815631
0.07893617021276596 0.428617938563545 0.45999694300376187
0.07914893617021276 0.4377446711920804 0.46219166301564185
0.07936170212765957 0.445608546591813 0.46297805055561514
0.07957446808510638 0.45265528998652665 0.4639150715393103
0.0797872340425532 0.456481882011037 0.4654457083491144
0.08 0.46030847403554714 0.4669763451589185
0.08021276595744681 0.4638188846535015 0.4691392001291101
0.08042553191489361 0.46715837483900996 0.4716438177682414
0.08063829787234042 0.4693880894331977 0.4727402797059336
0.08085106382978724 0.4691306669429802 0.47068089978419364
0.08106382978723405 0.4688732444527628 0.4686215198624539
0.08127659574468085 0.4686158219625453 0.4665621399407141
0.08148936170212766 0.469335188136849 0.4650766612837937
0.08170212765957446 0.4709815970168852 0.46413585620948733
0.08191489361702127 0.4726280058969214 0.46319505113518095
0.08212765957446809 0.4742744147769577 0.46225424606087445
0.0823404255319149 0.4757076444485052 0.46114733874867925
0.0825531914893617 0.47676025144718737 0.4597438627504364
0.08276595744680851 0.47781285844586946 0.45834038675219346
0.08297872340425531 0.4794321851468935 0.4589143541747392
0.08319148936170212 0.48147145637099664 0.4609536253988423
0.08340425531914894 0.48303797177571894 0.4587547171065024
0.08361702127659575 0.48435869375743745 0.4543523105007742
0.08382978723404255 0.48595419574398013 0.45124026428141406
0.08404255319148936 0.48790141056015324 0.44977985316928415
0.08425531914893616 0.4901881508544219 0.44979242961790833
0.08446808510638298 0.49292212383008416 0.4517452674576671
0.08468085106382979 0.49565609680574624 0.45369810529742566
0.0848936170212766 0.49817180974441694 0.45250675007416524
0.0851063829787234 0.5006710846394915 0.4510785929912655
0.08531914893617021 0.5025623713513774 0.4498022345658375
0.08553191489361701 0.5019188802690757 0.4491587434835359
0.08574468085106383 0.501275389186774 0.4485152524012342
0.08595744680851064 0.5008396331777523 0.44850691039291374
0.08617021276595745 0.5015212172605482 0.4519148308068936
0.08638297872340425 0.5022028013433443 0.45532275122087346
0.08659574468085106 0.5022716018702114 0.45871197147072823
0.08680851063829788 0.500838718836946 0.46205536521501417
0.08702127659574468 0.49963442367091143 0.4647036320203441
0.08723404255319149 0.4991376242268278 0.46520043146442774
0.0874468085106383 0.49750929337515115 0.4652420033633285
0.0876595744680851 0.49293531462007784 0.4640985086745602
0.08787234042553191 0.4883613358650045 0.46295501398579186
0.08808510638297873 0.48378735710993087 0.46181151929702347
0.08829787234042553 0.47742963916865083 0.4591657932877866
0.08851063829787234 0.470781053187831 0.45627510373090846
0.08872340425531915 0.4641324672070111 0.4533844141740303
0.08893617021276595 0.45848432154526736 0.4505668997175855
0.08914893617021276 0.4539206690683645 0.4478287082314437
0.08936170212765958 0.4497826630277842 0.44649903456950074
0.08957446808510638 0.4464748752213614 0.4479166579151106
0.08978723404255319 0.443256131827375 0.44894968246213973
0.09 0.4402765599132841 0.44894968246213973
0.0902127659574468 0.4372969879991932 0.44894968246213973
0.09042553191489362 0.43649098002321157 0.44947247598035756
0.09063829787234043 0.4403020192968768 0.4511057785262141
0.09085106382978723 0.4429403670934214 0.4514658203614476
0.09106382978723404 0.4445197800923404 0.4506761138619881
0.09127659574468085 0.4459617450386788 0.4498509637480382
0.09148936170212765 0.44484874802328606 0.4483669677275145
0.09170212765957447 0.44373575100789325 0.44688297170699076
0.09191489361702128 0.4430874450415241 0.4460185637518319
0.09212765957446808 0.4430874450415241 0.4460185637518319
0.09234042553191489 0.44188668260727415 0.4480198344755819
0.0925531914893617 0.4399615674614206 0.45119589990703857
0.0927659574468085 0.43874177817484195 0.4530255838369065
0.09297872340425532 0.43629823709815185 0.45446955034360575
0.09319148936170213 0.4328841058726667 0.4556075940854343
0.09340425531914893 0.43195441306790566 0.45347537923791775
0.09361702127659574 0.43149571563533173 0.4507231946424743
0.09382978723404255 0.4274641362132456 0.4478000853120346
0.09404255319148937 0.4219774843337849 0.44480736610505606
0.09425531914893617 0.4163288793698736 0.44406448461162684
0.09446808510638298 0.41062591885258376 0.4439329523862939
0.09468085106382979 0.4049008637343594 0.44049791931535914
0.09489361702127659 0.3996428595631372 0.4374863052090233
0.0951063829787234 0.39532590558579356 0.4353278282203515
0.09531914893617022 0.394877788296529 0.4349333104883259
0.09553191489361702 0.397985494416069 0.43616003658814434
0.09574468085106383 0.4010932005356091 0.4373867626879628
0.09595744680851064 0.4042009066551492 0.4386134887877812
0.09617021276595744 0.40730861277468927 0.4398402148875997
0.09638297872340426 0.4104163188942296 0.4410669409874182
0.09659574468085107 0.41352402501376967 0.4422936670872367
0.09680851063829787 0.41663173113330976 0.44352039318705516
0.09702127659574468 0.41973943725284985 0.4447471192868736
0.09723404255319149 0.42284714337238993 0.4459738453866921
0.09744680851063829 0.42595484949193 0.44720057148651055
0.09765957446808511 0.4290625556114703 0.4484272975863291
0.09787234042553192 0.43217026173101036 0.44965402368614754
0.09808510638297872 0.43527796785055045 0.450880749785966
0.09829787234042553 0.43838567397009054 0.4521074758857845
0.09851063829787234 0.4414933800896306 0.4533342019856029
0.09872340425531914 0.4446010862091707 0.45456092808542137
0.09893617021276596 0.447708792328711 0.4557876541852399
0.09914893617021277 0.4508164984482511 0.45701438028505836
0.09936170212765957 0.4539242045677912 0.45824110638487686
0.09957446808510638 0.4570319106873313 0.4594678324846953
0.09978723404255319 0.4601396168068713 0.46069455858451375
0.1 0.46324732292641163 0.4619212846843323
0.10021276595744681 0.4663550290459517 0.46314801078415074
0.10042553191489362 0.46766113080750193 0.46390066904050453
0.10063829787234042 0.4678965984899423 0.4643716044053853
0.10085106382978723 0.4681320661723827 0.46484253977026596
0.10106382978723404 0.468367533854823 0.46531347513514665
0.10127659574468086 0.46928617941255935 0.46492279071518944
0.10148936170212766 0.4709512182093667 0.4635907596777435
0.10170212765957447 0.4726162570061741 0.4622587286402976
0.10191489361702127 0.4743819701945678 0.462154346113405
0.10212765957446808 0.47623210429748075 0.4630794131648615
0.10234042553191489 0.47808223840039366 0.46400448021631796
0.1025531914893617 0.4801550183095558 0.46335950335146675
0.10276595744680851 0.482598307671624 0.46010178420204245
0.10297872340425532 0.4850415970336922 0.45684406505261815
0.10319148936170212 0.4851001465559355 0.4589575992908931
0.10340425531914893 0.4851001465559355 0.4612030071677283
0.10361702127659575 0.48479857318345043 0.4614501479584833
0.10382978723404256 0.48442179353759873 0.4611989615279155
0.10404255319148936 0.48404501389174703 0.4609477750973477
0.10425531914893617 0.48366823424589533 0.4606965886667799
0.10446808510638297 0.48329145460004364 0.4604454022362121
0.10468085106382978 0.4829146749541919 0.4601942158056443
0.1048936170212766 0.4825378953083402 0.4599430293750765
0.1051063829787234 0.4821611156624885 0.4596918429445087
0.10531914893617021 0.4817843360166367 0.4594406565139409
0.10553191489361702 0.48140755637078503 0.4591894700833731
0.10574468085106382 0.48103077672493333 0.45893828365280526
0.10595744680851064 0.4806539970790816 0.45868709722223744
0.10617021276595745 0.4802772174332299 0.4584359107916697
0.10638297872340426 0.4799004377873782 0.45818472436110186
0.10659574468085106 0.4795236581415265 0.45793353793053404
0.10680851063829787 0.4791468784956748 0.4576823514999662
0.10702127659574467 0.4787700988498231 0.45743116506939846
0.1072340425531915 0.4783933192039713 0.45717997863883064
0.1074468085106383 0.4780165395581196 0.4569287922082628
0.1076595744680851 0.4776397599122679 0.456677605777695
0.10787234042553191 0.4772629802664162 0.45642641934712724
0.10808510638297872 0.47688620062056447 0.4561752329165594
0.10829787234042552 0.47650942097471277 0.4559240464859916
0.10851063829787234 0.4734028793634109 0.4546999928047574
0.10872340425531915 0.4671201331100212 0.4523439629597362
0.10893617021276596 0.4608373868566315 0.449987933114715
0.10914893617021276 0.4551918374016495 0.4490130020486221
0.10936170212765957 0.4495632842805023 0.4480749098617643
0.10957446808510639 0.447179158930839 0.44819395833344977
0.1097872340425532 0.44519200389253716 0.4484423527132375
0.11 0.4432048488542353 0.4486907470930252
0.1102127659574468 0.44121769381593345 0.44893914147281294
0.11042553191489361 0.4433878798165219 0.4497695057040317
0.11063829787234042 0.44574230740994153 0.45062566119254793
0.11085106382978724 0.44809673500336134 0.4514818166810642
0.11106382978723404 0.45045116259678103 0.45233797216958044
0.11127659574468085 0.45093702975409405 0.45270054550615785
0.11148936170212766 0.4485342747185175 0.4523000863335618
0.11170212765957446 0.4461315196829409 0.4518996271609657
0.11191489361702127 0.4437788565298187 0.4503876630244387
0.11212765957446809 0.44142866441234857 0.4488208682794586
0.1123404255319149 0.4386358616773913 0.44749116241832587
0.1125531914893617 0.4353205852820338 0.4464413248931294
0.1127659574468085 0.4320053088866764 0.4453914873679328
0.11297872340425531 0.4286900324913189 0.4443416498427363
0.11319148936170213 0.4253747560959612 0.44329181231753967
0.11340425531914894 0.42205947970060376 0.4422419747923432
0.11361702127659574 0.4187442033052463 0.4411921372671466
0.11382978723404255 0.4154289269098888 0.44014229974195007
0.11404255319148936 0.41211365051453136 0.4390924622167535
0.11425531914893616 0.40879837411917386 0.438042624691557
0.11446808510638298 0.4054830977238162 0.4369927871663604
0.11468085106382979 0.40216782132845874 0.43594294964116387
0.1148936170212766 0.3988525449331013 0.4348931121159673
0.1151063829787234 0.3955372685377438 0.4338432745907708
0.11531914893617021 0.39222199214238634 0.43279343706557427
0.11553191489361703 0.3889067157470286 0.43174359954037766
0.11574468085106383 0.3855914393516712 0.4306937620151811
0.11595744680851064 0.3822761629563137 0.4296439244899846
0.11617021276595745 0.38111589489240755 0.4296179196764147
0.11638297872340425 0.3805772474149939 0.4298872434151215
0.11659574468085106 0.38003859993758027 0.43015656715382833
0.11680851063829788 0.3795221083932789 0.43044369522176745
0.11702127659574468 0.3791327872313153 0.430833016383731
0.11723404255319149 0.37874346606935183 0.4312223375456945
0.1174468085106383 0.37991321897727376 0.43162504731279716
0.1176595744680851 0.38196462390638 0.43203532829861846
0.11787234042553191 0.3845462125620008 0.43433879666422776
0.11808510638297873 0.388657516193768 0.4421045924131214
0.11829787234042553 0.3936065109873294 0.44907014824315244
0.11851063829787234 0.4047834149124732 0.4500862304181655
0.11872340425531915 0.4158303772041146 0.45151999738204524
0.11893617021276595 0.42634230646940124 0.4546735761616313
0.11914893617021277 0.4362702198278676 0.45676599902296044
0.11936170212765958 0.4450465510165622 0.45676599902296044
0.11957446808510638 0.45382288220525674 0.45676599902296044
0.11978723404255319 0.4570121900379687 0.45657780970217415
0.12 0.45858855955780337 0.4563352913145073
0.1202127659574468 0.46016492907763795 0.4560927729268404
0.12042553191489362 0.4617412985974727 0.45585025453917355
0.12063829787234043 0.4633176681173073 0.4556077361515067
0.12085106382978723 0.46489403763714193 0.4553652177638398
0.12106382978723404 0.4664704071569765 0.45512269937617295
0.12127659574468085 0.46804677667681116 0.4548801809885061
0.12148936170212765 0.46962314619664575 0.4546376626008392
0.12170212765957447 0.47119951571648044 0.45439514421317234
0.12191489361702128 0.4727758852363151 0.4541526258255055
0.12212765957446808 0.47435225475614967 0.4539101074378386
0.12234042553191489 0.4759286242759843 0.45366758905017174
0.1225531914893617 0.4775049937958189 0.45342507066250487
0.12276595744680852 0.47908136331565365 0.453182552274838
0.12297872340425532 0.48065773283548824 0.45294003388717113
0.12319148936170213 0.48267358532202453 0.4528578407425501
0.12340425531914893 0.48491474535436174 0.4528578407425501
0.12361702127659574 0.487155905386699 0.4528578407425501
0.12382978723404255 0.4888004608791182 0.4528058797532432
0.12404255319148937 0.4876022643781312 0.45250633062799644
0.12425531914893617 0.48640406787714424 0.4522067815027497
0.12446808510638298 0.48520587137615734 0.45190723237750297
0.12468085106382978 0.4840076748751704 0.4516076832522562
0.12489361702127659 0.4828094783741834 0.4513081341270095
0.1251063829787234 0.48161128187319646 0.4510085850017627
0.12531914893617022 0.48041308537220945 0.45070903587651595
0.125531914893617 0.4792148888712226 0.45040948675126924
0.12574468085106383 0.47801669237023553 0.45010993762602247
0.12595744680851065 0.4768184958692485 0.44981038850077576
0.12617021276595744 0.47562029936826167 0.449510839375529
0.12638297872340426 0.47442210286727465 0.4492112902502823
0.12659574468085105 0.47322390636628775 0.4489117411250355
0.12680851063829787 0.47202570986530074 0.4486121919997888
0.1270212765957447 0.4708275133643137 0.44831264287454203
0.12723404255319148 0.4696293168633269 0.4480130937492953
0.1274468085106383 0.4684311203623398 0.44771354462404855
0.1276595744680851 0.46723292386135296 0.44741399549880184
0.12787234042553192 0.46603472736036594 0.4471144463735551
0.1280851063829787 0.46483653085937904 0.44681489724830836
0.12829787234042553 0.463638334358392 0.4465153481230616
0.12851063829787235 0.462440137857405 0.4462157989978148
0.12872340425531914 0.46079971063479575 0.4463460584590156
0.12893617021276596 0.45830677458554386 0.44730488001642016
0.12914893617021275 0.45581383853629237 0.44826370157382456
0.12936170212765957 0.4533209024870405 0.4492225231312291
0.1295744680851064 0.45082796643778866 0.4501813446886337
0.12978723404255318 0.4484643799152378 0.45070964058358404
0.13 0.44649606602527653 0.44992231502759955
0.1302127659574468 0.44452775213531553 0.4491349894716151
0.13042553191489362 0.4425594382453543 0.44834766391563063
0.13063829787234044 0.44059112435539305 0.44756033835964615
0.13085106382978723 0.43862281046543206 0.4467730128036617
0.13106382978723405 0.4366544965754708 0.44598568724767723
0.13127659574468084 0.4346861826855098 0.44519836169169286
0.13148936170212766 0.4327178687955485 0.44441103613570837
0.13170212765957448 0.43074955490558725 0.44362371057972383
0.13191489361702127 0.42878124101562626 0.44283638502373945
0.1321276595744681 0.426812927125665 0.44204905946775497
0.13234042553191488 0.424844613235704 0.44126173391177054
0.1325531914893617 0.4228762993457427 0.44047440835578605
0.1327659574468085 0.42090798545578173 0.4396870827998017
0.13297872340425532 0.41893967156582046 0.43889975724381713
0.13319148936170214 0.41697135767585924 0.43811243168783265
0.13340425531914893 0.4150030437858982 0.4373251061318483
0.13361702127659575 0.4130347298959369 0.4365377805758638
0.13382978723404254 0.41106641600597593 0.43575045501987936
0.13404255319148936 0.4090981021160147 0.43496312946389487
0.13425531914893618 0.40712978822605345 0.4341758039079104
0.13446808510638297 0.40516147433609245 0.43338847835192595
0.1346808510638298 0.40228049295651525 0.4327765675702967
0.13489361702127659 0.39930844962526246 0.4321821589040461
0.1351063829787234 0.3963364062940093 0.43158775023779544
0.13531914893617022 0.392807226412073 0.4378572253752387
0.13553191489361702 0.38893923842649913 0.4483007929362883
0.13574468085106384 0.385824669647808 0.4577717305362382
0.13595744680851063 0.38981467853144747 0.45807098120251116
0.13617021276595745 0.39380468741508745 0.4583702318687842
0.13638297872340424 0.397794696298727 0.4586694825350572
0.13659574468085106 0.401784705182367 0.45896873320133014
0.13680851063829788 0.405774714066007 0.45926798386760315
0.13702127659574467 0.4097647229496465 0.45956723453387616
0.1372340425531915 0.4137547318332865 0.45986648520014917
0.13744680851063829 0.41774474071692597 0.4601657358664221
0.1376595744680851 0.421734749600566 0.46046498653269513
0.13787234042553193 0.425724758484206 0.46076423719896814
0.13808510638297872 0.4297147673678455 0.4610634878652411
0.13829787234042554 0.4337047762514855 0.4613627385315141
0.13851063829787233 0.437694785135125 0.46166198919778706
0.13872340425531915 0.44168479401876504 0.46196123986406007
0.13893617021276597 0.445674802902405 0.4622604905303331
0.13914893617021276 0.4496648117860445 0.46255974119660603
0.13936170212765958 0.45365482066968454 0.46285899186287904
0.13957446808510637 0.45764482955332403 0.463158242529152
0.1397872340425532 0.461634838436964 0.463457493195425
0.13999999999999999 0.46454627902074597 0.46285247360802473
0.1402127659574468 0.46640539156847155 0.46136518356984424
0.14042553191489363 0.46826450411619713 0.4598778935316638
0.14063829787234042 0.4684904738641915 0.4571211869847364
0.14085106382978724 0.4684904738641915 0.4541888376657077
0.14106382978723403 0.4684904738641915 0.4512564883466794
0.14127659574468085 0.46814343382655454 0.4512508016399818
0.14148936170212767 0.46774894099336906 0.4516452944731674
0.14170212765957446 0.4687329937455621 0.45279547076105237
0.14191489361702128 0.47175909074805933 0.45506504351292526
0.14212765957446807 0.4747851877505562 0.4573346162647979
0.1423404255319149 0.4761454375616575 0.4596463075754747
0.1425531914893617 0.47714012359037256 0.4619672416424766
0.1427659574468085 0.4781348096190875 0.4642881757094782
0.14297872340425533 0.4786869948183292 0.4637300650775574
0.14319148936170212 0.4791749617862236 0.4627541311417688
0.14340425531914894 0.4806316807091842 0.46251673471766674
0.14361702127659573 0.48223187622665087 0.46238871907626944
0.14382978723404255 0.48383207174411774 0.4622607034348721
0.14404255319148937 0.4854322672615846 0.4621326877934747
0.14425531914893616 0.4870324627790512 0.4620046721520774
0.14446808510638298 0.4886326582965181 0.46187665651068005
0.14468085106382977 0.49023285381398474 0.46174864086928274
0.1448936170212766 0.4918330493314516 0.4616206252278854
0.1451063829787234 0.49343324484891843 0.4614926095864881
0.1453191489361702 0.4950334403663851 0.4613645939450907
0.14553191489361703 0.49663363588385195 0.4612365783036934
0.14574468085106382 0.4982338314013186 0.46110856266229605
0.14595744680851064 0.4998340269187854 0.46098054702089875
0.14617021276595746 0.5014342224362522 0.4608525313795014
0.14638297872340425 0.503034417953719 0.4607245157381041
0.14659574468085107 0.5034986330660349 0.4613352185907698
0.14680851063829786 0.5032261980006218 0.46242495885242246
0.14702127659574468 0.5029537629352087 0.4635146991140752
0.14723404255319147 0.5026581881932506 0.4645440880844056
0.1474468085106383 0.5012459739600769 0.4626611357735074
0.14765957446808511 0.49983375972690314 0.4607781834626092
0.1478723404255319 0.49484780039803694 0.4568568708626972
0.14808510638297873 0.4885366128404131 0.45354949547310697
0.14829787234042552 0.4789134732123958 0.4524173613992227
0.14851063829787234 0.4712115257348452 0.4510241142042761
0.14872340425531916 0.46524040525874355 0.4493956268017029
0.14893617021276595 0.4625824049522446 0.44924193133683515
0.14914893617021277 0.4611738028555376 0.4496443890787514
0.14936170212765956 0.4597652007588308 0.45004684682066765
0.14957446808510638 0.4583565986621238 0.4504493045625839
0.1497872340425532 0.4569479965654168 0.4508517623045002
0.15 0.45553939446870995 0.4512542200464164
0.15021276595744681 0.45413079237200293 0.4516566777883327
0.1504255319148936 0.45272219027529614 0.45205913553024896
0.15063829787234043 0.45131358817858913 0.45246159327216523
0.15085106382978725 0.4499049860818821 0.4528640510140815
0.15106382978723404 0.44849638398517533 0.4532665087559977
0.15127659574468086 0.4470877818884683 0.453668966497914
0.15148936170212765 0.44567917979176147 0.4540714242398302
0.15170212765957447 0.4442705776950545 0.4544738819817465
0.15191489361702126 0.4429711815748919 0.45452126121617464
0.15212765957446808 0.44224483497749334 0.4527053947226781
0.1523404255319149 0.4415184883800948 0.45088952822918166
0.1525531914893617 0.44020462486179573 0.4501589072921231
0.15276595744680851 0.43822766058199936 0.45065314836207215
0.1529787234042553 0.4351954896413798 0.4501426173600215
0.15319148936170213 0.43107785666311954 0.448598504993174
0.15340425531914895 0.4276455592571007 0.449148197427362
0.15361702127659574 0.4246803736802248 0.4511249878119459
0.15382978723404256 0.4216313818987074 0.448688681604506
0.15404255319148935 0.41853051211464704 0.44352056529773853
0.15425531914893617 0.41311896545850746 0.4400032743512603
0.154468085106383 0.4068403455103924 0.43710544975982263
0.15468085106382978 0.4025584570882291 0.4442142006999154
0.1548936170212766 0.39911544415834793 0.45552695746952476
0.1551063829787234 0.4002191385492066 0.45882931572802876
0.15531914893617021 0.4031108669231099 0.45898151195823417
0.155531914893617 0.4060025952970127 0.45913370818843957
0.15574468085106383 0.40889432367091594 0.45928590441864503
0.15595744680851065 0.4117860520448192 0.4594381006488505
0.15617021276595744 0.41467778041872205 0.4595902968790559
0.15638297872340426 0.4175695087926253 0.4597424931092613
0.15659574468085105 0.42046123716652817 0.4598946893394667
0.15680851063829787 0.4233529655404314 0.46004688556967216
0.1570212765957447 0.4262446939143346 0.4601990817998776
0.15723404255319148 0.4291364222882375 0.460351278030083
0.1574468085106383 0.43202815066214073 0.4605034742602884
0.1576595744680851 0.43491987903604357 0.46065567049049383
0.15787234042553192 0.43781160740994685 0.4608078667206993
0.15808510638297874 0.44070333578385007 0.46096006295090475
0.15829787234042553 0.4435950641577529 0.46111225918111015
0.15851063829787235 0.4464867925316562 0.46126445541131555
0.15872340425531914 0.449378520905559 0.46141665164152096
0.15893617021276596 0.45227024927946224 0.4615688478717264
0.15914893617021275 0.45516197765336514 0.4617210441019318
0.15936170212765957 0.45805370602726836 0.4618732403321373
0.1595744680851064 0.4609454344011716 0.4620254365623427
0.15978723404255318 0.4638371627750745 0.4621776327925481
0.16 0.4667288911489777 0.46232982902275355
0.1602127659574468 0.4696206195228806 0.46248202525295895
0.16042553191489362 0.47233578407536264 0.46262823644357587
0.16063829787234044 0.47073759260604614 0.46262823644357587
0.16085106382978723 0.4691394011367298 0.46262823644357587
0.16106382978723405 0.4682597919868121 0.46193619081143766
0.16127659574468084 0.4678714134829089 0.460771055299728
0.16148936170212766 0.46757702247256644 0.4596653236440295
0.16170212765957448 0.4683894184609395 0.4592591256498429
0.16191489361702127 0.4692018144493124 0.45885292765565633
0.1621276595744681 0.47199589731606106 0.45647262582381704
0.16234042553191488 0.47575309537983695 0.45313289421157177
0.1625531914893617 0.4786198014108761 0.4507841176537919
0.1627659574468085 0.47969916131335216 0.4504243310196332
0.16297872340425532 0.4807785212158283 0.4500645443854745
0.16319148936170214 0.48230940041574544 0.4510441341724626
0.16340425531914893 0.48412063757165125 0.4528553713283684
0.16361702127659575 0.4859318747275572 0.45466660848427437
0.16382978723404254 0.488625013287183 0.4535380063021828
0.16404255319148936 0.49139507623898293 0.4521529748262829
0.16425531914893618 0.4923854588022089 0.45277287168355806
0.16446808510638297 0.4930000243097659 0.45412734448818676
0.1646808510638298 0.49492330130236695 0.4608588139622903
0.16489361702127658 0.49683873041530635 0.46745699822152986
0.1651063829787234 0.49807458578168 0.4625135767560351
0.16531914893617022 0.49931044114805373 0.45757015529054035
0.16553191489361702 0.4987187947932703 0.4559242131894932
0.16574468085106384 0.49709776633796426 0.45613565168366355
0.16595744680851063 0.49547673788265845 0.45634709017783387
0.16617021276595745 0.49385570942735246 0.4565585286720042
0.16638297872340424 0.49223468097204665 0.4567699671661745
0.16659574468085106 0.4906136525167406 0.45698140566034484
0.16680851063829788 0.4889926240614346 0.45719284415451517
0.16702127659574467 0.4873715956061288 0.4574042826486855
0.1672340425531915 0.48575056715082277 0.4576157211428558
0.16744680851063828 0.484129538695517 0.45782715963702614
0.1676595744680851 0.48250851024021096 0.45803859813119646
0.16787234042553192 0.4808874817849049 0.45825003662536684
0.16808510638297872 0.47926645332959916 0.4584614751195371
0.16829787234042554 0.4776454248742931 0.4586729136137075
0.16851063829787233 0.47319684719019806 0.4582898694468585
0.16872340425531915 0.4679364543050984 0.45773614388000594
0.16893617021276597 0.4626760614199988 0.45718241831315337
0.16914893617021276 0.45721169536631234 0.4561195492528805
0.16936170212765958 0.45112872421933997 0.4535125616184637
0.16957446808510637 0.44504575307236843 0.45090557398404724
0.1697872340425532 0.44301184867458754 0.4503145009712391
0.17 0.44098076115236257 0.44972483040027056
0.1702127659574468 0.43894967363013787 0.44913515982930213
0.17042553191489362 0.4369185861079129 0.4485454892583336
0.17063829787234042 0.4348874985856882 0.4479558186873651
0.17085106382978724 0.43285641106346323 0.4473661481163966
0.17106382978723403 0.43082532354123854 0.44677647754542815
0.17127659574468085 0.42879423601901356 0.4461868069744596
0.17148936170212767 0.4267631484967886 0.4455971364034911
0.17170212765957446 0.4247320609745639 0.4450074658325226
0.17191489361702128 0.4227009734523389 0.44441779526155406
0.17212765957446807 0.42066988593011423 0.44382812469058563
0.1723404255319149 0.41863879840788926 0.4432384541196171
0.1725531914893617 0.4166077108856643 0.44264878354864856
0.1727659574468085 0.4145766233634396 0.4420591129776801
0.17297872340425532 0.4125455358412146 0.44146944240671154
0.17319148936170212 0.4105144483189899 0.4408797718357431
0.17340425531914894 0.40848336079676495 0.4402901012647746
0.17361702127659576 0.40645227327454 0.43970043069380604
0.17382978723404255 0.4044211857523153 0.43911076012283756
0.17404255319148937 0.4023900982300903 0.438521089551869
0.17425531914893616 0.4003590107078656 0.4379314189809006
0.17446808510638298 0.39832792318564064 0.43734174840993206
0.17468085106382977 0.39629683566341595 0.4367520778389636
0.1748936170212766 0.394265748141191 0.43616240726799504
0.1751063829787234 0.39223466061896606 0.4355727366970265
0.1753191489361702 0.3902035730967413 0.4349830661260581
0.17553191489361702 0.38817248557451633 0.43439339555508955
0.17574468085106382 0.38614139805229164 0.43380372498412106
0.17595744680851064 0.38436208011171047 0.43305957253135263
0.17617021276595746 0.3837724336078574 0.43158545627171985
0.17638297872340425 0.3831827871040044 0.43011134001208723
0.17659574468085107 0.38259314060015126 0.42863722375245444
0.17680851063829786 0.38251099169516367 0.42878742880875925
0.17702127659574468 0.38251099169516367 0.42920056361635867
0.1772340425531915 0.3835879705974084 0.4296781357856491
0.1774468085106383 0.38576043873116916 0.4302212528190893
0.1776595744680851 0.38547281085760043 0.43275177842512424
0.1778723404255319 0.38613698556948167 0.43511913623214765
0.17808510638297873 0.39261729784849014 0.434530016934056
0.17829787234042552 0.4010105438320178 0.43828023984689624
0.17851063829787234 0.4106816092304596 0.444929097308325
0.17872340425531916 0.42143919986105133 0.44878060440511025
0.17893617021276595 0.4315849484778329 0.45255581622552493
0.17914893617021277 0.4409339545900933 0.45629541867042916
0.17936170212765956 0.44856781285747677 0.4589184681516455
0.17957446808510638 0.4550449152324454 0.4610775022766351
0.1797872340425532 0.4592613924501961 0.462482994682552
0.18 0.46323516245577223 0.46330181300758044
0.1802127659574468 0.46624715590174726 0.46179581628459293
0.1804255319148936 0.4684904738641915 0.46043578692450854
0.18063829787234043 0.4684904738641915 0.45950175164664314
0.18085106382978725 0.4685702107525691 0.4584808674980328
0.18106382978723404 0.46905902795895016 0.4570144158788895
0.18127659574468086 0.4695474829946377 0.45570898989251424
0.18148936170212765 0.47003409639855637 0.4552223764885955
0.18170212765957447 0.4709482042537453 0.45487487628892376
0.18191489361702126 0.4741663470199501 0.45527714413469944
0.18212765957446808 0.4773844897861553 0.4556794119804751
0.1823404255319149 0.4816288324056985 0.4564625520209541
0.1825531914893617 0.4862572193566612 0.4573882294111466
0.1827659574468085 0.4859359489877239 0.4580423694899943
0.1829787234042553 0.48253834008919294 0.4585277421897844
0.18319148936170213 0.482145827050211 0.45744829313025104
0.18340425531914895 0.4837257221947792 0.4553417662708268
0.18361702127659574 0.4853056173393472 0.45323523941140287
0.18382978723404256 0.4868855124839154 0.4511287125519787
0.18404255319148935 0.4858567411497801 0.4506924408000459
0.18425531914893617 0.4845160918846992 0.45045585563561985
0.184468085106383 0.48317544261961826 0.4502192704711938
0.18468085106382978 0.4818347933545375 0.44998268530676777
0.1848936170212766 0.48049414408945657 0.44974610014234173
0.1851063829787234 0.4791534948243758 0.4495095149779157
0.1853191489361702 0.4778128455592949 0.44927292981348965
0.185531914893617 0.4764721962942141 0.44903634464906367
0.18574468085106383 0.4751315470291332 0.44879975948463763
0.18595744680851065 0.47379089776405225 0.4485631743202116
0.18617021276595744 0.47245024849897144 0.44832658915578555
0.18638297872340426 0.4711095992338905 0.4480900039913595
0.18659574468085105 0.46976894996880975 0.4478534188269335
0.18680851063829787 0.4684283007037288 0.4476168336625075
0.1870212765957447 0.4670876514386479 0.44738024849808145
0.18723404255319148 0.4657470021735671 0.4471436633336554
0.1874468085106383 0.4644063529084862 0.44690707816922937
0.1876595744680851 0.46306570364340544 0.4466704930048034
0.18787234042553191 0.4617250543783245 0.44643390784037734
0.18808510638297873 0.4603844051132436 0.4461973226759513
0.18829787234042553 0.4590437558481628 0.44596073751152526
0.18851063829787235 0.45770310658308183 0.4457241523470992
0.18872340425531914 0.45636245731800107 0.44548756718267324
0.18893617021276596 0.45502180805292014 0.4452509820182472
0.18914893617021278 0.45357897922139423 0.44511131538843624
0.18936170212765957 0.4513471928118761 0.4457199844092139
0.1895744680851064 0.44911540640235764 0.4463286534299917
0.18978723404255318 0.4468836199928395 0.44693732245076934
0.19 0.4446518335833211 0.4475459914715471
0.1902127659574468 0.4432590070853925 0.4481442049359056
0.19042553191489361 0.4438327126011176 0.4487179104516307
0.19063829787234043 0.4444064181168427 0.4492916159673557
0.19085106382978723 0.4449801236325678 0.44986532148308067
0.19106382978723405 0.44418303688884164 0.44477579827491615
0.19127659574468084 0.44322165855512513 0.43900752827261696
0.19148936170212766 0.44226028022140845 0.433239258270317
0.19170212765957448 0.44000119340088545 0.4322426615209864
0.19191489361702127 0.43750243575337516 0.4321273342449475
0.1921276595744681 0.43500367810586454 0.4320120069689085
0.19234042553191488 0.4325049204583542 0.4318966796928696
0.1925531914893617 0.4300061628108436 0.43178135241683063
0.19276595744680852 0.42750740516333297 0.43166602514079166
0.19297872340425531 0.4250086475158227 0.43155069786475275
0.19319148936170213 0.42250988986831206 0.4314353705887138
0.19340425531914893 0.4200111322208018 0.4313200433126748
0.19361702127659575 0.41751237457329116 0.4312047160366359
0.19382978723404254 0.41501361692578087 0.43108938876059694
0.19404255319148936 0.4125148592782702 0.43097406148455797
0.19425531914893618 0.4100161016307596 0.43085873420851906
0.19446808510638297 0.4075173439832493 0.4307434069324801
0.1946808510638298 0.4050185863357387 0.4306280796564411
0.19489361702127658 0.4025198286882284 0.4305127523804022
0.1951063829787234 0.40002107104071777 0.43039742510436324
0.19531914893617022 0.39752231339320715 0.4302820978283243
0.19553191489361701 0.39502355574569686 0.43016677055228536
0.19574468085106383 0.3925247980981862 0.4300514432762464
0.19595744680851063 0.3900260404506759 0.4299361160002075
0.19617021276595745 0.3875272828031653 0.4298207887241685
0.19638297872340427 0.38502852515565467 0.42970546144812954
0.19659574468085106 0.3825297675081444 0.42959013417209063
0.19680851063829788 0.38003100986063376 0.42947480689605166
0.19702127659574467 0.37901631356443743 0.4291332376269652
0.1972340425531915 0.37998138439189466 0.42848985707532705
0.19744680851063828 0.3809464552193517 0.42784647652368896
0.1976595744680851 0.38311916992932543 0.429040029724147
0.19787234042553192 0.3871709525603387 0.4330918123551603
0.19808510638297872 0.3923746353746491 0.43731633872141384
0.19829787234042554 0.4016387351373044 0.44214978207584266
0.19851063829787233 0.4109028348999585 0.44698322543027086
0.19872340425531915 0.4206315367725208 0.45295684551287696
0.19893617021276597 0.430479823021763 0.4592239367623947
0.19914893617021276 0.4403821111917339 0.46418787282394547
0.19936170212765958 0.4503185354222212 0.4683280495866486
0.19957446808510637 0.45832894735446983 0.4702497750516856
0.1997872340425532 0.46064663086261426 0.46561440803539694
0.2 0.46296431437075863 0.46097904101910825
0.2002127659574468 0.46474182782504486 0.45983918670968904
0.20042553191489362 0.46631285009414564 0.46003556449332667
0.20063829787234042 0.4678838723632462 0.46023194227696423
0.20085106382978724 0.4694548946323469 0.4604283200606018
0.20106382978723403 0.47102591690144746 0.4606246978442394
0.20127659574468085 0.47259693917054824 0.46082107562787694
0.20148936170212767 0.47416796143964896 0.46101745341151457
0.20170212765957446 0.4757389837087495 0.46121383119515214
0.20191489361702128 0.4773100059778502 0.4614102089787897
0.20212765957446807 0.4788810282469508 0.4616065867624273
0.2023404255319149 0.48045205051605155 0.4618029645460649
0.2025531914893617 0.4820230727851523 0.46199934232970247
0.2027659574468085 0.4835940950542528 0.46219572011334004
0.20297872340425532 0.4851651173233536 0.46239209789697766
0.20319148936170212 0.48673613959245415 0.46258847568061523
0.20340425531914894 0.4883071618615549 0.4627848534642528
0.20361702127659576 0.48987818413065565 0.46298123124789037
0.20382978723404255 0.4914492063997562 0.46317760903152794
0.20404255319148937 0.4930202286688569 0.46337398681516556
0.20425531914893616 0.49459125093795747 0.46357036459880313
0.20446808510638298 0.4971648556691567 0.4613109626014833
0.20468085106382977 0.49995523354357774 0.4585205847270622
0.2048936170212766 0.5020845315510587 0.4569533551746501
0.2051063829787234 0.5030939897711382 0.4574580842846897
0.2053191489361702 0.5031646125940189 0.45749339569613007
0.20553191489361702 0.5020179657879125 0.45692007229307696
0.20574468085106382 0.5017098192476794 0.4574904670404643
0.20595744680851064 0.5017098192476794 0.45848117506073177
0.20617021276595746 0.5027850464599748 0.4597953053754608
0.20638297872340425 0.5042019515607022 0.4612122104761884
0.20659574468085107 0.5038789645709499 0.46012725009939853
0.20680851063829786 0.5027749423501753 0.4579192056578492
0.20702127659574468 0.4998196535189992 0.4596545087922516
0.2072340425531915 0.4967885244930122 0.46163314842139613
0.2074468085106383 0.49585720289407914 0.46116748762192966
0.2076595744680851 0.49492588129514603 0.4607018268224631
0.2078723404255319 0.49263011847181687 0.4561933097330817
0.20808510638297872 0.49024815888110784 0.4514293905516637
0.20829787234042554 0.48727602717217405 0.45219684482779393
0.20851063829787234 0.484230702847013 0.45365029507389354
0.20872340425531916 0.48118537852185145 0.45510374531999337
0.20893617021276595 0.47814005419669037 0.456557195566093
0.20914893617021277 0.4750947298715289 0.4580106458121928
0.20936170212765956 0.47204940554636776 0.4594640960582924
0.20957446808510638 0.4690040812212063 0.46091754630439224
0.2097872340425532 0.46595875689604477 0.4623709965504921
0.21 0.4629134325708837 0.4638244467965917
0.2102127659574468 0.4598681082457222 0.4652778970426915
0.2104255319148936 0.4568227839205611 0.4667313472887911
0.21063829787234042 0.4537774595953996 0.46818479753489095
0.21085106382978724 0.4507321352702381 0.4696382477809907
0.21106382978723404 0.447686810945077 0.4710916980270904
0.21127659574468086 0.4463386123801962 0.4687936288075462
0.21148936170212765 0.445488718025099 0.4653940513871571
0.21170212765957447 0.4446388236700016 0.46199447396676757
0.2119148936170213 0.44421966623327713 0.4544209425971578
0.21212765957446808 0.4446982924321711 0.4381476518347609
0.2123404255319149 0.44422581310379555 0.42661372419610244
0.2125531914893617 0.44134223335187517 0.4270943208214225
0.2127659574468085 0.43845865359995445 0.42757491744674264
0.2129787234042553 0.43557507384803407 0.42805551407206266
0.21319148936170212 0.4326914940961133 0.4285361106973828
0.21340425531914894 0.4298079143441926 0.4290167073227029
0.21361702127659574 0.4269243345922722 0.429497303948023
0.21382978723404256 0.4240407548403514 0.4299779005733431
0.21404255319148935 0.4211571750884311 0.4304584971986632
0.21425531914893617 0.4182735953365103 0.4309390938239833
0.214468085106383 0.41539001558458954 0.43141969044930345
0.21468085106382978 0.4125064358326692 0.4319002870746235
0.2148936170212766 0.40962285608074844 0.43238088369994365
0.2151063829787234 0.40673927632882806 0.4328614803252637
0.2153191489361702 0.40385569657690734 0.4333420769505838
0.21553191489361703 0.40097211682498657 0.4338226735759039
0.21574468085106382 0.3980885370730662 0.434303270201224
0.21595744680851064 0.39520495732114547 0.43478386682654413
0.21617021276595744 0.3923213775692251 0.4352644634518642
0.21638297872340426 0.3894377978173043 0.43574506007718433
0.21659574468085105 0.386554218065384 0.4362256567025044
0.21680851063829787 0.3836706383134632 0.43670625332782453
0.2170212765957447 0.3807870585615425 0.43718684995314466
0.21723404255319148 0.3814980118541881 0.4376957572705235
0.2174468085106383 0.3825207375538877 0.4382071201203733
0.2176595744680851 0.3835434632535872 0.438718482970223
0.2178723404255319 0.38510490452589213 0.4394778758166913
0.21808510638297873 0.39157629038932545 0.44249785588629353
0.21829787234042553 0.39804767625275794 0.4455178359558954
0.21851063829787234 0.41014013419134554 0.44571246736837533
0.21872340425531914 0.4233498391243727 0.44534553112023567
0.21893617021276596 0.43567021245299387 0.4452135396245285
0.21914893617021278 0.443694289191868 0.4462165492168877
0.21936170212765957 0.450852317348477 0.44771551079011707
0.2195744680851064 0.4549976990578855 0.45093969656410143
0.21978723404255318 0.45914308076729343 0.45416388233808536
0.22 0.4632884624767019 0.4573880681120697
0.2202127659574468 0.46743384418610984 0.4606122538860537
0.2204255319148936 0.46914095948118234 0.4607698940790822
0.22063829787234043 0.47080034436943063 0.46086750495486145
0.22085106382978723 0.4724597292576787 0.46096511583064076
0.22106382978723405 0.47411911414592695 0.46106272670642007
0.22127659574468084 0.475778499034175 0.4611603375821994
0.22148936170212766 0.47743788392242326 0.4612579484579787
0.22170212765957448 0.47909726881067155 0.461355559333758
0.22191489361702127 0.48075665369891957 0.46145317020953724
0.2221276595744681 0.48241603858716786 0.46155078108531655
0.22234042553191488 0.4840754234754159 0.46164839196109586
0.2225531914893617 0.48573480836366417 0.46174600283687517
0.22276595744680852 0.48739419325191247 0.4618436137126545
0.2229787234042553 0.4890535781401605 0.4619412245884338
0.22319148936170213 0.4907129630284088 0.4620388354642131
0.22340425531914893 0.4923723479166568 0.46213644633999235
0.22361702127659575 0.4940317328049051 0.46223405721577165
0.22382978723404254 0.4956911176931531 0.46233166809155096
0.22404255319148936 0.4973505025814014 0.46242927896733027
0.22425531914893618 0.49900988746964964 0.4625268898431096
0.22446808510638297 0.5006692723578977 0.46262450071888883
0.2246808510638298 0.5010182385463846 0.46120094209953716
0.22489361702127658 0.5013150571385155 0.45971684913888267
0.2251063829787234 0.5016118757306465 0.45823275617822795
0.22531914893617022 0.5019773252233547 0.4574755326173877
0.225531914893617 0.5023765745865414 0.4570762832542012
0.22574468085106383 0.5020645621825268 0.4566857026829275
0.22595744680851063 0.49927187779141063 0.45632535630988025
0.22617021276595745 0.4964791934002941 0.455965009936833
0.22638297872340427 0.49368650900917754 0.45560466356378565
0.22659574468085106 0.49089382461806136 0.4552443171907384
0.22680851063829788 0.4881011402269448 0.4548839708176911
0.22702127659574467 0.4853084558358286 0.45452362444464384
0.2272340425531915 0.482515771444712 0.45416327807159657
0.22744680851063828 0.47972308705359584 0.4538029316985493
0.2276595744680851 0.47693040266247927 0.453442585325502
0.22787234042553192 0.47413771827136275 0.4530822389524547
0.22808510638297871 0.47134503388024657 0.4527218925794075
0.22829787234042553 0.46855234948913 0.45236154620636015
0.22851063829787233 0.4657596650980138 0.45200119983331294
0.22872340425531915 0.46296698070689724 0.4516408534602656
0.22893617021276597 0.46017429631578066 0.45128050708721834
0.22914893617021276 0.4573816119246645 0.45092016071417107
0.22936170212765958 0.45458892753354796 0.4505598143411238
0.22957446808510637 0.4517962431424317 0.4501994679680765
0.2297872340425532 0.4490035587513152 0.44983912159502926
0.23 0.44621087436019863 0.44947877522198193
0.2302127659574468 0.44341818996908244 0.44911842884893466
0.23042553191489362 0.44225871378101095 0.44969122401008665
0.23063829787234041 0.44253764053094774 0.4510858577597708
0.23085106382978723 0.4428165672808846 0.452480491509455
0.23106382978723405 0.4431290255165384 0.45377943967930023
0.23127659574468085 0.4445699401864579 0.4518582201194075
0.23148936170212767 0.44601085485637765 0.4499370005595146
0.23170212765957446 0.44385493377118523 0.45209035201288894
0.23191489361702128 0.4416796661055529 0.45426561967852125
0.23212765957446807 0.441133365901319 0.453300033683967
0.2323404255319149 0.441133365901319 0.45128111234865875
0.2325531914893617 0.4395201609789955 0.4517103640635066
0.2327659574468085 0.43753612577652634 0.45270238166474125
0.23297872340425532 0.43424335843576517 0.45030197001242706
0.23319148936170211 0.4307073871999746 0.44727113752460657
0.23340425531914893 0.42844440545836343 0.447966365907848
0.23361702127659575 0.4259574163812016 0.4486895044778505
0.23382978723404255 0.41938344653939297 0.44540251955694615
0.23404255319148937 0.41434078855764495 0.44288119056607217
0.23425531914893616 0.41020548980403726 0.44314369266278064
0.23446808510638298 0.4050550637963597 0.459330745829767
0.2346808510638298 0.4058251719726513 0.46262823644357587
0.2348936170212766 0.40810990920014795 0.46262823644357587
0.2351063829787234 0.4103946464276449 0.46262823644357587
0.2353191489361702 0.4126793836551416 0.46262823644357587
0.23553191489361702 0.41496412088263857 0.46262823644357587
0.23574468085106381 0.4172488581101353 0.46262823644357587
0.23595744680851063 0.41953359533763224 0.46262823644357587
0.23617021276595745 0.42181833256512924 0.46262823644357587
0.23638297872340425 0.4241030697926259 0.46262823644357587
0.23659574468085107 0.4263878070201229 0.46262823644357587
0.23680851063829786 0.4286725442476196 0.46262823644357587
0.23702127659574468 0.4309572814751166 0.46262823644357587
0.2372340425531915 0.43324201870261353 0.46262823644357587
0.2374468085106383 0.43552675593011025 0.46262823644357587
0.2376595744680851 0.4378114931576072 0.46262823644357587
0.2378723404255319 0.4400962303851039 0.46262823644357587
0.23808510638297872 0.4423809676126009 0.46262823644357587
0.23829787234042554 0.4446657048400979 0.46262823644357587
0.23851063829787233 0.44695044206759454 0.46262823644357587
0.23872340425531915 0.44923517929509155 0.46262823644357587
0.23893617021276595 0.4515199165225882 0.46262823644357587
0.23914893617021277 0.45380465375008516 0.46262823644357587
0.23936170212765956 0.4560893909775819 0.46262823644357587
0.23957446808510638 0.45837412820507883 0.46262823644357587
0.2397872340425532 0.46065886543257584 0.46262823644357587
0.24 0.4629436026600725 0.46262823644357587
0.2402127659574468 0.46471328362576636 0.46262823644357587
0.2404255319148936 0.46517646675894136 0.46262823644357587
0.24063829787234042 0.4657293726871751 0.46228820137699306
0.24085106382978724 0.4667101250440273 0.46032669666328874
0.24106382978723404 0.4676075585660967 0.4587200781631655
0.24127659574468086 0.46812779631034224 0.4587200781631655
0.24148936170212765 0.46885925887398133 0.45945764818274515
0.24170212765957447 0.4700769261103699 0.4618929826555225
0.2419148936170213 0.4728136622416711 0.46262823644357587
0.24212765957446808 0.4755243205869382 0.4620445272474903
0.2423404255319149 0.4762767130098905 0.4597873499786334
0.2425531914893617 0.479376481293916 0.4558600041471384
0.2427659574468085 0.47965448069864614 0.45761425991663757
0.2429787234042553 0.4802130382770601 0.45839694554428145
0.24319148936170212 0.4820338509259457 0.4560593132922219
0.24340425531914894 0.48059668681094003 0.4589336415222333
0.24361702127659574 0.4842511397489173 0.4605043559419672
0.24382978723404256 0.48974718483106544 0.4616035649583968
0.24404255319148935 0.4928077481509547 0.46071039562530464
0.24425531914893617 0.4957579946330954 0.4597269801312578
0.244468085106383 0.4985329803624039 0.45745928562048493
0.24468085106382978 0.5013024774551855 0.45515137137650014
0.2448936170212766 0.5013329258663033 0.45481191988275516
0.2451063829787234 0.5008910391182632 0.45481191988275516
0.2453191489361702 0.5016467273015963 0.45511656909076165
0.24553191489361703 0.5030706428872453 0.45559120761931143
0.24574468085106382 0.5036638983878847 0.45838133442314866
0.24595744680851064 0.5036638983878847 0.4628251775674848
0.24617021276595744 0.5003395235575534 0.4631303653236312
0.24638297872340426 0.49717234743431027 0.4631498254992915
0.24659574468085105 0.49988271903821596 0.4672153829051501
0.24680851063829787 0.49910565747864016 0.46798982087990326
0.2470212765957447 0.4967350291868472 0.4672603967901208
0.24723404255319148 0.49436440089505457 0.4665309727003385
0.2474468085106383 0.4919937726032616 0.465801548610556
0.2476595744680851 0.4896231443114689 0.4650721245207737
0.2478723404255319 0.48725251601967595 0.46434270043099124
0.24808510638297873 0.484881887727883 0.46361327634120875
0.24829787234042552 0.4825112594360903 0.4628838522514264
0.24851063829787234 0.48014063114429734 0.462154428161644
0.24872340425531914 0.4777700028525047 0.4614250040718616
0.24893617021276596 0.47539937456071174 0.46069557998207916
0.24914893617021278 0.4730287462689188 0.45996615589229667
0.24936170212765957 0.4706581179771261 0.45923673180251434
0.2495744680851064 0.4682874896853331 0.4585073077127319
0.24978723404255318 0.4659168613935405 0.4577778836229495
0.25 0.46354623310174753 0.4570484595331671
0.2502127659574468 0.46117560480995484 0.4563190354433847
0.25042553191489364 0.45880497651816154 0.45558961135360215
0.25063829787234043 0.4564343482263689 0.4548601872638198
0.2508510638297872 0.4540637199345763 0.45413076317403744
0.251063829787234 0.4516930916427836 0.4534013390842551
0.25127659574468086 0.4493224633509903 0.45267191499447257
0.25148936170212766 0.44695183505919767 0.4519424909046902
0.25170212765957445 0.444581206767405 0.45121306681490786
0.2519148936170213 0.44221057847561174 0.4504836427251253
0.2521276595744681 0.43983995018381905 0.44975421863534293
0.2523404255319149 0.4374693218920264 0.44902479454556055
0.2525531914893617 0.43571748734059373 0.4487821579865492
0.2527659574468085 0.4340366875349612 0.44859540245259005
0.2529787234042553 0.4323558877293292 0.4484086469186309
0.2531914893617021 0.4306750879236972 0.44822189138467183
0.25340425531914895 0.4289942881180647 0.4480351358507127
0.25361702127659574 0.4248775813448632 0.44700329648882203
0.25382978723404254 0.41953583128639116 0.4455464555637842
0.2540425531914894 0.4141940812279178 0.44408961463874597
0.2542553191489362 0.40885233116944575 0.4426327737137081
0.25446808510638297 0.4041058472465 0.4400881671134013
0.25468085106382976 0.399692115827343 0.4369355018140034
0.2548936170212766 0.39527838440818475 0.4337828365146047
0.2551063829787234 0.391819253595851 0.43244280786828443
0.2553191489361702 0.38916565104896844 0.4326323509073475
0.25553191489361704 0.38651204850208515 0.4328218939464105
0.25574468085106383 0.3838584459552026 0.43301143698547356
0.2559574468085106 0.38120484340831995 0.4332009800245366
0.2561702127659574 0.38144468790065067 0.43399516385533277
0.25638297872340426 0.3862554239231401 0.43574452240896533
0.25659574468085106 0.3910661599456283 0.4374938809625974
0.25680851063829785 0.39587689596811654 0.43924323951622946
0.2570212765957447 0.400687631990606 0.44099259806986196
0.2572340425531915 0.4054983680130942 0.4427419566234941
0.2574468085106383 0.4103091040355824 0.44449131517712615
0.25765957446808513 0.41511984005807184 0.44624067373075865
0.2578723404255319 0.41993057608056006 0.4479900322843907
0.2580851063829787 0.4247413121030483 0.44973939083802283
0.2582978723404255 0.42955204812553643 0.4514887493916549
0.25851063829787235 0.4343627841480259 0.4532381079452874
0.25872340425531914 0.43917352017051414 0.4549874664989195
0.25893617021276594 0.4439842561930023 0.4567368250525516
0.2591489361702128 0.4487949922154918 0.4584861836061841
0.2593617021276596 0.45360572823797995 0.46023554215981616
0.25957446808510637 0.45841646426046817 0.4619849007134482
0.2597872340425532 0.46322720028295766 0.4637342592670808
0.26 0.46598153215799554 0.46373796157555747
0.2602127659574468 0.4668009453614999 0.4620991351685487
0.2604255319148936 0.4676203585650043 0.46046030876154004
0.26063829787234044 0.4684397717685088 0.45882148235453085
0.26085106382978723 0.4678483338953537 0.45743579822548996
0.261063829787234 0.46716384011920076 0.45606681067318416
0.2612765957446809 0.46670516474926266 0.45487942789286573
0.26148936170212767 0.46873014828082443 0.45568942130549045
0.26170212765957446 0.4707551318123862 0.45649941471811517
0.26191489361702125 0.4717805197828135 0.4567435660724408
0.2621276595744681 0.4723155286190369 0.45671012802017685
0.2623404255319149 0.4728505374552602 0.4566766899679129
0.2625531914893617 0.4733855462914835 0.4566432519156489
0.26276595744680853 0.47392055512770687 0.456609813863385
0.2629787234042553 0.4744555639639302 0.45657637581112104
0.2631914893617021 0.47499057280015344 0.45654293775885707
0.26340425531914896 0.47552558163637687 0.4565094997065931
0.26361702127659575 0.4760605904726002 0.45647606165432913
0.26382978723404255 0.47659559930882345 0.4564426236020652
0.26404255319148934 0.47713060814504676 0.45640918554980126
0.2642553191489362 0.4776656169812702 0.4563757474975373
0.264468085106383 0.47820062581749345 0.4563423094452733
0.26468085106382977 0.4787356346537167 0.4563088713930094
0.2648936170212766 0.47927064348994014 0.45627543334074544
0.2651063829787234 0.47980565232616346 0.45624199528848147
0.2653191489361702 0.4803406611623867 0.4562085572362175
0.265531914893617 0.48087566999861003 0.45617511918395354
0.26574468085106384 0.48141067883483346 0.4561416811316896
0.26595744680851063 0.4819456876710567 0.45610824307942566
0.2661702127659574 0.48248069650728004 0.4560748050271617
0.2663829787234043 0.48301570534350347 0.4560413669748977
0.26659574468085107 0.4835507141797267 0.45600792892263375
0.26680851063829786 0.48408572301595 0.45597449087036984
0.2670212765957447 0.4846207318521734 0.4559410528181059
0.2672340425531915 0.48515574068839673 0.4559076147658419
0.2674468085106383 0.48569074952462 0.45587417671357794
0.2676595744680851 0.4862257583608433 0.455840738661314
0.26787234042553193 0.48676076719706673 0.45580730060905006
0.2680851063829787 0.48397849553074923 0.4549865950618862
0.2682978723404255 0.4771660735911089 0.45320944151241477
0.26851063829787236 0.47035365165146675 0.4514322879629429
0.26872340425531915 0.46391229219110286 0.45059674542492056
0.26893617021276595 0.4595279448636498 0.45498109275237364
0.26914893617021274 0.4551435975361967 0.4593654400798267
0.2693617021276596 0.45084656484735214 0.45485057268999785
0.2695744680851064 0.44655667814295213 0.44960737782906446
0.26978723404255317 0.44307690440586567 0.44894968246213973
0.27 0.43971332467250335 0.44894968246213973
0.2702127659574468 0.4426212159143855 0.4476589590296628
0.2704255319148936 0.44671276284036204 0.44612462893242155
0.27063829787234045 0.44744728607695267 0.4473736120168864
0.27085106382978724 0.4479325114979158 0.44882928827977553
0.27106382978723403 0.4487974466899908 0.4514240938560005
0.2712765957446808 0.4496966179795132 0.45412160772456794
0.2714893617021277 0.44845296435117493 0.4539276652741148
0.27170212765957447 0.4464723553455995 0.45273929987076955
0.27191489361702126 0.444590536427464 0.45203113042386933
0.2721276595744681 0.44296582488082964 0.4525727009394141
0.2723404255319149 0.4416588846223684 0.4521805594689703
0.2725531914893617 0.44070529222033505 0.4507501708659202
0.2727659574468085 0.4390469576443282 0.44937203768879813
0.27297872340425533 0.43643248351298686 0.4480648006231274
0.2731914893617021 0.4338208740522785 0.446837865035827
0.2734042553191489 0.43122213176153906 0.4459716176055806
0.27361702127659576 0.428623389470799 0.4451053701753339
0.27382978723404255 0.424127027223828 0.44288911204865067
0.27404255319148935 0.4189923535877096 0.4392604643534862
0.2742553191489362 0.41235113853802396 0.4315975239115413
0.274468085106383 0.4071467587150749 0.4264458031079986
0.2746808510638298 0.4048349046708416 0.42634947585615557
0.27489361702127657 0.40252305062660826 0.4262531486043125
0.2751063829787234 0.4002111965823744 0.42615682135246946
0.2753191489361702 0.3978993425381411 0.4260604941006264
0.275531914893617 0.3955874884939078 0.42596416684878335
0.27574468085106385 0.39327563444967395 0.4258678395969403
0.27595744680851064 0.39096378040544066 0.42577151234509725
0.27617021276595743 0.3886519263612074 0.4256751850932542
0.2763829787234042 0.38634007231697404 0.42557885784141114
0.2765957446808511 0.3853920062573526 0.4258799336341255
0.27680851063829787 0.39029741276604335 0.4278866908422263
0.27702127659574466 0.39520281927473405 0.42989344805032703
0.2772340425531915 0.4001082257834261 0.4319002052584283
0.2774468085106383 0.40501363229211684 0.4339069624665291
0.2776595744680851 0.4099190388008076 0.43591371967462983
0.27787234042553194 0.41482444530949963 0.4379204768827311
0.27808510638297873 0.4197298518181904 0.4399272340908319
0.2782978723404255 0.42463525832688115 0.4419339912989327
0.2785106382978723 0.42954066483557185 0.4439407485070334
0.27872340425531916 0.4344460713442639 0.4459475057151347
0.27893617021276595 0.43935147785295464 0.4479542629232355
0.27914893617021275 0.4442568843616454 0.4499610201313362
0.2793617021276596 0.44916229087033743 0.4519677773394375
0.2795744680851064 0.4540676973790282 0.4539745345475383
0.2797872340425532 0.45897310388771895 0.45598129175563906
0.27999999999999997 0.4638785103964097 0.4579880489637398
0.2802127659574468 0.4687839169051017 0.4599948061718411
0.2804255319148936 0.47031091062848956 0.4604068725515567
0.2806382978723404 0.47010887162483217 0.4600027945442419
0.28085106382978725 0.4699068326211748 0.459598716536927
0.28106382978723404 0.4697047936175174 0.45919463852961223
0.28127659574468084 0.46950275461386004 0.45879056052229744
0.2814893617021277 0.47008777436225874 0.4580998172352009
0.2817021276595745 0.4708390845221855 0.45734850707527425
0.28191489361702127 0.4717457036325725 0.4570090823165153
0.28212765957446806 0.4731882681497967 0.4580910057044335
0.2823404255319149 0.4746308326670212 0.4591729290923519
0.2825531914893617 0.4752380792958051 0.4594221030559545
0.2827659574468085 0.4750602499524921 0.45888861502601536
0.28297872340425534 0.47488242060917896 0.45835512699607617
0.28319148936170213 0.47470459126586595 0.45782163896613703
0.2834042553191489 0.4745267619225529 0.45728815093619796
0.2836170212765957 0.4743489325792399 0.4567546629062589
0.28382978723404256 0.47417110323592676 0.45622117487631964
0.28404255319148936 0.47399327389261375 0.45568768684638056
0.28425531914893615 0.4738154445493007 0.4551541988164415
0.284468085106383 0.4736376152059876 0.45462071078650224
0.2846808510638298 0.47345978586267456 0.45408722275656316
0.2848936170212766 0.47328195651936156 0.453553734726624
0.2851063829787234 0.4731041271760485 0.45302024669668484
0.2853191489361702 0.47292629783273543 0.4524867586667457
0.285531914893617 0.4727484684894224 0.4519532706368066
0.2857446808510638 0.47257063914610936 0.45141978260686755
0.28595744680851065 0.4723928098027963 0.4508862945769283
0.28617021276595744 0.47221498045948324 0.4503528065469892
0.28638297872340424 0.47203715111617023 0.4498193185170501
0.2865957446808511 0.4718593217728571 0.4492858304871109
0.2868085106382979 0.4716814924295441 0.44875234245717177
0.28702127659574467 0.47150366308623104 0.4482188544272327
0.28723404255319146 0.47132583374291803 0.4476853663972936
0.2874468085106383 0.4711480043996049 0.44715187836735437
0.2876595744680851 0.4709701750562919 0.4466183903374153
0.2878723404255319 0.47079234571297884 0.4460849023074762
0.28808510638297874 0.4706145163696658 0.445551414277537
0.28829787234042553 0.4702463573861315 0.44513631339046483
0.2885106382978723 0.46576566897749566 0.4472792513250299
0.28872340425531917 0.46128498056885864 0.44942218925959543
0.28893617021276596 0.4568042921602228 0.4515651271941604
0.28914893617021276 0.4523236037515869 0.4537080651287254
0.28936170212765955 0.4478666180775352 0.45581252052274723
0.2895744680851064 0.4442046036425639 0.45662630150829636
0.2897872340425532 0.4405425892075936 0.45744008249384527
0.29 0.4404214545623838 0.4560040036712849
0.2902127659574468 0.442400317700386 0.4532335952780819
0.2904255319148936 0.44442165477443035 0.4509751956349055
0.2906382978723404 0.4466676012112237 0.4514243849222643
0.2908510638297872 0.44891354764801705 0.45187357420962304
0.29106382978723405 0.44705151230397755 0.4511215331091826
0.29127659574468084 0.4451223032893203 0.4503498495033197
0.29148936170212764 0.44375582843001765 0.45100701866787435
0.2917021276595745 0.44307248106807073 0.4533987344346885
0.2919148936170213 0.442389133706124 0.45579045020150194
0.29212765957446807 0.43965382762678057 0.4555377101006399
0.2923404255319149 0.43550499758756417 0.4534632950810318
0.2925531914893617 0.43429408891060084 0.45142282522134297
0.2927659574468085 0.43429408891060084 0.44939634637217435
0.2929787234042553 0.43429408891060084 0.44853514066366895
0.29319148936170214 0.43429408891060084 0.44800339471932565
0.29340425531914893 0.4318804672434958 0.43831815622361703
0.2936170212765957 0.42927841367618336 0.42844250270499806
0.29382978723404257 0.4255726168009371 0.42874501673563037
0.29404255319148936 0.42186681992569186 0.4290475307662627
0.29425531914893616 0.4181610230504466 0.4293500447968949
0.29446808510638295 0.41445522617520136 0.4296525588275272
0.2946808510638298 0.4107494292999551 0.42995507285815954
0.2948936170212766 0.40704363242470987 0.4302575868887918
0.2951063829787234 0.4033378355494646 0.43056010091942404
0.29531914893617023 0.3996320386742184 0.4308626149500564
0.295531914893617 0.3959262417989732 0.43116512898068865
0.2957446808510638 0.39222044492372793 0.43146764301132096
0.29595744680851066 0.3885146480484817 0.43177015704195326
0.29617021276595745 0.38480885117323643 0.43207267107258557
0.29638297872340424 0.38153395212506114 0.43220949004034614
0.29659574468085104 0.38153395212506114 0.4310869974739187
0.2968085106382979 0.38153395212506114 0.42996450490749094
0.2970212765957447 0.3817665622943675 0.42871106055216884
0.29723404255319147 0.3822271602620795 0.4273292666490328
0.2974468085106383 0.38309475261800385 0.43289914250102196
0.2976595744680851 0.3846158498961504 0.4496312125606337
0.2978723404255319 0.38714917929505027 0.4586913879297272
0.29808510638297875 0.39088619776909694 0.45862858089654995
0.29829787234042554 0.3946232162431426 0.4585657738633727
0.29851063829787233 0.39836023471718834 0.4585029668301955
0.2987234042553191 0.402097253191234 0.45844015979701824
0.298936170212766 0.4058342716652807 0.458377352763841
0.29914893617021276 0.40957129013932636 0.45831454573066377
0.29936170212765956 0.41330830861337203 0.45825173869748653
0.2995744680851064 0.4170453270874187 0.4581889316643093
0.2997872340425532 0.4207823455614644 0.45812612463113206
0.3 0.42451936403551005 0.4580633175979548
0.3002127659574468 0.4282563825095557 0.4580005105647776
0.30042553191489363 0.4319934009836024 0.45793770353160035
0.3006382978723404 0.43573041945764807 0.4578748964984231
0.3008510638297872 0.4394674379316938 0.4578120894652459
0.30106382978723406 0.4432044564057404 0.4577492824320686
0.30127659574468085 0.44694147487978614 0.4576864753988914
0.30148936170212765 0.4506784933538318 0.45762366836571416
0.3017021276595745 0.4544155118278785 0.4575608613325369
0.3019148936170213 0.45815253030192415 0.45749805429935964
0.3021276595744681 0.4618895487759698 0.4574352472661824
0.30234042553191487 0.4656265672500155 0.45737244023300516
0.3025531914893617 0.46936358572406217 0.4573096331998279
0.3027659574468085 0.47310060419810784 0.4572468261666507
0.3029787234042553 0.47683762267215357 0.45718401913347345
0.30319148936170215 0.4805746411462002 0.4571212121002962
0.30340425531914894 0.4843116596202459 0.457058405067119
0.30361702127659573 0.4880486780942916 0.45699559803394174
0.3038297872340425 0.49178569656833726 0.4569327910007645
0.3040425531914894 0.49552271504238393 0.45686998396758727
0.30425531914893617 0.4992597335164296 0.45680717693441003
0.30446808510638296 0.5014513904959769 0.45689521339881173
0.3046808510638298 0.5007009604329116 0.4572704284303444
0.3048936170212766 0.4999505303698465 0.4576456434618769
0.3051063829787234 0.5004576935342931 0.4566901084528348
0.30531914893617024 0.5014057302906585 0.45526805331828657
0.30553191489361703 0.5027034740078774 0.4558055746429531
0.3057446808510638 0.5041663584788922 0.45726845911396796
0.3059574468085106 0.5036319906206046 0.4580793543721905
0.30617021276595746 0.5021385514454547 0.45857716743057375
0.30638297872340425 0.5028604677592478 0.4581447539073814
0.30659574468085105 0.5044744550820711 0.4573377602459697
0.3068085106382979 0.5051335118029805 0.4580982797670109
0.3070212765957447 0.5034714928569997 0.4626688318684585
0.3072340425531915 0.5018094739110187 0.46723938396990605
0.30744680851063827 0.4985961216329143 0.46581505377694427
0.3076595744680851 0.4952838182954067 0.46400834286557646
0.3078723404255319 0.4919715149578999 0.4622016319542091
0.3080851063829787 0.4846971859671011 0.4590406977028692
0.30829787234042555 0.47568690229407823 0.4552864128391097
0.30851063829787234 0.4671560967019717 0.4516306648579655
0.30872340425531913 0.4633085193013868 0.448937360677556
0.308936170212766 0.4594609419008008 0.4462440564971458
0.3091489361702128 0.4554781743731152 0.4430283115417758
0.30936170212765957 0.451386355621442 0.4393911393180663
0.30957446808510636 0.44774444780979 0.4379139131365371
0.3097872340425532 0.44476489013620296 0.43961651752144393
0.31 0.4421507631720629 0.4413351544045259
0.3102127659574468 0.4425206742178198 0.4431847096333105
0.31042553191489364 0.44289058526357683 0.4450342648620956
0.31063829787234043 0.44258786100325986 0.44593529974545454
0.3108510638297872 0.44151995981780845 0.445757316214546
0.311063829787234 0.4404520586323571 0.4455793326836374
0.31127659574468086 0.43938415744690545 0.44540134915272883
0.31148936170212765 0.43831625626145404 0.4452233656218203
0.31170212765957445 0.4372483550760027 0.4450453820909117
0.3119148936170213 0.43618045389055105 0.4448673985600031
0.3121276595744681 0.43511255270509963 0.4446894150290946
0.3123404255319149 0.4340446515196483 0.444511431498186
0.3125531914893617 0.43297675033419664 0.4443334479672774
0.3127659574468085 0.4319088491487452 0.4441554644363689
0.3129787234042553 0.4309827682159644 0.44423557550457476
0.3131914893617021 0.4302049888016054 0.4445855762410363
0.31340425531914895 0.4294272093872462 0.44493557697749786
0.31361702127659574 0.4286494299728873 0.44528557771395944
0.31382978723404253 0.4278716505585283 0.44563557845042095
0.3140425531914894 0.4270938711441692 0.44598557918688253
0.3142553191489362 0.4263160917298102 0.4463355799233441
0.31446808510638297 0.42553831231545125 0.4466855806598056
0.31468085106382976 0.42476053290109234 0.44703558139626715
0.3148936170212766 0.42398275348673314 0.4473855821327288
0.3151063829787234 0.42320497407237423 0.4477355828691903
0.3153191489361702 0.42242719465801526 0.4480855836056518
0.31553191489361704 0.4216494152436561 0.44843558434211345
0.31574468085106383 0.42087163582929715 0.44878558507857497
0.3159574468085106 0.4200938564149382 0.4491355858150365
0.31617021276595747 0.41931607700057905 0.4494855865514981
0.31638297872340426 0.4185382975862201 0.44983558728795964
0.31659574468085105 0.41776051817186116 0.45018558802442116
0.31680851063829785 0.4169827387575022 0.4505355887608827
0.3170212765957447 0.41620495934314305 0.4508855894973443
0.3172340425531915 0.4154271799287841 0.45123559023380583
0.3174468085106383 0.4146494005144251 0.45158559097026735
0.3176595744680851 0.413871621100066 0.451935591706729
0.3178723404255319 0.413093841685707 0.4522855924431905
0.3180851063829787 0.4123160622713481 0.452635593179652
0.3182978723404255 0.41459492042153023 0.4535671467392054
0.31851063829787235 0.4221913000894444 0.45551040665425324
0.31872340425531914 0.4297876797573566 0.45745366656930053
0.31893617021276593 0.4373840594252688 0.4593969264843479
0.3191489361702128 0.444980439093183 0.46134018639939567
0.3193617021276596 0.45257681876109523 0.463283446314443
0.31957446808510637 0.45782373126275905 0.4641038823824419
0.3197872340425532 0.4626043095959202 0.464701454674087
0.32 0.4673848879290801 0.46529902696573194
0.3202127659574468 0.4687426511481455 0.4651969240108095
0.3204255319148936 0.4674582473202534 0.4645547220968634
0.32063829787234044 0.46617384349236085 0.4639125201829172
0.32085106382978723 0.4662576332013862 0.4622087199186736
0.321063829787234 0.46759641549753583 0.45953115532637434
0.32127659574468087 0.4683386102816915 0.457894902175563
0.32148936170212766 0.4678814451457563 0.4583520673114982
0.32170212765957445 0.4681062960106088 0.4588047726940969
0.32191489361702125 0.47114637097110434 0.45923906911702495
0.3221276595744681 0.4741864459316006 0.4596733655399531
0.3223404255319149 0.47490119436197636 0.45969711773326827
0.3225531914893617 0.4754814101372069 0.45969711773326827
0.3227659574468085 0.4760616259124376 0.45969711773326827
0.3229787234042553 0.47664184168766816 0.45969711773326827
0.3231914893617021 0.4772220574628987 0.45969711773326827
0.32340425531914896 0.47780227323812935 0.45969711773326827
0.32361702127659575 0.4783824890133599 0.45969711773326827
0.32382978723404254 0.47896270478859043 0.45969711773326827
0.32404255319148934 0.479542920563821 0.45969711773326827
0.3242553191489362 0.4801231363390517 0.45969711773326827
0.324468085106383 0.4807033521142822 0.45969711773326827
0.32468085106382977 0.48128356788951276 0.45969711773326827
0.3248936170212766 0.4818637836647435 0.45969711773326827
0.3251063829787234 0.482443999439974 0.45969711773326827
0.3253191489361702 0.48302421521520456 0.45969711773326827
0.325531914893617 0.4836044309904351 0.45969711773326827
0.32574468085106384 0.4841846467656658 0.45969711773326827
0.32595744680851063 0.48476486254089635 0.45969711773326827
0.3261702127659574 0.4853450783161269 0.45969711773326827
0.32638297872340427 0.4859252940913576 0.45969711773326827
0.32659574468085106 0.48650550986658814 0.45969711773326827
0.32680851063829786 0.4870857256418187 0.45969711773326827
0.3270212765957447 0.48766594141704933 0.45969711773326827
0.3272340425531915 0.4882461571922799 0.45969711773326827
0.3274468085106383 0.4888263729675104 0.45969711773326827
0.3276595744680851 0.489406588742741 0.45969711773326827
0.3278723404255319 0.48996885997780754 0.4596932390441763
0.3280851063829787 0.4834183154540904 0.4581519344503605
0.3282978723404255 0.47686777093037325 0.4566106298565447
0.32851063829787236 0.4705274414512773 0.4544943093331183
0.32872340425531915 0.46442713319816903 0.4517214419453417
0.32893617021276594 0.45955519239587594 0.45244028362619476
0.32914893617021274 0.45519696813092936 0.45461939575866805
0.3293617021276596 0.4489078563494512 0.45481191988275516
0.3295744680851064 0.4437603904243801 0.45435577860188503
0.32978723404255317 0.44255429871863033 0.45254664104326064
0.33 0.44211040547142155 0.4511084803988858
0.3302127659574468 0.44218583508704995 0.4499832942439636
0.3304255319148936 0.4444703833905174 0.4516967054715642
0.33063829787234045 0.4460185637518319 0.4524529482809467
0.33085106382978724 0.4460185637518319 0.45119678769424665
0.33106382978723403 0.4456257450193438 0.4509037616023448
0.3312765957446808 0.44511341427827494 0.4509037616023448
0.33148936170212767 0.44616428519647344 0.4494067469160194
0.33170212765957446 0.4474703067680054 0.4476653848206435
0.33191489361702126 0.44543316422595697 0.4498172462842458
0.3321276595744681 0.4413064080072608 0.454402530971686
0.3323404255319149 0.4385102274368387 0.45592967486761665
0.3325531914893617 0.437129453062999 0.45420370690031703
0.3327659574468085 0.4357486786891593 0.45247773893301746
0.33297872340425533 0.43269920952427365 0.45044355234385447
0.3331914893617021 0.42876747261694637 0.44824640524858334
0.3334042553191489 0.424835735709619 0.44604925815331214
0.33361702127659576 0.42090399880229074 0.44385211105804045
0.33382978723404255 0.4169722618949634 0.44165496396276926
0.33404255319148934 0.4130405249876361 0.43945781686749813
0.3342553191489362 0.40910878808030776 0.4372606697722264
0.334468085106383 0.4051770511729805 0.43506352267695525
0.3346808510638298 0.4013408701853677 0.4329023501419204
0.33489361702127657 0.3978749922443781 0.4308805880096765
0.3351063829787234 0.3944091143033876 0.428858825877432
0.3353191489361702 0.390943236362398 0.42683706374518804
0.335531914893617 0.3932254179843103 0.42790750648242093
0.33574468085106385 0.39674986408371654 0.42964623322479467
0.33595744680851064 0.4002743101831219 0.4313849599671679
0.33617021276595743 0.40379875628252715 0.4331236867095412
0.3363829787234042 0.4073232023819325 0.4348624134519145
0.33659574468085107 0.4108476484813387 0.43660114019428825
0.33680851063829786 0.414372094580744 0.4383398669366615
0.33702127659574466 0.4178965406801493 0.4400785936790348
0.3372340425531915 0.42142098677955553 0.44181732042140853
0.3374468085106383 0.42494543287896086 0.44355604716378183
0.3376595744680851 0.42846987897836614 0.4452947739061551
0.33787234042553194 0.43199432507777236 0.4470335006485288
0.33808510638297873 0.4355187711771777 0.4487722273909021
0.3382978723404255 0.439043217276583 0.4505109541332754
0.3385106382978723 0.4425676633759883 0.45224968087564865
0.33872340425531916 0.4460921094753945 0.4539884076180224
0.33893617021276595 0.44961655557479985 0.4557271343603957
0.33914893617021274 0.4531410016742051 0.457465861102769
0.3393617021276596 0.4566654477736114 0.45920458784514273
0.3395744680851064 0.4601898938730167 0.460943314587516
0.3397872340425532 0.4636735367755224 0.4626197038483454
0.34 0.46587941100377084 0.4623439695698144
0.3402127659574468 0.4680852852320187 0.4620682352912834
0.3404255319148936 0.4702911594602665 0.46179250101275243
0.3406382978723404 0.4712818597898482 0.46123199851952007
0.34085106382978725 0.47099524907310475 0.46037216636928974
0.34106382978723404 0.47070863835636134 0.4595123342190596
0.34127659574468083 0.4704445530043966 0.45866804171743236
0.3414893617021277 0.4704445530043966 0.4580059346592381
0.3417021276595745 0.4704445530043966 0.45734382760104403
0.34191489361702126 0.4706076073661907 0.4569290533847546
0.34212765957446806 0.4718885920691862 0.45821003808775007
0.3423404255319149 0.4731695767721821 0.45949102279074594
0.3425531914893617 0.474256215380362 0.45881657406761067
0.3427659574468085 0.47530559086751006 0.4577671985804626
0.34297872340425534 0.4767687676643123 0.45630402178366025
0.34319148936170213 0.47824169600547695 0.4548310934424955
0.3434042553191489 0.48111568987442177 0.45603541430098565
0.34361702127659577 0.48400816238497896 0.45727504537693875
0.34382978723404256 0.48484081467842344 0.4575413360216647
0.34404255319148935 0.4844241997466204 0.4572173021858179
0.34425531914893615 0.4840075848148173 0.45689326834997107
0.344468085106383 0.4835909698830142 0.4565692345141242
0.3446808510638298 0.48317435495121114 0.45624520067827734
0.3448936170212766 0.4827577400194081 0.45592116684243056
0.3451063829787234 0.4823411250876049 0.4555971330065836
0.3453191489361702 0.4819245101558019 0.45527309917073683
0.345531914893617 0.48150789522399884 0.45494906533489
0.3457446808510638 0.4810912802921958 0.45462503149904315
0.34595744680851065 0.48067466536039266 0.45430099766319626
0.34617021276595744 0.4802580504285896 0.4539769638273495
0.34638297872340423 0.47984143549678654 0.45365292999150264
0.3465957446808511 0.47942482056498337 0.45332889615565575
0.3468085106382979 0.47900820563318036 0.4530048623198089
0.34702127659574467 0.4785915907013773 0.4526808284839621
0.3472340425531915 0.47817497576957413 0.4523567946481152
0.3474468085106383 0.4777583608377711 0.4520327608122684
0.3476595744680851 0.47734174590596806 0.45170872697642156
0.3478723404255319 0.476925130974165 0.4513846931405747
0.34808510638297874 0.47650851604236183 0.45106065930472783
0.34829787234042553 0.47330597168430916 0.4509037616023448
0.3485106382978723 0.46748815846176145 0.4509037616023448
0.34872340425531917 0.46167034523921224 0.4509037616023448
0.34893617021276596 0.45585253201666454 0.4509037616023448
0.34914893617021275 0.45054130012622656 0.45074842096972273
0.34936170212765955 0.44811479921227904 0.4497084920066024
0.3495744680851064 0.4456882982983309 0.4486685630434818
0.3497872340425532 0.4437125977675164 0.4479726428920372
0.35 0.44264885373390045 0.4479726428920372
0.3502127659574468 0.4415851097002842 0.4479726428920372
0.3504255319148936 0.4422180509866653 0.44862345394324493
0.3506382978723404 0.4441033889694974 0.4497546567329441
0.35085106382978726 0.44598872695233005 0.45088585952264365
0.35106382978723405 0.4464964615172851 0.44947006830598524
0.35127659574468084 0.4469820439664983 0.4480133209583456
0.35148936170212763 0.44430466512912375 0.44741736993161596
0.3517021276595745 0.44153642693151596 0.446846146176554
0.3519148936170213 0.4387681887339088 0.4462749224214922
0.35212765957446807 0.43599995053630175 0.4457036986664304
0.3523404255319149 0.4332317123386939 0.4451324749113685
0.3525531914893617 0.4304634741410868 0.4445612511563067
0.3527659574468085 0.4276952359434797 0.4439900274012449
0.3529787234042553 0.4249269977458726 0.4434188036461831
0.35319148936170214 0.4221587595482648 0.44284757989112117
0.35340425531914893 0.4193905213506577 0.44227635613605937
0.3536170212765957 0.4166222831530506 0.44170513238099757
0.35382978723404257 0.41385404495544276 0.44113390862593566
0.35404255319148936 0.4110858067578357 0.44056268487087386
0.35425531914893615 0.40831756856022855 0.43999146111581205
0.354468085106383 0.40554933036262075 0.4394202373607501
0.3546808510638298 0.4027810921650136 0.43884901360568834
0.3548936170212766 0.40001285396740655 0.43827778985062654
0.3551063829787234 0.3972446157697994 0.43770656609556474
0.3553191489361702 0.3944763775721916 0.4371353423405028
0.355531914893617 0.3917081393745845 0.436564118585441
0.3557446808510638 0.3889399011769774 0.43599289483037923
0.35595744680851066 0.3861716629793696 0.43542167107531726
0.35617021276595745 0.3841096326448953 0.43580411958493387
0.35638297872340424 0.3823003218853588 0.4365278438887485
0.35659574468085103 0.3805922628233278 0.43720753248672395
0.3568085106382979 0.3815627974801899 0.43672226515829293
0.3570212765957447 0.3824638790991241 0.4362246117527864
0.35723404255319147 0.3804171690358166 0.4352012567211325
0.3574468085106383 0.37909911664216656 0.4344801951208808
0.3576595744680851 0.38347028528698496 0.43611938336268774
0.3578723404255319 0.38832471431774784 0.43849558384902454
0.35808510638297875 0.39418108775094746 0.44239983280449097
0.35829787234042554 0.4019650241930854 0.4458722631765729
0.35851063829787233 0.413782065079419 0.44844118510838454
0.3587234042553191 0.42499369816016486 0.4508484406071897
0.35893617021276597 0.4353751963926467 0.453034019182449
0.35914893617021276 0.44316241918740545 0.4562247597684277
0.35936170212765955 0.44949724446873385 0.4595477826405608
0.3595744680851064 0.45638838858493996 0.45766837969977725
0.3597872340425532 0.4614345570077845 0.4576347186602186
0.36 0.46477670037788754 0.4593057903452702
0.3602127659574468 0.4675379197994866 0.4616756823788712
0.3604255319148936 0.4693193753500093 0.4616794809179762
0.3606382978723404 0.4687341551210951 0.45407161794209155
0.3608510638297872 0.4694765270819768 0.45093364200288377
0.36106382978723406 0.4711661096395308 0.45098484147432477
0.36127659574468085 0.47285569219708434 0.4510360409457658
0.36148936170212764 0.4745452747546379 0.4510872404172068
0.3617021276595745 0.4762348573121919 0.4511384398886479
0.3619148936170213 0.4779244398697455 0.45118963936008893
0.3621276595744681 0.479614022427299 0.45124083883152993
0.36234042553191487 0.4813036049848526 0.45129203830297093
0.3625531914893617 0.48299318754240655 0.451343237774412
0.3627659574468085 0.48468277009996014 0.45139443724585304
0.3629787234042553 0.48637235265751366 0.45144563671729404
0.36319148936170215 0.4880619352150677 0.4514968361887351
0.36340425531914894 0.48975151777262127 0.4515480356601761
0.36361702127659573 0.4914411003301748 0.45159923513161715
0.3638297872340425 0.4931306828877284 0.45165043460305815
0.36404255319148937 0.49482026544528235 0.4517016340744992
0.36425531914893616 0.49650984800283593 0.4517528335459402
0.36446808510638296 0.49819943056038946 0.45180403301738126
0.3646808510638298 0.4998890131179435 0.4518552324888223
0.3648936170212766 0.500912332768865 0.45313767281146494
0.3651063829787234 0.5012710038887557 0.4556483706506989
0.36531914893617023 0.5016296750086463 0.4581590684899335
0.365531914893617 0.5017098192476794 0.4604545970015608
0.3657446808510638 0.5017098192476794 0.4626882119845146
0.3659574468085106 0.5005559245789681 0.4656245916839233
0.36617021276595746 0.49859826664452545 0.46905049306919794
0.36638297872340425 0.4985698637296632 0.47070062059186135
0.36659574468085104 0.49986513551760714 0.4711323778545094
0.3668085106382979 0.49966542975994144 0.4697672002021644
0.3670212765957447 0.49643245755296334 0.46475609328134826
0.3672340425531915 0.4931994853459852 0.4597449863605322
0.36744680851063827 0.489966513139007 0.45473387943971605
0.3676595744680851 0.4867335409320281 0.4497227725188986
0.3678723404255319 0.48350056872504993 0.4447116655980825
0.3680851063829787 0.4806450585039937 0.44105878456883746
0.36829787234042555 0.4787322236736595 0.4407979434556101
0.36851063829787234 0.4768193888433258 0.44053710234238275
0.36872340425531913 0.4749065540129921 0.4402762612291554
0.368936170212766 0.4729937191826579 0.44001542011592804
0.36914893617021277 0.47108088435232426 0.4397545790027007
0.36936170212765956 0.46916804952199054 0.4394937378894734
0.36957446808510636 0.4672552146916569 0.43923289677624605
0.3697872340425532 0.4653423798613227 0.43897205566301867
0.37 0.463429545030989 0.43871121454979134
0.3702127659574468 0.4615167102006553 0.438450373436564
0.37042553191489364 0.45960387537032116 0.43818953232333663
0.3706382978723404 0.45769104053998744 0.4379286912101093
0.3708510638297872 0.45577820570965377 0.43766785009688197
0.371063829787234 0.4538653708793201 0.43740700898365464
0.37127659574468086 0.4519525360489859 0.4371461678704272
0.37148936170212765 0.4500397012186522 0.43688532675719993
0.37170212765957444 0.44812686638831856 0.4366244856439726
0.3719148936170213 0.44621403155798434 0.43636364453074517
0.3721276595744681 0.44430119672765067 0.43610280341751784
0.3723404255319149 0.442388361897317 0.4358419623042905
0.3725531914893617 0.4404755270669828 0.4355811211910631
0.3727659574468085 0.4385626922366491 0.4353202800778358
0.3729787234042553 0.43548354214257784 0.43576543848950944
0.3731914893617021 0.4321335885669258 0.4363745209578099
0.37340425531914895 0.42878363499127287 0.4369836034261104
0.37361702127659574 0.4237742040259882 0.43796132919968755
0.37382978723404253 0.41767372434457933 0.4391814251359694
0.3740425531914894 0.41194134357387224 0.4397273889339806
0.37425531914893617 0.4076725344381006 0.43759298436609473
0.37446808510638296 0.4034037253023289 0.4354585797982088
0.37468085106382976 0.399190557637038 0.43562006166527434
0.3748936170212766 0.3949827470941872 0.43600258989644264
0.3751063829787234 0.3929645962568277 0.4367771039429132
0.3753191489361702 0.3948729316376908 0.43825452488293626
0.37553191489361704 0.39678126701855443 0.43973194582295966
0.37574468085106383 0.39868960239941753 0.4412093667629827
0.3759574468085106 0.40059793778028063 0.44268678770300574
0.37617021276595747 0.40250627316114423 0.4441642086430292
0.37638297872340426 0.40441460854200734 0.4456416295830522
0.37659574468085105 0.40632294392287044 0.44711905052307527
0.37680851063829784 0.40823127930373354 0.4485964714630983
0.3770212765957447 0.41013961468459714 0.45007389240312173
0.3772340425531915 0.41204795006546024 0.45155131334314474
0.3774468085106383 0.4139562854463233 0.4530287342831678
0.3776595744680851 0.4158646208271869 0.4545061552231912
0.3778723404255319 0.41777295620805 0.4559835761632143
0.3780851063829787 0.4196812915889131 0.4574609971032373
0.37829787234042556 0.4215896269697767 0.45893841804326074
0.37851063829787235 0.42647204511581877 0.45998980006175194
0.37872340425531914 0.4344939776034075 0.46059144499832105
0.37893617021276593 0.44251591009099633 0.46119308993489017
0.3791489361702128 0.4505378425785872 0.46179473487145944
0.3793617021276596 0.45855977506617596 0.46239637980802856
0.37957446808510636 0.46315598290016685 0.46338062945692265
0.3797872340425532 0.4656042672052101 0.46460477160944424
0.38 0.4680525515102527 0.46582891376196556
0.3802127659574468 0.46946751343429405 0.46451345293975044
0.3804255319148936 0.46946751343429405 0.45972043121543593
0.38063829787234044 0.46975693846297173 0.4557889594528579
0.38085106382978723 0.471367083563802 0.4557889594528579
0.381063829787234 0.47297722866463227 0.4557889594528579
0.38127659574468087 0.474587373765463 0.4557889594528579
0.38148936170212766 0.47619751886629325 0.4557889594528579
0.38170212765957445 0.47780766396712354 0.4557889594528579
0.3819148936170213 0.4794178090679542 0.4557889594528579
0.3821276595744681 0.4810279541687845 0.4557889594528579
0.3823404255319149 0.4826380992696148 0.4557889594528579
0.3825531914893617 0.48424824437044506 0.4557889594528579
0.3827659574468085 0.4858583894712758 0.4557889594528579
0.3829787234042553 0.48746853457210604 0.4557889594528579
0.3831914893617021 0.48907867967293633 0.4557889594528579
0.38340425531914896 0.490688824773767 0.4557889594528579
0.38361702127659575 0.4922989698745973 0.4557889594528579
0.38382978723404254 0.4939091149754276 0.4557889594528579
0.38404255319148933 0.49551926007625785 0.4557889594528579
0.3842553191489362 0.4971294051770886 0.4557889594528579
0.384468085106383 0.49873955027791883 0.4557889594528579
0.38468085106382977 0.5003496953787492 0.4557889594528579
0.3848936170212766 0.5016488862217735 0.455728026426952
0.3851063829787234 0.5012564754957106 0.455335615700889
0.3853191489361702 0.5008640647696477 0.454943204974826
0.38553191489361704 0.5010913982367654 0.4540946827643782
0.38574468085106384 0.5016303180166403 0.4530168432046283
0.38595744680851063 0.501225008648477 0.4533426513417526
0.3861702127659574 0.5007327796775769 0.4542761910258495
0.38638297872340427 0.5007327796775769 0.45755791428387793
0.38659574468085106 0.5005245985586811 0.45969711773326827
0.38680851063829785 0.499926628340049 0.45969711773326827
0.3870212765957447 0.5005239688222425 0.45662420287419575
0.3872340425531915 0.5015995887442386 0.4523217231862109
0.3874468085106383 0.4993496759700842 0.45177187148271236
0.3876595744680851 0.49672004581322404 0.45165050393701117
0.3878723404255319 0.49409041565636325 0.45152913639130987
0.3880851063829787 0.49146078549950317 0.4514077688456086
0.3882978723404255 0.48883115534264304 0.4512864012999074
0.38851063829787236 0.48620152518578225 0.45116503375420614
0.38872340425531915 0.4835718950289221 0.4510436662085049
0.38893617021276594 0.480942264872062 0.45092229866280364
0.3891489361702128 0.4783126347152012 0.4508009311171024
0.3893617021276596 0.4756830045583411 0.45067956357140115
0.3895744680851064 0.473053374401481 0.4505581960256999
0.38978723404255317 0.47042374424462086 0.45043682847999866
0.39 0.46779411408776006 0.4503154609342974
0.3902127659574468 0.46516448393089993 0.4501940933885962
0.3904255319148936 0.4625348537740398 0.4500727258428949
0.39063829787234045 0.459905223617179 0.4499513582971936
0.39085106382978724 0.45727559346031893 0.44982999075149244
0.39106382978723403 0.4546459633034588 0.4497086232057912
0.3912765957446808 0.45201633314659867 0.44958725566008995
0.39148936170212767 0.4493867029897379 0.44946588811438865
0.39170212765957446 0.44675707283287774 0.44934452056868746
0.39191489361702125 0.44412744267601767 0.4492231530229862
0.3921276595744681 0.4414978125191569 0.4491017854772849
0.3923404255319149 0.43886818236229674 0.44898041793158366
0.3925531914893617 0.43765043473246945 0.44839787000359793
0.39276595744680853 0.43691148968623134 0.4476589249573597
0.3929787234042553 0.43577647831775435 0.4468608348267768
0.3931914893617021 0.4311674189292106 0.4455439607157643
0.3934042553191489 0.4265583595406669 0.44422708660475185
0.39361702127659576 0.4219717829882706 0.4428549551766522
0.39382978723404255 0.41752977567473354 0.4411275078880545
0.39404255319148934 0.4130877683611965 0.43940006059945674
0.3942553191489362 0.40864576104765826 0.4376726133108586
0.394468085106383 0.4042435226859921 0.43624816805080613
0.3946808510638298 0.4000282424620712 0.43624816805080613
0.39489361702127657 0.3958129622381502 0.43624816805080613
0.3951063829787234 0.3919004282737484 0.43508064891948295
0.3953191489361702 0.3881689481138196 0.4332149088395186
0.395531914893617 0.38532301857237744 0.4325592360510351
0.39574468085106385 0.38325901812278473 0.4329720361409536
0.39595744680851064 0.3813041972461895 0.4333170493404983
0.39617021276595743 0.37990506484559516 0.4333170493404983
0.3963829787234043 0.3786758441919142 0.43404715711210695
0.39659574468085107 0.37973003120551047 0.44458902724806953
0.39680851063829786 0.38078421821910674 0.4551308973840322
0.39702127659574465 0.38328326155539755 0.4625299606328828
0.3972340425531915 0.38934034961899416 0.4621896747866133
0.3974468085106383 0.3953974376825892 0.46184938894034394
0.3976595744680851 0.4014545257461843 0.46150910309407456
0.39787234042553193 0.4075116138097809 0.4611688172478051
0.3980851063829787 0.41356870187337597 0.46082853140153573
0.3982978723404255 0.419625789936971 0.46048824555526635
0.3985106382978723 0.42568287800056603 0.46014795970899697
0.39872340425531916 0.4317399660641627 0.4598076738627275
0.39893617021276595 0.43779705412775777 0.4594673880164581
0.39914893617021274 0.4438541421913528 0.45912710217018876
0.3993617021276596 0.44991123025494945 0.45878681632391927
0.3995744680851064 0.45596831831854445 0.4584465304776499
0.3997872340425532 0.4620254063821395 0.4581062446313805
0.4 0.46808249444573613 0.457765958785111
0.4002127659574468 0.4697851033127467 0.4579742224231621
0.4004255319148936 0.47117323108160614 0.45822210238188704
0.4006382978723404 0.47256135885046563 0.4584699823406119
0.40085106382978725 0.4739494866193254 0.45871786229933686
0.40106382978723404 0.47533761438818484 0.45896574225806175
0.40127659574468083 0.4767257421570443 0.4592136222167867
0.4014893617021277 0.4781138699259041 0.4594615021755116
0.40170212765957447 0.47950199769476354 0.4597093821342365
0.40191489361702126 0.480890125463623 0.45995726209296145
0.40212765957446805 0.4822782532324824 0.46020514205168633
0.4023404255319149 0.48366638100134224 0.4604530220104113
0.4025531914893617 0.4850545087702017 0.4607009019691362
0.4027659574468085 0.4864426365390611 0.4609487819278611
0.40297872340425533 0.48783076430792094 0.46119666188658603
0.4031914893617021 0.4892188920767804 0.461444541845311
0.4034042553191489 0.4906070198456398 0.46169242180403586
0.40361702127659577 0.49199514761449964 0.4619403017627608
0.40382978723404256 0.4933832753833591 0.4621881817214857
0.40404255319148935 0.4947714031522185 0.4624360616802106
0.40425531914893614 0.49557901095370505 0.46240637354819236
0.404468085106383 0.49438390991199516 0.4614191161659103
0.4046808510638298 0.49318880887028554 0.46043185878362847
0.4048936170212766 0.491993707828576 0.45944460140134663
0.4051063829787234 0.4907986067868661 0.45845734401906457
0.4053191489361702 0.4896035057451565 0.45747008663678274
0.405531914893617 0.48840840470344693 0.45648282925450095
0.4057446808510638 0.4872133036617373 0.4554955718722191
0.40595744680851065 0.48601820262002743 0.45450831448993706
0.40617021276595744 0.48482310157831787 0.4535210571076552
0.40638297872340423 0.48362800053660826 0.4525337997253734
0.4065957446808511 0.48243289949489837 0.45154654234309133
0.40680851063829787 0.48123779845318876 0.4505592849608095
0.40702127659574466 0.4800426974114792 0.4495720275785277
0.4072340425531915 0.4788475963697693 0.4485847701962456
0.4074468085106383 0.4776524953280597 0.4475975128139638
0.4076595744680851 0.47645739428635014 0.446610255431682
0.4078723404255319 0.47526229324464053 0.44562299804940014
0.40808510638297874 0.47406719220293064 0.4446357406671181
0.4082978723404255 0.47136976677983267 0.4443152227284858
0.4085106382978723 0.46660933856104325 0.44491027625583446
0.40872340425531917 0.4618489103422526 0.44550532978318325
0.40893617021276596 0.45722420490286664 0.4461050360335313
0.40914893617021275 0.4534508550783974 0.44673392767094283
0.40936170212765954 0.4489712837577959 0.4480866723524288
0.4095744680851064 0.44405385300954725 0.44992672203224227
0.4097872340425532 0.4433570002513304 0.44992672203224227
0.41 0.44266014749311355 0.44992672203224227
0.4102127659574468 0.44196329473489654 0.44992672203224227
0.4104255319148936 0.44126644197667975 0.44992672203224227
0.4106382978723404 0.4405695892184629 0.44992672203224227
0.41085106382978726 0.4398727364602459 0.44992672203224227
0.41106382978723405 0.4391758837020291 0.44992672203224227
0.41127659574468084 0.43847903094381224 0.44992672203224227
0.41148936170212763 0.4377821781855954 0.44992672203224227
0.4117021276595745 0.4370853254273784 0.44992672203224227
0.41191489361702127 0.4363884726691616 0.44992672203224227
0.41212765957446806 0.43652601321812434 0.44964887686492405
0.4123404255319149 0.43687390256917163 0.44930098751387676
0.4125531914893617 0.4372217919202188 0.4489530981628296
0.4127659574468085 0.437569681271266 0.4486052088117824
0.4129787234042553 0.43791757062231323 0.44825731946073516
0.41319148936170214 0.437074403401649 0.4472785851755066
0.41340425531914893 0.43086735429889705 0.44345886265073614
0.4136170212765957 0.42552941760574264 0.44022516991377264
0.41382978723404257 0.42574127181826327 0.44073362002382205
0.41404255319148936 0.4259531260307838 0.4412420701338713
0.41425531914893615 0.4261649802433043 0.4417505202439206
0.414468085106383 0.42637683445582486 0.44225897035396994
0.4146808510638298 0.4265886886683454 0.4427674204640192
0.4148936170212766 0.4268005428808659 0.4432758705740685
0.4151063829787234 0.4270123970933864 0.4437843206841177
0.4153191489361702 0.427224251305907 0.4442927707941671
0.415531914893617 0.42743610551842753 0.44480122090421637
0.4157446808510638 0.42764795973094805 0.4453096710142656
0.41595744680851066 0.4278598139434686 0.445818121124315
0.41617021276595745 0.4280716681559891 0.44632657123436426
0.41638297872340424 0.42828352236850964 0.4468350213444135
0.4165957446808511 0.4284953765810302 0.4473434714544629
0.4168085106382979 0.4287072307935508 0.44785192156451215
0.41702127659574467 0.4289190850060713 0.4483603716745614
0.41723404255319146 0.4291309392185918 0.4488688217846107
0.4174468085106383 0.42934279343111237 0.44937727189466004
0.4176595744680851 0.4295546476436329 0.44988572200470933
0.4178723404255319 0.4297665018561534 0.4503941721147586
0.41808510638297874 0.42997835606867396 0.4509026222248079
0.41829787234042554 0.43019021028119453 0.4514110723348572
0.41851063829787233 0.430781602782476 0.45195498970100106
0.4187234042553191 0.43597718486430176 0.45292916134134337
0.41893617021276597 0.44117276694612884 0.4539033329816859
0.41914893617021276 0.44646353878381845 0.45503440739874845
0.41936170212765955 0.4530730345541271 0.45833915528390284
0.4195744680851064 0.4584447995443634 0.4606741573033708
0.4197872340425532 0.4608362951946701 0.4606741573033708
0.42 0.46322779084497684 0.4606741573033708
0.42021276595744683 0.46490227033888804 0.4589448315364248
0.4204255319148936 0.46644235978506515 0.4568913789415219
0.4206382978723404 0.46619767552438485 0.4574434374221632
0.4208510638297872 0.4658369298803541 0.45816492871022474
0.42106382978723406 0.46608155582681216 0.45828491093572515
0.42127659574468085 0.46834654969238926 0.45639741604774425
0.42148936170212764 0.47061154355796636 0.4545099211597634
0.4217021276595745 0.47208456727304393 0.4536138887464711
0.4219148936170213 0.4731166569953604 0.45326985883903226
0.4221276595744681 0.4741487467176768 0.45292582893159344
0.42234042553191486 0.4756716782504891 0.45241818508732273
0.4225531914893617 0.4772951934698759 0.451914891596731
0.4227659574468085 0.47788496460276947 0.4536842049954117
0.4229787234042553 0.47981035493865626 0.4550332749361036
0.42319148936170214 0.48408331565137996 0.45564369789506426
0.42340425531914894 0.48634816367913475 0.4574529822837902
0.42361702127659573 0.4879859141529825 0.45963664958225386
0.4238297872340426 0.48858754867568005 0.45969711773326827
0.42404255319148937 0.48915967488971135 0.45969711773326827
0.42425531914893616 0.48973180110374265 0.45969711773326827
0.42446808510638295 0.49030392731777395 0.45969711773326827
0.4246808510638298 0.49087605353180536 0.45969711773326827
0.4248936170212766 0.49144817974583666 0.45969711773326827
0.4251063829787234 0.49202030595986795 0.45969711773326827
0.42531914893617023 0.49259243217389936 0.45969711773326827
0.425531914893617 0.49316455838793066 0.45969711773326827
0.4257446808510638 0.49373668460196196 0.45969711773326827
0.4259574468085106 0.49430881081599326 0.45969711773326827
0.42617021276595746 0.49488093703002467 0.45969711773326827
0.42638297872340425 0.49545306324405597 0.45969711773326827
0.42659574468085104 0.49602518945808727 0.45969711773326827
0.4268085106382979 0.4965973156721187 0.45969711773326827
0.4270212765957447 0.49716944188615 0.45969711773326827
0.4272340425531915 0.4977415681001813 0.45969711773326827
0.4274468085106383 0.4983136943142127 0.45969711773326827
0.4276595744680851 0.4972568462005514 0.45931665414906314
0.4278723404255319 0.4891286457316828 0.45728460403184595
0.4280851063829787 0.48107015150200005 0.45576865332393696
0.42829787234042555 0.4733390322704531 0.454314240236641
0.42851063829787234 0.46636728151626367 0.4525713025480938
0.42872340425531913 0.46224143796609046 0.4513848600642337
0.428936170212766 0.4599827884829077 0.45056353297943996
0.42914893617021277 0.45772413899972547 0.4497422058946464
0.42936170212765956 0.4554654895165433 0.44892087880985293
0.42957446808510635 0.4532068400333611 0.4480995517250594
0.4297872340425532 0.4497198783126978 0.4479726428920372
0.43 0.44600843563657694 0.4479726428920372
0.4302127659574468 0.44229699296045605 0.4479726428920372
0.43042553191489363 0.440476862236867 0.4521396096654939
0.4306382978723404 0.4416397920235052 0.45915487893681234
0.4308510638297872 0.4451890271498023 0.4490234339461762
0.43106382978723407 0.44658778140589317 0.44972281107422163
0.43127659574468086 0.4465524074741682 0.4397332175336183
0.43148936170212765 0.44559381024869577 0.4274741188972979
0.43170212765957444 0.44269767331798704 0.4276057614850574
0.4319148936170213 0.43980153638727754 0.42773740407281696
0.4321276595744681 0.4369053994565688 0.42786904666057646
0.4323404255319149 0.43400926252586003 0.42800068924833595
0.4325531914893617 0.4311131255951505 0.42813233183609545
0.4327659574468085 0.4282169886644418 0.42826397442385494
0.4329787234042553 0.4253208517337331 0.42839561701161444
0.4331914893617021 0.4224247148030243 0.42852725959937393
0.43340425531914895 0.4195285778723148 0.4286589021871335
0.43361702127659574 0.41663244094160606 0.428790544774893
0.43382978723404253 0.41373630401089734 0.4289221873626524
0.4340425531914894 0.41084016708018783 0.42905382995041197
0.43425531914893617 0.4079440301494791 0.42918547253817146
0.43446808510638296 0.4050478932187703 0.42931711512593096
0.4346808510638298 0.4021517562880608 0.42944875771369045
0.4348936170212766 0.3992556193573521 0.42958040030144995
0.4351063829787234 0.3963594824266433 0.42971204288920944
0.4353191489361702 0.3934633454959346 0.42984368547696894
0.43553191489361703 0.3905672085652251 0.4299753280647285
0.4357446808510638 0.38767107163451636 0.430106970652488
0.4359574468085106 0.38477493470380764 0.4302386132402475
0.43617021276595747 0.3818787977730981 0.430370255828007
0.43638297872340426 0.38153395212506114 0.43154011335333087
0.43659574468085105 0.38153395212506114 0.43285030134792635
0.43680851063829784 0.38153395212506114 0.4341604893425219
0.4370212765957447 0.38153395212506114 0.43547067733711775
0.4372340425531915 0.38465687422484396 0.4376423297024949
0.4374468085106383 0.3923378127049965 0.4410713200954201
0.4376595744680851 0.400018751185151 0.44450031048834626
0.4378723404255319 0.40769968966530357 0.4479293008812715
0.4380851063829787 0.4153806281454561 0.4513582912741967
0.43829787234042555 0.4230615666256107 0.45478728166712284
