0.0 0.47142159257449934 0.44699560332193444
0.0002127659574468085 0.468742709901758 0.44699560332193444
0.000425531914893617 0.4660638272290166 0.44699560332193444
0.0006382978723404255 0.46338494455627527 0.44699560332193444
0.000851063829787234 0.4607060618835339 0.44699560332193444
0.0010638297872340426 0.4580271792107926 0.44699560332193444
0.001276595744680851 0.4538960371337224 0.44740559787754
0.0014893617021276596 0.4492306702495896 0.44774062563115297
0.001702127659574468 0.4466974509597249 0.44699560332193444
0.0019148936170212765 0.44455581489725077 0.44699560332193444
0.002127659574468085 0.44210782480232363 0.44569116344906573
0.002340425531914894 0.4400081739107309 0.4461667161723174
0.002553191489361702 0.43865698206297826 0.446473298623799
0.0027659574468085106 0.4377045714918046 0.4455208880526253
0.0029787234042553193 0.4385686741064745 0.4441458798580188
0.0031914893617021275 0.4412094632965804 0.4441405820068881
0.003404255319148936 0.4426229624144434 0.4464830463789127
0.003617021276595745 0.4412858557538741 0.4487350921548125
0.003829787234042553 0.44211040547142155 0.45276975537459535
0.004042553191489362 0.44200612627993113 0.45188080117244755
0.00425531914893617 0.4412602704125826 0.4520077056837111
0.004468085106382979 0.442093783876578 0.45284121914770653
0.004680851063829788 0.4403533321712332 0.45461491404273846
0.004893617021276595 0.44361384279130617 0.45567629899777773
0.005106382978723404 0.4376308629226565 0.4576271370782779
0.005319148936170213 0.43564511571929865 0.46090322239628284
0.005531914893617021 0.432077544273282 0.4632479889771841
0.00574468085106383 0.431362970200293 0.466898488434848
0.005957446808510639 0.4278248161499805 0.46485981875635457
0.006170212765957446 0.41982043956896054 0.4683995017592422
0.006382978723404255 0.42134524072028523 0.46156875228047933
0.006595744680851064 0.41548525473187425 0.4592069530397135
0.006808510638297872 0.41234403917616863 0.4534934959185211
0.007021276595744681 0.4081916448458981 0.45055405398132703
0.00723404255319149 0.4045141354091568 0.44824653286459004
0.007446808510638298 0.4024189105913299 0.4454086516758438
0.007659574468085106 0.3999659320689169 0.4433252769728295
0.007872340425531916 0.3968392083697811 0.44037118354205623
0.008085106382978723 0.3952125061064973 0.4382022471910112
0.008297872340425531 0.39470438050953266 0.4387103727879758
0.00851063829787234 0.39423546653639474 0.4407832681056
0.008723404255319148 0.39363559362068445 0.44151053255571127
0.008936170212765958 0.3925838147812278 0.4418079780863833
0.009148936170212766 0.392995596924749 0.44211040547142155
0.009361702127659575 0.39541838726589584 0.44427036577102536
0.009574468085106383 0.3961895456765998 0.4428442389529226
0.00978723404255319 0.3975598093053073 0.4455360645431901
0.01 0.39744733254756154 0.4490844801296653
0.010212765957446808 0.3986770615577014 0.4491714838767429
0.010425531914893617 0.4023513912145412 0.45137272758286495
0.010638297872340425 0.4082832993566592 0.4510050550575572
0.010851063829787235 0.41833734177258375 0.4509037616023448
0.011063829787234043 0.4285382664565006 0.455831525439464
0.01127659574468085 0.4342394719109379 0.4573237556064995
0.01148936170212766 0.4454789055359156 0.4531721565035031
0.011702127659574468 0.4535409096915471 0.45526729918208647
0.011914893617021277 0.45693299569070395 0.456479989963499
0.012127659574468085 0.4609963401793075 0.4557889594528579
0.012340425531914893 0.4658348075458077 0.4557889594528579
0.012553191489361702 0.4703062785866874 0.4553695768766612
0.01276595744680851 0.47190087893694976 0.45433263352030473
0.01297872340425532 0.47458228595288743 0.45492670721679546
0.013191489361702127 0.4756938342606398 0.454563047124113
0.013404255319148937 0.47464546360942045 0.455203454803631
0.013617021276595745 0.477374079254011 0.4542782754682558
0.013829787234042552 0.4749575922951739 0.4538348803126526
0.014042553191489362 0.47525320921055003 0.4520338844611669
0.01425531914893617 0.4733813586689969 0.45382919335836014
0.01446808510638298 0.475489083052303 0.45438703402303976
0.014680851063829787 0.4781833569245595 0.44699560332193444
0.014893617021276596 0.47734398406891293 0.44699560332193444
0.015106382978723404 0.48017060571497483 0.4460333447486478
0.015319148936170212 0.481138308629841 0.4460185637518319
0.015531914893617021 0.48047026772195256 0.4460185637518319
0.01574468085106383 0.4823693564288877 0.4466195495016119
0.015957446808510637 0.4831460674157304 0.44976728336449934
0.016170212765957447 0.4841794296815809 0.45188080117244755
0.016382978723404256 0.4868223614320943 0.45188080117244755
0.016595744680851062 0.4880312652662433 0.45188080117244755
0.01680851063829787 0.48890380551768564 0.45188080117244755
0.01702127659574468 0.4909855337869186 0.4508806117919773
0.01723404255319149 0.49250476798314474 0.44879603315926003
0.017446808510638297 0.4929164631167562 0.446709600204984
0.017659574468085106 0.4929164631167562 0.4460185637518319
0.017872340425531916 0.4944539226903911 0.44448110417819714
0.018085106382978722 0.4923524745417898 0.4432251287065695
0.01829787234042553 0.4928514498988191 0.4412633923371931
0.01851063829787234 0.4958323617321905 0.44018676652096356
0.01872340425531915 0.4938935026868587 0.44406448461162684
0.018936170212765956 0.4937423530059818 0.44466908333513455
0.019148936170212766 0.4922953593248444 0.4481796774893411
0.019361702127659575 0.48998534440644836 0.4504651777537323
0.01957446808510638 0.4897052625317681 0.45522879570349734
0.01978723404255319 0.48900830483634583 0.4541843820752948
0.02 0.4881726899001874 0.458154379627389
0.02021276595744681 0.48510425506998633 0.46067826581742144
0.020425531914893616 0.4779601360343694 0.459517913760298
0.020638297872340425 0.46924706613159267 0.46091365467793155
0.020851063829787235 0.4640269517513472 0.4613447161929661
0.02106382978723404 0.4587926756859361 0.4625556389208055
0.02127659574468085 0.45309159980145175 0.4660089150957847
0.02148936170212766 0.44731431078418793 0.4665363947239862
0.02170212765957447 0.4444621165636254 0.4665363947239862
0.021914893617021276 0.44278285760301705 0.46525476771537655
0.022127659574468085 0.4392682455266762 0.46316123561140843
0.022340425531914895 0.4382022471910112 0.46105904041304746
0.0225531914893617 0.43648501262222106 0.45638107088139523
0.02276595744680851 0.4390311821519763 0.45300594535168753
0.02297872340425532 0.4372488016185352 0.4489024944668866
0.023191489361702126 0.43838881417953823 0.44643590235635344
0.023404255319148935 0.43999050938282724 0.441133365901319
0.023617021276595745 0.43917928676111373 0.441133365901319
0.023829787234042554 0.43949037851606604 0.4408222741463668
0.02404255319148936 0.43938889788822133 0.43862146944522623
0.02425531914893617 0.4382022471910112 0.4367058085474687
0.02446808510638298 0.4382022471910112 0.4388104849844917
0.024680851063829785 0.43580994205324086 0.4395582500467738
0.024893617021276595 0.4356313267465279 0.43984790567907733
0.025106382978723404 0.4347729207900196 0.43941870270082317
0.025319148936170214 0.4326833983234079 0.44240066793549976
0.02553191489361702 0.43058090820670014 0.4430874450415241
0.02574468085106383 0.4322590524530775 0.44589712777585455
0.02595744680851064 0.42591185768996076 0.4487734860720184
0.026170212765957445 0.42109681529397686 0.44983046595927983
0.026382978723404255 0.41727246051731776 0.45076249063520396
0.026595744680851064 0.4129341443920708 0.4531677009563549
0.026808510638297874 0.40950533932088595 0.45229032066108243
0.02702127659574468 0.40721333395966536 0.4543973903648497
0.02723404255319149 0.40328671773334795 0.45481191988275516
0.0274468085106383 0.4002263441169109 0.45387776036595284
0.027659574468085105 0.4020509817048353 0.45188160256482773
0.027872340425531914 0.4017991775896883 0.4497372679015969
0.028085106382978724 0.3978702029622509 0.44713231424921157
0.028297872340425533 0.3963573765989837 0.448140473814421
0.02851063829787234 0.39687843490388136 0.44883442232501125
0.02872340425531915 0.3923752132714013 0.44727708094757
0.02893617021276596 0.39355713353697025 0.4505241351735984
0.029148936170212764 0.3950056921510185 0.4540416942681314
0.029361702127659574 0.3944889923698721 0.4561640576613011
0.029574468085106383 0.39548078357734046 0.46145361076779884
0.029787234042553193 0.3964725747848088 0.4667431638742966
0.03 0.39781744741609754 0.4709326996314428
0.03021276595744681 0.3999852147632917 0.4725585251418385
0.030425531914893618 0.4042275514053491 0.4733756717147044
0.030638297872340424 0.41140564452652445 0.4722117970451399
0.030851063829787233 0.4207297487371221 0.47145014602648855
0.031063829787234043 0.430989746542266 0.4728072505919754
0.03127659574468085 0.439404437118948 0.46924236307645995
0.03148936170212766 0.44711641222782783 0.4618963374595786
0.03170212765957447 0.45265837524803165 0.45833129112537346
0.031914893617021274 0.45799955757345034 0.45563504806462546
0.03212765957446809 0.4625144252105017 0.4529261274823946
0.03234042553191489 0.4644636566059558 0.4409276096870814
0.0325531914893617 0.47075051445872235 0.4424694009093193
0.03276595744680851 0.47312396490654596 0.44236211227958
0.03297872340425532 0.4747786167310789 0.44000598794685986
0.033191489361702124 0.4778832327890945 0.43981765724466004
0.03340425531914894 0.4769951864686645 0.4401563263312165
0.03361702127659574 0.4758226908735892 0.4401563263312165
0.033829787234042556 0.47674699864069786 0.4414769509782734
0.03404255319148936 0.4765405365251522 0.4427157983065428
0.03425531914893617 0.4761922485796181 0.4426854039545606
0.03446808510638298 0.4788800560434105 0.4432389026407026
0.03468085106382979 0.4812244869041025 0.440123827702639
0.03489361702127659 0.48196219684621733 0.4393861177605241
0.035106382978723406 0.4832194683829764 0.43707840568641637
0.03531914893617021 0.4854805872977044 0.43635711273020056
0.03553191489361702 0.4890335703273084 0.4391641274665362
0.03574468085106383 0.49154920233349014 0.4376547482628272
0.03595744680851064 0.4938935026868587 0.43620067456239064
0.036170212765957444 0.4938935026868587 0.4355033361688038
0.036382978723404256 0.497500574736796 0.43827702185565115
0.03659574468085106 0.49753766379317305 0.4407108454097918
0.03680851063829787 0.4963957447099516 0.442777854549982
0.03702127659574468 0.49735503596186154 0.4451253137410168
0.03723404255319149 0.4963004676773626 0.44701935927843633
0.0374468085106383 0.4948705422569615 0.44896925571571095
0.03765957446808511 0.49437372710186106 0.45340442811794474
0.03787234042553191 0.49741382862984124 0.4545657953085964
0.038085106382978726 0.49867657582112435 0.45188080117244755
0.03829787234042553 0.492822824442008 0.45188080117244755
0.03851063829787234 0.4909623839765511 0.45220611510413183
0.03872340425531915 0.4887789027020271 0.45254591484618956
0.03893617021276596 0.48471592713496686 0.4524736213215815
0.03914893617021276 0.4857800673404492 0.4535377615270638
0.039361702127659576 0.48535830059210283 0.45156707056171336
0.03957446808510638 0.48652303391195423 0.4479726428920372
0.03978723404255319 0.4885943499480305 0.4479726428920372
0.04 0.48329627011677756 0.4479726428920372
0.04021276595744681 0.48485677999828203 0.4445512177269338
0.04042553191489362 0.4764452024171462 0.4429826165942781
0.040638297872340426 0.4681992088558359 0.4416030836400383
0.04085106382978723 0.46366461617025345 0.4406661593387319
0.041063829787234045 0.4565811260016275 0.44460143165463517
0.04127659574468085 0.4528180538216526 0.4442987977739281
0.04148936170212766 0.44853789891267826 0.44963598837790886
0.04170212765957447 0.44450268257951486 0.4544412327815795
0.041914893617021276 0.4411894933166903 0.4557665084867094
0.04212765957446808 0.4400238159217363 0.4574532844222318
0.042340425531914895 0.43841458799237887 0.4589749777527438
0.0425531914893617 0.4353770387084755 0.45998749418071166
0.04276595744680851 0.4337819686425914 0.4603642111019754
0.04297872340425532 0.43522660162123367 0.4594011224495472
0.043191489361702126 0.43680615211886026 0.4589990701971926
0.04340425531914894 0.43871148400586574 0.4599517361406954
0.043617021276595745 0.44026024056878904 0.46015458611550797
0.04382978723404255 0.4406901984372137 0.45800479677338474
0.044042553191489364 0.44112015630563833 0.4558550074312614
0.04425531914893617 0.44001554436443735 0.45467113791597624
0.044468085106382976 0.43886229143764693 0.4535178849891858
0.04468085106382979 0.4382022471910112 0.45311413414365476
0.044893617021276595 0.4382022471910112 0.4537134162058607
0.0451063829787234 0.4364012521298246 0.453384631547356
0.045319148936170214 0.43418544126836545 0.4528578407425501
0.04553191489361702 0.43256719683545247 0.4528578407425501
0.045744680851063826 0.43026178908561097 0.4528578407425501
0.04595744680851064 0.4259576740979644 0.4528578407425501
0.046170212765957445 0.42257339746731815 0.454808136484807
0.04638297872340425 0.41923922451741263 0.4576835392974618
0.046595744680851064 0.41507587778443217 0.46045910378611543
0.04680851063829787 0.41001443295625567 0.4622537788208019
0.047021276595744683 0.40583758696966293 0.4601854579489594
0.04723404255319149 0.40353182620920824 0.4568239340503163
0.047446808510638296 0.4012833325223964 0.4543755473465248
0.04765957446808511 0.3982375311820781 0.4529517471078231
0.047872340425531915 0.3975945860495052 0.4497407971584341
0.04808510638297872 0.3977322085716266 0.44658418707675596
0.048297872340425534 0.39604642822430436 0.44545848524063286
0.04851063829787234 0.3932877517078704 0.4440791469824159
0.048723404255319146 0.39055481480292387 0.4449656886660829
0.04893617021276596 0.39295774970499914 0.4441647103653912
0.049148936170212765 0.3950099601065173 0.44406448461162684
0.04936170212765957 0.39099366280260184 0.4398456413077312
0.049574468085106384 0.3917444036595823 0.4413049298665108
0.04978723404255319 0.39282048090486704 0.43995403143671163
0.05 0.39428264545256375 0.4385436533531017
0.05021276595744681 0.39673585973204034 0.4390427082472536
0.050425531914893615 0.4002988592670348 0.4382022471910112
0.05063829787234043 0.4088914985245161 0.43820229103466946
0.050851063829787234 0.4183399796986323 0.43914713915208103
0.05106382978723404 0.42595447461480235 0.44647230558695666
0.05127659574468085 0.436527134564081 0.4442548681725798
0.05148936170212766 0.44722611767549025 0.4467920055356035
0.051702127659574465 0.45164972172822204 0.448834142740027
0.05191489361702128 0.45761160696734643 0.45277021965873904
0.052127659574468084 0.4596762192068206 0.4605905631975802
0.05234042553191489 0.4636343038955768 0.45384455627328535
0.0525531914893617 0.46615978489227944 0.45468638327218625
0.05276595744680851 0.4699909079308841 0.45757553044827337
0.05297872340425532 0.47142159257449934 0.4573484832301289
0.05319148936170213 0.47188615923723587 0.4550921094587531
0.053404255319148934 0.4735211566395856 0.4525668708927877
0.05361702127659575 0.4740339610957299 0.4511162617283962
0.05382978723404255 0.4714695575097328 0.45271394593684977
0.05404255319148936 0.47250465211854736 0.45019177196710597
0.05425531914893617 0.4745548846056741 0.45486246321297197
0.05446808510638298 0.4782705021982317 0.45576006155381465
0.054680851063829784 0.47918013344898686 0.4530311678015497
0.0548936170212766 0.47832787132260385 0.45376787855526607
0.0551063829787234 0.48194431591304604 0.4529140187256955
0.05531914893617021 0.4831087734241952 0.4519180951639827
0.05553191489361702 0.4831460674157304 0.45015065933940196
0.05574468085106383 0.4824157497317658 0.44992672203224227
0.055957446808510634 0.48503929077147656 0.44935266944707253
0.05617021276595745 0.4866420380843806 0.4510106205209402
0.05638297872340425 0.48623590101903535 0.45373965137685424
0.056595744680851066 0.4867526694816278 0.45342959029929875
0.05680851063829787 0.4872694379442203 0.45311952922174326
0.05702127659574468 0.48778620640681275 0.4528094681441878
0.05723404255319149 0.4883029748694052 0.45249940706663233
0.0574468085106383 0.4888197433319976 0.4521893459890769
0.057659574468085104 0.4893365117945901 0.4518792849115214
0.05787234042553192 0.48985328025718256 0.4515692238339659
0.05808510638297872 0.490370048719775 0.4512591627564105
0.05829787234042553 0.49088681718236743 0.450949101678855
0.05851063829787234 0.49014482776794405 0.4522663552833566
0.05872340425531915 0.48918724465968316 0.4538623271304581
0.058936170212765954 0.4882296615514223 0.45545829897755963
0.05914893617021277 0.4880312652662433 0.45518118388415585
0.05936170212765957 0.4880312652662433 0.4544145799330492
0.059574468085106386 0.4882728621223491 0.4535932834565468
0.05978723404255319 0.4892637921011355 0.4526023534777604
0.06 0.488391042399933 0.45204023137309907
0.06021276595744681 0.4825262592012214 0.4526267096929702
0.06042553191489362 0.47523476889049776 0.45451790068085834
0.06063829787234042 0.46733523981709196 0.4566009655876605
0.060851063829787236 0.4613307423788591 0.45632305027721487
0.06106382978723404 0.4584568240775367 0.46063028162243264
0.06127659574468085 0.45288896230928927 0.4597023046610581
0.06148936170212766 0.44903587225369745 0.4568306413666287
0.06170212765957447 0.4452883260246513 0.45585065991358836
0.06191489361702127 0.4450415241817294 0.4485693609592174
0.062127659574468086 0.4421768846770433 0.4447038917181856
0.06234042553191489 0.44052750628299797 0.4427162650897426
0.0625531914893617 0.4392683258618511 0.44211040547142155
0.0627659574468085 0.4347482679534568 0.44233749499284947
0.06297872340425532 0.43723677436389613 0.4430874450415241
0.06319148936170213 0.4409450294392991 0.44346411796556395
0.06340425531914894 0.4401563263312165 0.4459192660114225
0.06361702127659574 0.4404374278324164 0.44964562053104234
0.06382978723404255 0.44250465110578396 0.44784122768058304
0.06404255319148935 0.4447985873818708 0.44723854012179304
0.06425531914893617 0.44321243848689484 0.4490746759075105
0.06446808510638298 0.4440788269108614 0.4499123797330077
0.06468085106382979 0.44488952474510196 0.44910168189876715
0.06489361702127659 0.44140377884418186 0.4507685551309135
0.0651063829787234 0.4383951928080895 0.4526648951254718
0.06531914893617022 0.4366846477990418 0.4532943204907858
0.06553191489361702 0.434515698681998 0.451125371373742
0.06574468085106383 0.43114583994153743 0.4515334113961576
0.06595744680851064 0.42728967642842886 0.45230464409877935
0.06617021276595744 0.422891373313192 0.4518784488047203
0.06638297872340425 0.41811293241157427 0.44992672203224227
0.06659574468085107 0.4130121071650616 0.44876592846991725
0.06680851063829787 0.40859437192649245 0.4466119400747142
0.06702127659574468 0.4067867001723925 0.4471271526329584
0.06723404255319149 0.4027342171353662 0.4459498421117682
0.06744680851063829 0.3972178811064732 0.44989008213240606
0.06765957446808511 0.3949437330917393 0.44592558815330857
0.06787234042553192 0.392700016842661 0.44188689890496774
0.06808510638297872 0.3917215639954934 0.441133365901319
0.06829787234042553 0.3913043478260869 0.441133365901319
0.06851063829787234 0.39149368612646784 0.4409440276009381
0.06872340425531914 0.39228138739618945 0.440005753631698
0.06893617021276596 0.3919806807082319 0.4396303467930501
0.06914893617021277 0.39041313564945124 0.442539542438756
0.06936170212765957 0.3911910277020142 0.4464290027015709
0.06957446808510638 0.39215789491775604 0.44955624459694205
0.06978723404255319 0.39228138739618945 0.44992672203224227
0.06999999999999999 0.3968202936327103 0.44992672203224227
0.07021276595744681 0.3942578944771356 0.4528354128018092
0.07042553191489362 0.3984833345271322 0.45184991847150874
0.07063829787234042 0.4089799489636257 0.45091857641496014
0.07085106382978723 0.4146021973297435 0.45185561780931327
0.07106382978723404 0.42510962350548354 0.4575297062616844
0.07127659574468086 0.432986520495448 0.4596144855220057
0.07148936170212766 0.44296782146333963 0.462329146494043
0.07170212765957447 0.4470466328820152 0.4618826993759788
0.07191489361702127 0.4544732271947221 0.4629513137340104
0.07212765957446808 0.4611772927822069 0.46311466827237224
0.07234042553191489 0.46480674588916243 0.46262823644357587
0.0725531914893617 0.4654145950309355 0.46262823644357587
0.07276595744680851 0.4695138854610986 0.46262823644357587
0.07297872340425532 0.4719613948199648 0.46100882970717955
0.07319148936170213 0.47196886709743197 0.4605566478276081
0.07340425531914893 0.4722947523564019 0.46106909035220495
0.07361702127659574 0.47442986157168426 0.459388516585759
0.07382978723404256 0.47515196060892 0.4565001204368166
0.07404255319148936 0.47644800638889734 0.4535524483848825
0.07425531914893617 0.4790760340781067 0.45247820253344484
0.07446808510638298 0.4831671300909185 0.45382961464385563
0.07468085106382978 0.48564154018034095 0.4532110121215
0.0748936170212766 0.48683441226961643 0.45241821388950143
0.07510638297872341 0.4863221244560958 0.45139363826246026
0.07531914893617021 0.486077186126038 0.45136936211311185
0.07553191489361702 0.486077186126038 0.45226153315659195
0.07574468085106383 0.4870158818320034 0.4527013914582225
0.07595744680851063 0.48984650219490905 0.4522296213977383
0.07617021276595745 0.4920469780776511 0.45188080117244755
0.07638297872340426 0.4924596749105841 0.45188080117244755
0.07659574468085106 0.49287237174351717 0.45188080117244755
0.07680851063829787 0.494379234772851 0.44983292085391474
0.07702127659574468 0.49601697836535147 0.4475400798244141
0.0772340425531915 0.497654721957852 0.4452472387949133
0.0774468085106383 0.49815482977813264 0.44327568012741186
0.07765957446808511 0.49854280816485486 0.44133578819380104
0.07787234042553191 0.49749104945260225 0.4388686752464469
0.07808510638297872 0.49420619256986686 0.4355838183637115
0.07829787234042553 0.49212182125272946 0.4324050608101192
0.07851063829787235 0.4927103268071318 0.4294625330381076
0.07872340425531915 0.4913777863569473 0.42727784392012874
0.07893617021276596 0.48900960473160937 0.4255017077011253
0.07914893617021276 0.48850863514907394 0.42949809027785285
0.07936170212765957 0.4880608487479114 0.4334649667488388
0.07957446808510638 0.48871602464321523 0.43674084622535814
0.0797872340425532 0.48820220586439644 0.44223274205075846
0.08 0.48649513707710873 0.4489510479753432
0.08021276595744681 0.4838478681881169 0.4535837685310788
0.08042553191489361 0.47779645802616366 0.45782107516438647
0.08063829787234042 0.47051705088277146 0.4619157416825447
0.08085106382978724 0.4639490726789611 0.46436906778834885
0.08106382978723405 0.45788085229473013 0.4656694007278268
0.08127659574468085 0.4524998085288605 0.4668034090807447
0.08148936170212766 0.4484936192772376 0.4676046469310693
0.08170212765957446 0.44448743002561464 0.46840588478139394
0.08191489361702127 0.4414464605409115 0.4643016353510471
0.08212765957446809 0.4389376449021729 0.459828410797078
0.0823404255319149 0.4378657686089516 0.456076843770803
0.0825531914893617 0.43722520762090866 0.4525873328412332
0.08276595744680851 0.43722520762090866 0.44948701030867316
0.08297872340425531 0.43722520762090866 0.4479726428920372
0.08319148936170212 0.43722520762090866 0.4479726428920372
0.08340425531914894 0.437801961104119 0.4479726428920372
0.08361702127659575 0.43842292330944316 0.4479726428920372
0.08382978723404255 0.4390438855147673 0.4479726428920372
0.08404255319148936 0.43893124419764307 0.44946089827286123
0.08425531914893616 0.43861403365099766 0.45136416155273384
0.08446808510638298 0.4382968231043522 0.45326742483260657
0.08468085106382979 0.4379456166689055 0.45306498874633555
0.0848936170212766 0.43757996866978344 0.45196804474896923
0.0851063829787234 0.4372086126074579 0.45092035661579555
0.08531914893617021 0.4366512541805478 0.45147771504270584
0.08553191489361701 0.4347029696892088 0.4522671007628469
0.08574468085106383 0.4291204422757253 0.45366273261621765
0.08595744680851064 0.426273565571477 0.4523960230336471
0.08617021276595745 0.4231930516734527 0.4530346417255599
0.08638297872340425 0.41837607735734506 0.45222663174169153
0.08659574468085106 0.4127034984683056 0.44992672203224227
0.08680851063829788 0.40841940245786074 0.44992672203224227
0.08702127659574468 0.40644277468609535 0.44624860745290323
0.08723404255319149 0.40361276793536105 0.44210755737889845
0.0874468085106383 0.40063422276117616 0.4387387659951772
0.0876595744680851 0.39841429299140385 0.4361656505276529
0.08787234042553191 0.3969847812727771 0.4341122849366754
0.08808510638297873 0.3961875248220863 0.4333183965768406
0.08829787234042553 0.3938681604884056 0.4348646394659611
0.08851063829787234 0.3932584269662922 0.43713958485922416
0.08872340425531915 0.3932584269662922 0.4396744193124045
0.08893617021276595 0.3932584269662922 0.4394886612651104
0.08914893617021276 0.3932584269662922 0.44180568958378763
0.08936170212765958 0.3932584269662922 0.4444450494673821
0.08957446808510638 0.39410399494944465 0.44554886497162083
0.08978723404255319 0.3971813938649314 0.44739530432091296
0.09 0.3981436248168051 0.4479726428920372
0.0902127659574468 0.39938980648865446 0.4479726428920372
0.09042553191489362 0.4032110496244169 0.448009088283457
0.09063829787234043 0.41060470522099235 0.449487819402772
0.09085106382978723 0.41867187044355836 0.4523736603969149
0.09106382978723404 0.42707066969395796 0.45434883324923103
0.09127659574468085 0.4356048863040899 0.4529488656034737
0.09148936170212765 0.44479058711845026 0.45545405673466294
0.09170212765957447 0.45276878610574856 0.45646398168824953
0.09191489361702128 0.4567821830954017 0.45775922266550423
0.09212765957446808 0.45939092724562436 0.45773134497162876
0.09234042553191489 0.463497111646425 0.45568035005250174
0.0925531914893617 0.4678559984290506 0.45513548920467345
0.0927659574468085 0.4709884666359028 0.45336148353207184
0.09297872340425532 0.47232768304371237 0.4497902397779131
0.09319148936170213 0.4733756717147044 0.4469220209058186
0.09340425531914893 0.4733756717147044 0.44658365073522466
0.09361702127659574 0.4733756717147044 0.4462452805646307
0.09382978723404255 0.4733756717147044 0.44634920804781814
0.09404255319148937 0.4733756717147044 0.4473512394156882
0.09425531914893617 0.4733756717147044 0.44835327078355824
0.09446808510638298 0.4735967445089507 0.44894968246213973
0.09468085106382979 0.4741428764652321 0.44894968246213973
0.09489361702127659 0.4757537256497053 0.4508177016153375
0.0951063829787234 0.4781703822516875 0.4525623233236925
0.09531914893617022 0.48045998820779845 0.45310599868432705
0.09553191489361702 0.4819815121508507 0.45755552289828605
0.09574468085106383 0.4843790748550889 0.4604650213410361
0.09595744680851064 0.48555100370582344 0.46262823644357587
0.09617021276595744 0.48705422569614076 0.4628243003131569
0.09638297872340426 0.487304664553846 0.4633548371559733
0.09659574468085107 0.48880955833322803 0.46184994337659113
0.09680851063829787 0.4940379218660349 0.46165119687347334
0.09702127659574468 0.4955856234259698 0.46236627804248165
0.09723404255319149 0.4951966104704995 0.46132629373044687
0.09744680851063829 0.49359789097857215 0.4613104829425654
0.09765957446808511 0.49479956226588545 0.45976809772434407
0.09787234042553192 0.4940393092620633 0.4581173206414987
0.09808510638297872 0.49140902043486534 0.457743038593063
0.09829787234042553 0.4910520188952455 0.45560968961546877
0.09851063829787234 0.4929164631167562 0.4520884366421957
0.09872340425531914 0.49265010617176497 0.4527912515063023
0.09893617021276596 0.4893849035155435 0.451974950842247
0.09914893617021277 0.48969254178296834 0.44914385338595725
0.09936170212765957 0.49046811388800465 0.44459325652114373
0.09957446808510638 0.49035516500472465 0.441133365901319
0.09978723404255319 0.4893345089473768 0.44097026384580357
0.1 0.49060637969146775 0.44023543839456836
0.10021276595744681 0.48076545631980433 0.442422310254938
0.10042553191489362 0.4719126471345572 0.44417702496394584
0.10063829787234042 0.4660388414649279 0.4446288561693019
0.10085106382978723 0.4604098238211006 0.44498865748527533
0.10106382978723404 0.45736017166102794 0.4443787270532608
0.10127659574468086 0.45267276194453215 0.44531096361495714
0.10148936170212766 0.44624482521957604 0.44788213830493956
0.10170212765957447 0.4436138923910102 0.45037731425285893
0.10191489361702127 0.44211040547142155 0.4515902369420026
0.10212765957446808 0.4417947226951918 0.4509488591418062
0.10234042553191489 0.43675202818468967 0.45166924407187803
0.1025531914893617 0.4342076799184927 0.4545394225779744
0.10276595744680851 0.4339378912140344 0.45707641995972853
0.10297872340425532 0.4354740930272815 0.45814896768621927
0.10319148936170212 0.4371261561837962 0.46145309399924844
0.10340425531914893 0.4396505588904208 0.46326809771981486
0.10361702127659575 0.4394146746252779 0.4636052760136786
0.10382978723404256 0.4398947845067099 0.46217428052248655
0.10404255319148936 0.438736184177622 0.463781410103865
0.10425531914893617 0.4374826664062327 0.4624235732294454
0.10446808510638297 0.43722520762090866 0.4593921727541196
0.10468085106382978 0.4371027491457986 0.4562761651225201
0.1048936170212766 0.43622374987971546 0.45288225891364076
0.1051063829787234 0.43527483030829306 0.45383117848506294
0.10531914893617021 0.4307698851616807 0.44843338832982543
0.10553191489361702 0.43210955784337696 0.44883445649863035
0.10574468085106382 0.4281951339289742 0.44729173212557105
0.10595744680851064 0.42547516909496713 0.4476554842635731
0.10617021276595745 0.42452369320957506 0.4483760332820323
0.10638297872340426 0.423193691215587 0.4484381432336828
0.10659574468085106 0.4145727764816479 0.44512240679755244
0.10680851063829787 0.40899783722692157 0.44547665539728665
0.10702127659574467 0.4066539591830097 0.4465329247850119
0.1072340425531915 0.4080543703081661 0.4450415241817294
0.1074468085106383 0.403028822667318 0.44522286170995695
0.1076595744680851 0.403028822667318 0.4462656438250316
0.10787234042553191 0.40203846229725554 0.44650042313690325
0.10808510638297872 0.3988992969920308 0.4451522078791678
0.10829787234042552 0.39746453591514613 0.44572061308338834
0.10851063829787234 0.3988269473036834 0.44406448461162684
0.10872340425531915 0.3967624629871891 0.44433389945130247
0.10893617021276596 0.39423546653639474 0.4461053930008042
0.10914893617021276 0.39423546653639474 0.4467222269753661
0.10936170212765957 0.39423546653639474 0.44733906094992804
0.10957446808510639 0.39423546653639474 0.44795589492448995
0.1097872340425532 0.3970491850171792 0.45125531445295236
0.11 0.3999414323509152 0.45462960300897776
0.1102127659574468 0.4013136226860085 0.45116416369576046
0.11042553191489361 0.40416773738847767 0.44985652001553783
0.11063829787234042 0.409382299364624 0.45188080117244755
0.11085106382978724 0.41926881680583816 0.45188080117244755
0.11106382978723404 0.43100063963684065 0.4512927971013491
0.11127659574468085 0.44003000474153864 0.451304446905292
0.11148936170212766 0.4458463705931707 0.4530687251601435
0.11170212765957446 0.45234389962504784 0.4568248927069174
0.11191489361702127 0.4579554713515822 0.4575306058345438
0.11212765957446809 0.4610490555355284 0.45804218912329153
0.1123404255319149 0.46534630610568406 0.45989756597133985
0.1125531914893617 0.4699819114061719 0.45923447613504337
0.1127659574468085 0.4725516005094289 0.4606741573033708
0.11297872340425531 0.47398241888747183 0.4600004913196518
0.11319148936170213 0.4721993213715353 0.4575534849676116
0.11340425531914894 0.47247933162009714 0.45623712950016154
0.11361702127659574 0.47293882709643686 0.45575450934166867
0.11382978723404255 0.4749262080482441 0.4582529004633775
0.11404255319148936 0.47339258829212344 0.4574455530320604
0.11425531914893616 0.4766998439733727 0.45435522217660085
0.11446808510638298 0.4782608695652173 0.4554045519646339
0.11468085106382979 0.4782608695652173 0.4540790004470814
0.1148936170212766 0.48375872299875233 0.4547511892182417
0.1151063829787234 0.48022722060070255 0.4518992090153675
0.11531914893617021 0.4838431071381953 0.4574630387454253
0.11553191489361703 0.4810947177638654 0.4538348803126526
0.11574468085106383 0.4864478918597624 0.4539864637717472
0.11595744680851064 0.483928222277642 0.4540297650208436
0.11617021276595745 0.4878506407554648 0.4511692332887862
0.11638297872340425 0.48998534440644836 0.45247727124811254
0.11659574468085106 0.4908118788207074 0.4538348803126526
0.11680851063829788 0.4932539911675585 0.4534973522618503
0.11702127659574468 0.4951098639251724 0.4532632944886546
0.11723404255319149 0.4963518577461911 0.4538348803126526
0.1174468085106383 0.49801954669786175 0.4522059066595543
0.1176595744680851 0.49488916672982336 0.4502954399301385
0.11787234042553191 0.49462306149881213 0.4485849030561631
0.11808510638297873 0.4929089672637273 0.4450340283287005
0.11829787234042553 0.4935105320901189 0.4424933760681614
0.11851063829787234 0.49221092078181317 0.439586532613853
0.11872340425531915 0.4910305476996944 0.43463490752631734
0.11893617021276595 0.4938892158547067 0.4333256230048024
0.11914893617021277 0.49284012046149256 0.43511844317017606
0.11936170212765958 0.4916570478503126 0.4340229885813508
0.11957446808510638 0.489813575329318 0.4387175544224023
0.11978723404255319 0.48846583723552184 0.441268982801525
0.12 0.4852714803614842 0.4420675720200344
0.1202127659574468 0.48116278784738425 0.44342285837427203
0.12042553191489362 0.47568650331183393 0.44514066819450143
0.12063829787234043 0.46907734184376426 0.44714344439694675
0.12085106382978723 0.4624681803756946 0.449146220599392
0.12106382978723404 0.4558590189076249 0.45114899680183734
0.12127659574468085 0.44924985743955526 0.45315177300428267
0.12148936170212765 0.44699560332193444 0.45483709909598824
0.12170212765957447 0.4451436719597436 0.4554185731804197
0.12191489361702128 0.44211040547142155 0.4552095504717244
0.12212765957446808 0.44120689557481607 0.4544336946079496
0.12234042553191489 0.43913419209151666 0.4528578407425501
0.1225531914893617 0.43763547891481785 0.45229107246635675
0.12276595744680852 0.43451756659109214 0.4540469139963008
0.12297872340425532 0.43444825265718157 0.45473483800946496
0.12319148936170213 0.43741401599792934 0.4561665762068991
0.12340425531914893 0.4382022471910112 0.457743038593063
0.12361702127659574 0.4396188212859734 0.45632646449810094
0.12382978723404255 0.4447329164391265 0.45884001952479797
0.12404255319148937 0.4435860336766462 0.45969711773326827
0.12425531914893617 0.4422304393116192 0.46055412346317315
0.12446808510638298 0.4404775871227902 0.46230697565200213
0.12468085106382978 0.4375879352845669 0.4617721060946927
0.12489361702127659 0.4365952988407305 0.46102128809329523
0.1251063829787234 0.43588216708285193 0.4603081563354168
0.12531914893617022 0.4347301994452471 0.4599675822509964
0.125531914893617 0.43125132502656616 0.4614279065260196
0.12574468085106383 0.4300603353929519 0.45953432011464895
0.12595744680851065 0.4279766611308744 0.45963045888138754
0.12617021276595744 0.4253042967080824 0.46028128516018046
0.12638297872340426 0.421150644144805 0.45374769243933166
0.12659574468085105 0.41655028350233764 0.45103633225779877
0.12680851063829787 0.41279969981815406 0.4494384429720961
0.1270212765957447 0.4102092129662726 0.44787437190749385
0.12723404255319148 0.40829543526317663 0.44759122814669144
0.1274468085106383 0.40457727404085503 0.4473052935966419
0.1276595744680851 0.4008159642327689 0.44773322280011757
0.12787234042553192 0.3984814606974363 0.4463563996324631
0.1280851063829787 0.39726551691448725 0.4442623479471962
0.12829787234042553 0.39906285235937183 0.44406448461162684
0.12851063829787235 0.39646624550470927 0.4387556468472302
0.12872340425531914 0.3945678321295446 0.44063481751159417
0.12893617021276596 0.395051712730661 0.441133365901319
0.12914893617021275 0.39608812378421543 0.4385065128681644
0.12936170212765957 0.3952416889566434 0.44388938751075
0.1295744680851064 0.39431836835118395 0.44219330728621076
0.12978723404255318 0.39640967431373736 0.44439467756733314
0.13 0.39852274776909896 0.4467681295505581
0.1302127659574468 0.4007994110615359 0.44540213157509606
0.13042553191489362 0.40312978828097057 0.44408467773435734
0.13063829787234044 0.4080675145139636 0.4450415241817294
0.13085106382978723 0.41734758623671253 0.4451837929790534
0.13106382978723405 0.42684561470573656 0.4474846512950468
0.13127659574468084 0.437066510139833 0.4509037616023448
0.13148936170212766 0.4431390514850954 0.4509037616023448
0.13170212765957448 0.4510921750451838 0.45236057786852174
0.13191489361702127 0.45525771895259265 0.45507754013288787
0.1321276595744681 0.46027411514251476 0.4538348803126526
0.13234042553191488 0.46405594121920873 0.4533842151071225
0.1325531914893617 0.46782960153520065 0.4537856367286699
0.1327659574468085 0.47352127562121127 0.4542869991210772
0.13297872340425532 0.4741517335178859 0.4538348803126526
0.13319148936170214 0.4733756717147044 0.45579772557512976
0.13340425531914893 0.4719328517925592 0.45676599902296044
0.13361702127659575 0.47378389469262255 0.45676599902296044
0.13382978723404254 0.47435271128480694 0.4576087046471242
0.13404255319148936 0.4725342189533242 0.457743038593063
0.13425531914893618 0.4782454173944625 0.45579411017644283
0.13446808510638297 0.4809215855740827 0.45487952055811576
0.1346808510638298 0.47769584091901357 0.45592629642749083
0.13489361702127659 0.48063377683874053 0.45655658495630147
0.1351063829787234 0.4816025391467487 0.4566386925011763
0.13531914893617022 0.4827100942250718 0.457294280723366
0.13553191489361702 0.4866266113219156 0.45481191988275516
0.13574468085106384 0.48558161935695937 0.4553074866518339
0.13595744680851063 0.48623103824378905 0.4523962843892973
0.13617021276595745 0.4889584165278316 0.44802253120055124
0.13638297872340424 0.49193419181602427 0.4476452191251265
0.13659574468085106 0.4911259152666503 0.44737579360866847
0.13680851063829788 0.49051542413361554 0.44540536414043336
0.13702127659574467 0.4919135459819596 0.44454006561433107
0.1372340425531915 0.49375294667897224 0.4450415241817294
0.13744680851063829 0.4945656203907306 0.4459562897804219
0.1376595744680851 0.4941736483327787 0.4479726428920372
0.13787234042553193 0.4960281204322184 0.4479726428920372
0.13808510638297872 0.49511071610593743 0.45082915171075233
0.13829787234042554 0.4932848021986832 0.4565100436716033
0.13851063829787233 0.49620663415596333 0.46003614657884845
0.13872340425531915 0.4920970939068247 0.4592480155382596
0.13893617021276597 0.4930221670398937 0.4647937234300562
0.13914893617021276 0.49308433618436953 0.46815472772896477
0.13936170212765958 0.4929164631167562 0.4659264919465981
0.13957446808510637 0.4895420365210172 0.46518441886546824
0.1397872340425532 0.48570819885994343 0.4647584369031267
0.13999999999999999 0.48187436119887017 0.46433245494078523
0.1402127659574468 0.47804052353779647 0.4639064729784437
0.14042553191489363 0.4742066858767227 0.46348049101610217
0.14063829787234042 0.47037284821564945 0.46305450905376067
0.14085106382978724 0.4665390105545757 0.46262852709141916
0.14106382978723403 0.4613016324940878 0.46175577607192614
0.14127659574468085 0.454865171870112 0.4575019215640028
0.14148936170212767 0.45058422757821204 0.44782670400324875
0.14170212765957446 0.44774797801755806 0.4466410620417417
0.14191489361702128 0.44512079706371815 0.44739168517141026
0.14212765957446807 0.4424936161098786 0.4481423083010787
0.1423404255319149 0.4398664351560387 0.44889293143074727
0.1425531914893617 0.4372392542021988 0.44964355456041577
0.1427659574468085 0.43660280306305127 0.44992672203224227
0.14297872340425533 0.4371722629429688 0.44992672203224227
0.14319148936170212 0.44134317210759166 0.44992672203224227
0.14340425531914894 0.4428772524162348 0.44609248730817574
0.14361702127659573 0.4402874533044992 0.44364152831321685
0.14382978723404255 0.4398723501177093 0.44378050839811967
0.14404255319148937 0.4401563263312165 0.44033912074307213
0.14425531914893616 0.43858916672217596 0.43447780793399254
0.14446808510638298 0.43687054142447224 0.4306536378074202
0.14468085106382977 0.43739644700571323 0.4271123331502737
0.1448936170212766 0.4359706387937311 0.42215332018375734
0.1451063829787234 0.43250303162515885 0.4184444571687674
0.1453191489361702 0.43331303182797287 0.4183344367614168
0.14553191489361703 0.43144134908632475 0.42008782570109754
0.14574468085106382 0.429604940751345 0.4229585045657012
0.14595744680851064 0.42856591850094156 0.426918543876058
0.14617021276595746 0.4229803112535115 0.4329063521563566
0.14638297872340425 0.4167270746691879 0.43623831904058935
0.14659574468085107 0.41475329750854906 0.44315498721151947
0.14680851063829786 0.41408300161565736 0.4439304254330485
0.14702127659574468 0.40925664724410177 0.4430874450415241
0.14723404255319147 0.4053754180248082 0.4446490079644443
0.1474468085106383 0.40074879235561484 0.4473199266046496
0.14765957446808511 0.4004921586202361 0.4436700299484009
0.1478723404255319 0.4006110645594112 0.4440148029769274
0.14808510638297873 0.3968886890194936 0.44397185253589044
0.14829787234042552 0.39423546653639474 0.44611999126519375
0.14851063829787234 0.39484740026813375 0.447360709160298
0.14872340425531916 0.3952125061064973 0.44699560332193444
0.14893617021276595 0.3952125061064973 0.45261486607828033
0.14914893617021277 0.3944390316531679 0.45094454761610825
0.14936170212765956 0.3967660039615836 0.4490832095571794
0.14957446808510638 0.39534137234040156 0.45260010827474145
0.1497872340425532 0.39813772778192486 0.4577489356279432
0.15 0.3972324972520557 0.45865416615781235
0.15021276595744681 0.40067257584513244 0.45959657581277313
0.1504255319148936 0.4053255109595252 0.45799681076030324
0.15063829787234043 0.41016667590723593 0.45858438549898495
0.15085106382978725 0.42046182259527637 0.457117297601976
0.15106382978723404 0.43003493629940615 0.45975212791497494
0.15127659574468086 0.4380676030607398 0.4542306148517338
0.15148936170212765 0.4443863960286486 0.45329082440492485
0.15170212765957447 0.45027394465055426 0.45170718986329145
0.15191489361702126 0.4575695194934605 0.4530370309727247
0.15212765957446808 0.464756140152515 0.45672575026650797
0.1523404255319149 0.46884490385640665 0.457743038593063
0.1525531914893617 0.47013358879465095 0.4557448125119921
0.15276595744680851 0.4730856069974063 0.4574529738757649
0.1529787234042553 0.4758046439299643 0.4608979771309014
0.15319148936170213 0.474719678056155 0.46085764068904483
0.15340425531914895 0.4726250043864517 0.462401864201726
0.15361702127659574 0.4760535922576973 0.4644557165001237
0.15382978723404256 0.4743627012089783 0.46944253862386576
0.15404255319148935 0.47443680859705784 0.46748540185667203
0.15425531914893617 0.4773681081344116 0.4664521165846894
0.154468085106383 0.4781024279268979 0.46603468006884186
0.15468085106382978 0.47728382999511476 0.46803063830429115
0.1548936170212766 0.4784916731123152 0.46714031628258645
0.1551063829787234 0.48081892360277834 0.46737127984595106
0.15531914893617021 0.48153561695833885 0.4655593551538837
0.155531914893617 0.48414635576537346 0.4660594993287052
0.15574468085106383 0.48453984223141366 0.46709669904850815
0.15595744680851065 0.48660730253454554 0.4650292387453764
0.15617021276595744 0.4880312652662433 0.46292482312047417
0.15638297872340426 0.4887718651662598 0.46262823644357587
0.15659574468085105 0.4922130075116942 0.4602247094370647
0.15680851063829787 0.492043727501999 0.4562061752742392
0.1570212765957447 0.49572294159259217 0.45484307994137313
0.15723404255319148 0.4938517473203172 0.44894968246213973
0.1574468085106383 0.49335081771079853 0.44884109381362913
0.1576595744680851 0.4961207641696841 0.447620714278296
0.15787234042553192 0.4929164631167562 0.4460185637518319
0.15808510638297874 0.49354384739025425 0.4444501030680868
0.15829787234042553 0.4944908991612035 0.44227229518859285
0.15851063829787235 0.4930115059648664 0.4423004911676422
0.15872340425531914 0.49244858328814606 0.43913800684823157
0.15893617021276596 0.4906931701849823 0.4365347774921808
0.15914893617021275 0.49003797361872453 0.43115245335118885
0.15936170212765957 0.4909623839765511 0.4261031660755309
0.1595744680851064 0.4900587573513198 0.4240718798969594
0.15978723404255318 0.4885050973950129 0.42254023875680646
0.16 0.4897259316517131 0.42159257449926724
0.1602127659574468 0.48591163326094094 0.4247492936965236
0.16042553191489362 0.47810441848426577 0.4271079784662132
0.16063829787234044 0.4723901707924971 0.4315702240072602
0.16085106382978723 0.46594201334351676 0.43541972382582084
0.16106382978723405 0.4596691810911013 0.4403908455442705
0.16127659574468084 0.4551377022473287 0.44504144730082484
0.16148936170212766 0.45101855033331467 0.4481308112363354
0.16170212765957448 0.44763913965121704 0.45352484722419
0.16191489361702127 0.4445064779113506 0.45564162835294997
0.1621276595744681 0.44136282333216276 0.4575900669725005
0.16234042553191488 0.43920905720598974 0.4567808842453985
0.1625531914893617 0.4419859004776946 0.45186005034015975
0.1627659574468085 0.43641205958295226 0.45065792430412555
0.16297872340425532 0.43880844854396095 0.44736644153908744
0.16319148936170214 0.44167104572624005 0.44450384435680834
0.16340425531914893 0.4415938068839571 0.4448685793096394
0.16361702127659575 0.4446872794301136 0.44281889497465315
0.16382978723404254 0.4436435509442278 0.4436435509442278
0.16404255319148936 0.4445637693043277 0.44062690460351805
0.16425531914893618 0.4426321004139747 0.44045988941624936
0.16446808510638297 0.44325009488013667 0.4439666666007737
0.1646808510638298 0.44098344818337853 0.4416597941831038
0.16489361702127658 0.4369496538324391 0.4431291702361162
0.1651063829787234 0.43705881434073646 0.44406448461162684
0.16531914893617022 0.4354565929589312 0.443180177280638
0.16553191489361702 0.43251614799202565 0.4423986999193547
0.16574468085106384 0.42860882728849437 0.44279894119937124
0.16595744680851063 0.42415460547195327 0.44391249665350657
0.16617021276595745 0.41999241641098134 0.44465685748304196
0.16638297872340424 0.41686112968954186 0.4470997405050168
0.16659574468085106 0.4138369500876452 0.45068407682864486
0.16680851063829788 0.4086082890161949 0.4537448430157341
0.16702127659574467 0.40422549199943997 0.4552511794067939
0.1672340425531915 0.40226537182114913 0.4551481932810567
0.16744680851063828 0.39942609462306033 0.45830791593715237
0.1676595744680851 0.3968179351516 0.45885871889739105
0.16787234042553192 0.3960119846012683 0.46143776065845243
0.16808510638297872 0.39520603405093674 0.4640168024195135
0.16829787234042554 0.394400083500605 0.46659584418057487
0.16851063829787233 0.3935941329502734 0.469174885941636
0.16872340425531915 0.3927881823999417 0.47175392770269736
0.16893617021276597 0.393935102361283 0.4728870741113813
0.16914893617021276 0.3983903514831795 0.4715707505071846
0.16936170212765958 0.40284560060507657 0.4702544269029878
0.16957446808510637 0.40730084972697306 0.4689381032987911
0.1697872340425532 0.4117560988488701 0.46762177969459423
0.17 0.4162113479707672 0.46630545609039736
0.1702127659574468 0.4206665970926637 0.4649891324862007
0.17042553191489362 0.42512184621456073 0.46367280888200385
0.17063829787234042 0.4295770953364572 0.46235648527780715
0.17085106382978724 0.4340323444583543 0.4610401616736103
0.17106382978723403 0.4384875935802508 0.45972383806941364
0.17127659574468085 0.44294284270214784 0.45840751446521677
0.17148936170212767 0.44739809182404494 0.4570911908610199
0.17170212765957446 0.45185334094594143 0.4557748672568232
0.17191489361702128 0.45630859006783847 0.4544585436526264
0.17212765957446807 0.46076383918973496 0.4531422200484297
0.1723404255319149 0.46521908831163206 0.4518258964442328
0.1725531914893617 0.4696743374335291 0.45050957284003595
0.1727659574468085 0.4741295865554256 0.4491932492358393
0.17297872340425532 0.4782125418313831 0.447924315158203
0.17319148936170212 0.4775479288188412 0.4472597021456611
0.17340425531914894 0.4768833158062993 0.44659508913311907
0.17361702127659576 0.4762187027937573 0.445930476120577
0.17382978723404255 0.4755540897812154 0.44526586310803506
0.17404255319148937 0.4750261819819333 0.445648661927682
0.17425531914893616 0.47456793147505594 0.44656516294143656
0.17446808510638298 0.47473378443235664 0.44737667646948415
0.17468085106382977 0.47577755818687273 0.44856971933465456
0.1748936170212766 0.4783574803976577 0.4516875795075667
0.1751063829787234 0.48014615588793236 0.4481102285270176
0.1753191489361702 0.48109516088916926 0.4497330672595305
0.17553191489361702 0.4803896903806453 0.44832212624248263
0.17574468085106382 0.48212966863060935 0.45180208274241057
0.17595744680851064 0.48401839978813094 0.4520902155678514
0.17617021276595746 0.4854674810529777 0.4498265398966853
0.17638297872340425 0.4867341591425223 0.4494810822359004
0.17659574468085107 0.48800083723206716 0.4491356245751154
0.17680851063829786 0.4892675153216118 0.44879016691433055
0.17702127659574468 0.49053419341115656 0.44844470925354557
0.1772340425531915 0.49180087150070134 0.44809925159276065
0.1774468085106383 0.49306754959024596 0.44775379393197573
0.1776595744680851 0.4943342276797908 0.4474083362711908
0.1778723404255319 0.4956009057693354 0.4470628786104059
0.17808510638297873 0.49484482305646327 0.4482490517851854
0.17829787234042552 0.49359955831757146 0.4498056327088002
0.17851063829787234 0.4923542935786795 0.4513622136324152
0.17872340425531916 0.49193942354665365 0.45128131406074673
0.17893617021276595 0.49193942354665365 0.45315796284705806
0.17914893617021277 0.4907891725060826 0.45653729644361163
0.17936170212765956 0.4893829152196295 0.45593575103260625
0.17957446808510638 0.48900830483634583 0.45674164710711834
0.1797872340425532 0.48967497303758556 0.4564097021905835
0.18 0.48874676515227894 0.45702753870702734
0.1802127659574468 0.4851712113206602 0.4570280251066672
0.1804255319148936 0.4804332693034194 0.45584353960235696
0.18063829787234043 0.47524141325909525 0.45458362477577297
0.18085106382978725 0.466986303640826 0.45281467271471537
0.18106382978723404 0.458903077009758 0.45188080117244755
0.18127659574468086 0.4528578407425501 0.45209459406316893
0.18148936170212765 0.45178437314690606 0.45270448822888665
0.18170212765957447 0.4459526839170043 0.45181492133761997
0.18191489361702126 0.4453751558669327 0.45123739328754836
0.18212765957446808 0.44479762781686105 0.45065986523747664
0.1823404255319149 0.4442200997667894 0.4500823371874049
0.1825531914893617 0.4436425717167178 0.4495048091373333
0.1827659574468085 0.4430650436666461 0.44892728108726165
0.1829787234042553 0.4424875156165745 0.44834975303719
0.18319148936170213 0.44190998756650285 0.44777222498711833
0.18340425531914895 0.4413324595164312 0.4471946969370466
0.18361702127659574 0.43913264367242083 0.4477958922134938
0.18382978723404256 0.43633690210653603 0.448727847322815
0.18404255319148935 0.43794173139541726 0.4447157741006117
0.18425531914893617 0.4382022471910112 0.44744610743174235
0.184468085106383 0.43604594554527004 0.44653510846154304
0.18468085106382978 0.43455800170235404 0.4474448173085307
0.1848936170212766 0.43429408891060084 0.44953468733423674
0.1851063829787234 0.43088597354047475 0.44822266434717933
0.1853191489361702 0.4303859306301905 0.44705112858851026
0.185531914893617 0.43230324864409203 0.44406448461162684
0.18574468085106383 0.42992122227526947 0.4437856595986742
0.18595744680851065 0.425002152780411 0.44163194590058563
0.18617021276595744 0.42163524488585924 0.4435973000198716
0.18638297872340426 0.4177664327569424 0.44211040547142155
0.18659574468085105 0.4137578782821413 0.4434253780024284
0.18680851063829787 0.40927577181401414 0.4457223998298209
0.1870212765957447 0.4073244216126415 0.4450415241817294
0.18723404255319148 0.4047807129107851 0.44514261863009846
0.1874468085106383 0.4028174048275117 0.44594809113856315
0.1876595744680851 0.40009770395701016 0.4450415241817294
0.18787234042553191 0.3996171907996669 0.4450415241817294
0.18808510638297873 0.39738556488733495 0.44526050382236176
0.18829787234042553 0.39839978290196687 0.44576240566667014
0.18851063829787235 0.39912066438690763 0.4457599308035422
0.18872340425531914 0.3988187536983219 0.4479726428920372
0.18893617021276596 0.3992536566928971 0.4487126641427651
0.18914893617021278 0.40151419689290535 0.4508056287638272
0.18936170212765957 0.4010393009687073 0.45238704223670156
0.1895744680851064 0.4006770863038185 0.45459598778297483
0.18978723404255318 0.4010747435271129 0.456439600299918
0.19 0.4010747435271129 0.4574931810947989
0.1902127659574468 0.40590947019150475 0.457743038593063
0.19042553191489361 0.40516818410055955 0.4568586401694786
0.19063829787234043 0.41167741668228136 0.45676599902296044
0.19085106382978723 0.4249862615123688 0.45758875419259337
0.19106382978723405 0.42913056612218536 0.4585809156942143
0.19127659574468084 0.4375964191290688 0.45690062748116983
0.19148936170212766 0.44604410855015003 0.4568000587540513
0.19170212765957448 0.4495591619084874 0.46041295182636466
0.19191489361702127 0.45595081712937285 0.4566100348574583
0.1921276595744681 0.4579552074827261 0.4509037616023448
0.19234042553191488 0.4624727185364403 0.4509037616023448
0.1925531914893617 0.4664655790922336 0.4513745774794579
0.19276595744680852 0.4726776735015468 0.45397400617032985
0.19297872340425531 0.47372004603131906 0.4536666301734284
0.19319148936170213 0.47393878502278497 0.4479726428920372
0.19340425531914893 0.4733756717147044 0.44749222573689534
0.19361702127659575 0.472824326996546 0.44699560332193444
0.19382978723404254 0.47302496577594655 0.4451166024279004
0.19404255319148936 0.47478496010864873 0.445473773005571
0.19425531914893618 0.4784639248091069 0.44680210724038116
0.19446808510638297 0.47492589800031315 0.4444083966409305
0.1946808510638298 0.48177625746593833 0.44406448461162684
0.19489361702127658 0.4830923816860705 0.44699560332193444
0.1951063829787234 0.4811919882755251 0.44699560332193444
0.19531914893617022 0.481757122487549 0.4471839813926091
0.19553191489361701 0.48386980464098306 0.4487325499265868
0.19574468085106383 0.4843491466056492 0.4509037616023448
0.19595744680851063 0.4866766119690271 0.45165898905657204
0.19617021276595745 0.4874430917941805 0.4551343501894542
0.19638297872340427 0.4904470773272116 0.4582226294233515
0.19659574468085106 0.49094082570409864 0.4587200781631655
0.19680851063829788 0.49227603759622196 0.4524206718912882
0.19702127659574467 0.49582632256769893 0.4492611894792639
0.1972340425531915 0.49682462139716654 0.4470516394107082
0.19744680851063828 0.49682462139716654 0.4460185637518319
0.1976595744680851 0.49682462139716654 0.4408045293799753
0.19787234042553192 0.4958783008581462 0.43921000579219593
0.19808510638297872 0.4929256568360589 0.4352711284807034
0.19829787234042554 0.4936620422058675 0.4352711284807034
0.19851063829787233 0.49065203257931045 0.4357366555765643
0.19872340425531915 0.4887812828846828 0.43911033499766344
0.19893617021276597 0.4880312652662433 0.44237675470073373
0.19914893617021276 0.4867252126990517 0.44360986606840075
0.19936170212765958 0.48342509024059793 0.4455995698314645
0.19957446808510637 0.48360513871149247 0.44673661918476426
0.1997872340425532 0.48216902784562765 0.4465446142422106
0.2 0.4818500731515522 0.44701577880981086
0.2002127659574468 0.48040065057385234 0.4438545176292201
0.20042553191489362 0.4762815253541242 0.4428495014167205
0.20063829787234042 0.46976202619926805 0.4432347014240112
0.20085106382978724 0.4634127201972845 0.44292222836515166
0.20106382978723403 0.4574874122078121 0.4474917007688027
0.20127659574468085 0.45351402905536475 0.4512101270613939
0.20148936170212767 0.4509935655071171 0.4538348803126526
0.20170212765957446 0.4466204545393694 0.4560885275670989
0.20191489361702128 0.4429378305243201 0.4571423079201087
0.20212765957446807 0.44053260636290453 0.45699047852968694
0.2023404255319149 0.4401563263312165 0.4543411588471471
0.2025531914893617 0.4371180243341024 0.4520982652432716
0.2027659574468085 0.4379278065027962 0.4510409819464523
0.20297872340425532 0.4391260837005974 0.4536752711311036
0.20319148936170212 0.44399898843658525 0.4539003764876942
0.20340425531914894 0.44222435331816484 0.4559029072996012
0.20361702127659576 0.4442792637300203 0.4573619083672085
0.20382978723404255 0.44727665591664706 0.45913944221810404
0.20404255319148937 0.4430874450415241 0.457386564736423
0.20425531914893616 0.44265089566116034 0.45676599902296044
0.20446808510638298 0.44211040547142155 0.46034842367149936
0.20468085106382977 0.4426467741970518 0.46575075091619966
0.2048936170212766 0.4407921004769843 0.4612012367416045
0.2051063829787234 0.43723065491863555 0.45676599902296044
0.2053191489361702 0.43479753917176456 0.45676599902296044
0.20553191489361702 0.43268365731224817 0.45435035162543125
0.20574468085106382 0.4287892065196492 0.455610281938026
0.20595744680851064 0.429399424493649 0.45191866743820336
0.20617021276595746 0.4232001027037255 0.448811062087841
0.20638297872340425 0.4180705460254307 0.4467001484401701
0.20659574468085107 0.4143151858359304 0.4439462450001827
0.20680851063829786 0.41091672119032846 0.4406941826677923
0.20702127659574468 0.4063059149990242 0.4400345637430311
0.2072340425531915 0.40525908960477597 0.4366676408865442
0.2074468085106383 0.4015666736269228 0.4386873566613039
0.2076595744680851 0.40121037343425897 0.4368183178994703
0.2078723404255319 0.3964039132577051 0.4361767121904377
0.20808510638297872 0.3925589518335763 0.43722520762090866
0.20829787234042554 0.3891727868352114 0.43955665804164223
0.20851063829787234 0.38921546801799584 0.4418408041356496
0.20872340425531916 0.3902697758414855 0.44211040547142155
0.20893617021276595 0.3903273082559844 0.4411499031095264
0.20914893617021277 0.3893014956396248 0.44489520504295826
0.20936170212765956 0.38875138278678384 0.44223645669508976
0.20957446808510638 0.3913043478260869 0.4430874450415241
0.2097872340425532 0.39159321786077206 0.44279857500683895
0.21 0.39303043973419133 0.44173587930242064
0.2102127659574468 0.39423546653639474 0.4429726966550962
0.2104255319148936 0.40073134073232364 0.4461241698810508
0.21063829787234042 0.410898285371718 0.44637831032267294
0.21085106382978724 0.41878187913466475 0.4460185637518319
0.21106382978723404 0.42639329295669076 0.4460185637518319
0.21127659574468086 0.43471808866144057 0.4468255945008938
0.21148936170212765 0.44310631634001657 0.4461383347857832
0.21170212765957447 0.4496617723214124 0.4506829701766532
0.2119148936170213 0.45689947790064334 0.45003350513438856
0.21212765957446808 0.4622748776969188 0.45373093350874505
0.2123404255319149 0.46862296012459886 0.45301634443262295
0.2125531914893617 0.4744777506707636 0.4543350378564791
0.2127659574468085 0.4759354628739553 0.45713732657401734
0.2129787234042553 0.4782608695652173 0.4553689092307899
0.21319148936170212 0.47790117937147625 0.4571256892167015
0.21340425531914894 0.4777233085091679 0.457743038593063
0.21361702127659574 0.4782608695652173 0.4572234986781672
0.21382978723404256 0.4776596171046333 0.45676599902296044
0.21404255319148935 0.47796821503434467 0.4581347691014203
0.21425531914893617 0.47894372285226006 0.4573543715890804
0.214468085106383 0.4799615950661602 0.45676599902296044
0.21468085106382978 0.48182149958935494 0.4575692744649266
0.2148936170212766 0.4839207701673015 0.457743038593063
0.2151063829787234 0.4860347126303347 0.4596546442375649
0.2153191489361702 0.4848317157358611 0.4587200781631655
0.21553191489361703 0.4804750678914592 0.45819983979109224
0.21574468085106382 0.48300802140088667 0.45334368116105195
0.21595744680851064 0.4862753678487641 0.44767537030794813
0.21617021276595744 0.48700785690383985 0.44657663672533443
0.21638297872340426 0.4877403459589158 0.4454779031427206
0.21659574468085105 0.48921043755954463 0.44563111032838004
0.21680851063829787 0.4930791787427528 0.4484936312208754
0.2170212765957447 0.4955440540429397 0.4512737456041989
0.21723404255319148 0.4943766798219606 0.45114535016989576
0.2174468085106383 0.49867743441237555 0.45409304941935597
0.2176595744680851 0.49549514696208696 0.45481191988275516
0.2178723404255319 0.4930489392434911 0.45572272138949044
0.21808510638297873 0.49096596455098096 0.45383846088708246
0.21829787234042553 0.4900449716026389 0.4556100778642863
0.21851063829787234 0.4909623839765511 0.45262056721669486
0.21872340425531914 0.4909623839765511 0.45034979581229595
0.21893617021276596 0.49071215595138445 0.4489735549927037
0.21914893617021278 0.48966812744297805 0.45029471635509577
0.21936170212765957 0.48825304172310224 0.44624034020869086
0.2195744680851064 0.4879237066999552 0.44591100518554383
0.21978723404255318 0.488017345315787 0.446500123561655
0.22 0.48817682816364977 0.44657986498558644
0.2202127659574468 0.4839593249063955 0.45015121577815354
0.2204255319148936 0.4761562803316114 0.45188080117244755
0.22063829787234043 0.4687690271006007 0.45385507743563475
0.22085106382978723 0.46071943287445416 0.45263055918918077
0.22106382978723405 0.45712445600910756 0.4566676676346215
0.22127659574468084 0.4498630271673484 0.45601729562916005
0.22148936170212766 0.44894968246213973 0.45671651735402097
0.22170212765957448 0.4440140017299974 0.45382766847241984
0.22191489361702127 0.43756636316043185 0.45299430295835935
0.2221276595744681 0.4409530319234073 0.4539438897217445
0.22234042553191488 0.4345169710293517 0.44872680034338885
0.2225531914893617 0.43587018909281555 0.44827217319809326
0.22276595744680852 0.43638806418903603 0.4486706346515156
0.2229787234042553 0.4348639360469784 0.44816259193749636
0.22319148936170213 0.4402704986554375 0.4500979805185738
0.22340425531914893 0.44201803064698647 0.45295021556698517
0.22361702127659575 0.441133365901319 0.4548008238403297
0.22382978723404254 0.4412848031529614 0.4596140965418741
0.22404255319148936 0.44183019814366814 0.4539749839765293
0.22425531914893618 0.4398526503995281 0.45481191988275516
0.22446808510638297 0.43765915595171234 0.45481191988275516
0.2246808510638298 0.43578258932462716 0.45442393761093935
0.22489361702127658 0.4344774956421172 0.45333635954218104
0.2251063829787234 0.43317240195960705 0.4522487814734227
0.22531914893617022 0.4318673082770969 0.45116120340466426
0.225531914893617 0.43056221459458693 0.450073625335906
0.22574468085106383 0.4269350747011291 0.4492992936815039
0.22595744680851063 0.42294530547784853 0.4485738810954529
0.22617021276595745 0.4191317219781228 0.4476347939714111
0.22638297872340427 0.416171209664658 0.44566111909576783
0.22659574468085106 0.4131241803355083 0.4439340690910392
0.22680851063829788 0.4097107816363347 0.44325138935120445
0.22702127659574467 0.4062973829371615 0.4425687096113698
0.2272340425531915 0.4028839842379879 0.4418860298715351
0.22744680851063828 0.3994705855388147 0.4412033501317004
0.2276595744680851 0.3978815107401655 0.44423125001817454
0.22787234042553192 0.396016910132637 0.44295276344765716
0.22808510638297871 0.3944489248813157 0.4403368306402212
0.22829787234042553 0.3952125061064973 0.4480382727692922
0.22851063829787233 0.3952125061064973 0.4487247806336736
0.22872340425531915 0.3939672415048168 0.44894968246213973
0.22893617021276597 0.3977709373428828 0.4483050381226268
0.22914893617021276 0.3965316216452494 0.45011229227909355
0.22936170212765958 0.39597783819042714 0.4531997578541346
0.22957446808510637 0.3945506046769213 0.45055699831329543
0.2297872340425532 0.3960110861244618 0.452590151414343
0.23 0.39714842185733856 0.45189896456181156
0.2302127659574468 0.40009770395701016 0.4528048484097964
0.23042553191489362 0.40134143959558943 0.4517564276085896
0.23063829787234041 0.41121136318966406 0.45128755118280994
0.23085106382978723 0.41927748567992457 0.45260082983943306
0.23106382978723405 0.4294013296487426 0.45188080117244755
0.23127659574468085 0.4372315399347805 0.45227288346326294
0.23148936170212767 0.4433843436235517 0.453780131397503
0.23170212765957446 0.45055334141331504 0.45379542328521794
0.23191489361702128 0.4567833733492924 0.45433208726087
0.23212765957446807 0.46135912372883264 0.45617249929798814
0.2323404255319149 0.46486128062460924 0.4569806893508596
0.2325531914893617 0.4683634375203859 0.4577888794037311
0.2327659574468085 0.47186559441616205 0.4585970694566025
0.23297872340425532 0.47351619478730844 0.4603964221272255
0.23319148936170211 0.4738268821889836 0.4605995386818266
0.23340425531914893 0.47239863214460187 0.4577399774730309
0.23361702127659575 0.47239863214460187 0.45733095017949094
0.23382978723404255 0.47239863214460187 0.456921922885951
0.23404255319148937 0.4733005888588031 0.4558640423087592
0.23425531914893616 0.4747581942057517 0.4544064369618106
0.23446808510638298 0.47621579955270055 0.45294883161486177
0.2346808510638298 0.47703604759371854 0.4528578407425501
0.2348936170212766 0.4778138596015192 0.4528578407425501
0.2351063829787234 0.47842211433280407 0.4528578407425501
0.2353191489361702 0.4788012477712452 0.4528578407425501
0.23553191489361702 0.4791803812096864 0.4528578407425501
0.23574468085106381 0.48143896074734643 0.45219752525894213
0.23595744680851063 0.48403373052778076 0.45141909432481186
0.23617021276595745 0.4866285003082151 0.45064066339068154
0.23638297872340425 0.48921116367832207 0.449723863190266
0.23659574468085107 0.49165980124748304 0.44727522562110505
0.23680851063829786 0.4919181789801115 0.44551942168350955
0.23702127659574468 0.4920685445131682 0.44559460445003796
0.2372340425531915 0.4941464163277802 0.44478861054080804
0.2374468085106383 0.4962236420202422 0.44406448461162684
0.2376595744680851 0.49535166009095877 0.4462739265709385
0.2378723404255319 0.49248238867219446 0.4501798081016237
0.23808510638297872 0.49193942354665365 0.4509037616023448
0.23829787234042554 0.49286267302484743 0.4490572626459572
0.23851063829787233 0.48813068962158424 0.4519404557856521
0.23872340425531915 0.49746781063975626 0.4574759583310527
0.23893617021276595 0.49279017573691997 0.453456018173144
0.23914893617021277 0.49193942354665365 0.45070784065235164
0.23936170212765956 0.4914262889720293 0.44992672203224227
0.23957446808510638 0.48938750537379705 0.4487310439669396
0.2397872340425532 0.48729429646383826 0.44822947015904696
0.24 0.48651346402444673 0.44795430008676956
0.2402127659574468 0.4845269612849286 0.4435928979237666
0.2404255319148936 0.480572612236675 0.4451287616842619
0.24063829787234042 0.47301146563367763 0.44545252343350084
0.24085106382978724 0.4640501410673668 0.44757885720848634
0.24106382978723404 0.4595424312216676 0.4524642918818158
0.24127659574468086 0.4556263667545116 0.4530614524604892
0.24148936170212765 0.4480613726080547 0.4520140223332126
0.24170212765957447 0.44608043862003605 0.4537111305762443
0.2419148936170213 0.4440346306582519 0.4528429137658626
0.24212765957446808 0.44176093119330057 0.45168110158494984
0.2423404255319149 0.4375259365905031 0.4492611046690656
0.2425531914893617 0.4349181888419054 0.4472667636144412
0.2427659574468085 0.4349791343168116 0.4451622569940685
0.2429787234042553 0.4382022471910112 0.44171074048125225
0.24319148936170212 0.43871712886935255 0.44380704377245617
0.24340425531914894 0.44048566912773496 0.4427581022450056
0.24361702127659574 0.44152763013134727 0.4417161412413933
0.24382978723404256 0.44211040547142155 0.4415856141699282
0.24404255319148935 0.44262605594925103 0.44211040547142155
0.24425531914893617 0.44367101403092957 0.44327754345023235
0.244468085106383 0.4404968556537415 0.4452536942642552
0.24468085106382978 0.437589724753493 0.4466310861893501
0.2448936170212766 0.4365619928632059 0.4489852475950429
0.2451063829787234 0.4342139923158524 0.44748571115029795
0.2453191489361702 0.4314099453986005 0.44406448461162684
0.24553191489361703 0.43327361139238746 0.44406448461162684
0.24574468085106382 0.43125132057910165 0.4451085139544442
0.24595744680851064 0.4267378046920317 0.4479076348064743
0.24617021276595744 0.42910269909294024 0.4473455755593663
0.24638297872340426 0.41827426748021745 0.45077936445652006
0.24659574468085105 0.4113746474756546 0.45436438856016853
0.24680851063829787 0.40959488775244646 0.4539506883649089
0.2470212765957447 0.40670124361354376 0.45614033717313474
0.24723404255319148 0.40132824858706717 0.45445015262768107
0.2474468085106383 0.4005078386331167 0.4517842069321205
0.2476595744680851 0.3992822544202305 0.4480534379086985
0.2478723404255319 0.39668946335305144 0.44413287196002826
0.24808510638297873 0.39514705156317514 0.4406121188446067
0.24829787234042552 0.39308378659653903 0.435549606571794
0.24851063829787234 0.3939361023985168 0.43123686643551085
0.24872340425531914 0.3952125061064973 0.42875460748041394
0.24893617021276596 0.39641508301840644 0.4262522350079736
0.24914893617021278 0.3978255311336101 0.42747757044040025
0.24936170212765957 0.40028679130281847 0.4277174626613142
0.2495744680851064 0.39799093340894554 0.4297676695085082
0.24978723404255318 0.39879859015389013 0.4303859306301905
0.25 0.4008587900514368 0.4338621819592487
0.2502127659574468 0.40199385476376737 0.4370514226205644
0.25042553191489364 0.4030242640306849 0.4401426504213172
0.25063829787234043 0.41329578995105687 0.444263113244712
0.2508510638297872 0.4232802306028841 0.44878477607319645
0.251063829787234 0.43019779484299325 0.45500005566995255
0.25127659574468086 0.43580952348696234 0.45198621487117446
0.25148936170212766 0.44360313747468605 0.45633779758027276
0.25170212765957445 0.45125630827772534 0.45940502139991685
0.2519148936170213 0.45539402374274873 0.46145887887100384
0.2521276595744681 0.46041870615349106 0.4623727852936963
0.2523404255319149 0.46410722431483825 0.46505740685272406
0.2525531914893617 0.4684809574273846 0.4651392644185816
0.2527659574468085 0.47142159257449934 0.4655593551538837
0.2529787234042553 0.4720901607510944 0.4668964915070739
0.2531914893617021 0.4736919164314867 0.4694533607244163
0.25340425531914895 0.4748617486185468 0.4699355156706569
0.25361702127659574 0.4745045777377598 0.46974257114001067
0.25382978723404254 0.47249279599703986 0.47041316505358394
0.2540425531914894 0.4733303122220376 0.473239593236704
0.2542553191489362 0.4772899480744684 0.4753297508549097
0.25446808510638297 0.4793859528341353 0.4753790987545148
0.25468085106382976 0.4818693888742525 0.475907271796512
0.2548936170212766 0.4801456476350924 0.47209605264467774
0.2551063829787234 0.48528631387034193 0.4702583856899901
0.2553191489361702 0.4851353647773091 0.46871405635531094
0.25553191489361704 0.48229825479680843 0.4655593551538837
0.25574468085106383 0.486077186126038 0.46529958553104017
0.2559574468085106 0.4866664038411318 0.46399309786868737
0.2561702127659574 0.48834918128610066 0.4610386563442891
0.25638297872340426 0.4886610202062577 0.4573957539629748
0.25659574468085106 0.48949251386099374 0.45530475042821
0.25680851063829785 0.4915234679086362 0.4511940181904803
0.2570212765957447 0.49143367563256846 0.44989226577417435
0.2572340425531915 0.4934466435030304 0.45052695661325065
0.2574468085106383 0.4955160338871037 0.449595174092282
0.25765957446808513 0.49381070984463565 0.4483038142609295
0.2578723404255319 0.49299375795629047 0.4515716218143105
0.2580851063829787 0.49201979946037305 0.449190810203298
0.2582978723404255 0.48912785379180795 0.4508240622987034
0.25851063829787235 0.48997632258908724 0.44895870427950085
0.25872340425531914 0.4887129021313048 0.4498774882480688
0.25893617021276594 0.48349549003324666 0.44908071594370835
0.2591489361702128 0.4908135219337784 0.45173193912967485
0.2593617021276596 0.48900830483634583 0.44992672203224227
0.25957446808510637 0.4886510338605895 0.45028399300799865
0.2597872340425532 0.48658578881757003 0.45164658273316216
0.26 0.4856768488562182 0.4503270593020621
0.2602127659574468 0.483984710389648 0.44963179697469363
0.2604255319148936 0.47590475778891284 0.4528671880825986
0.26063829787234044 0.46878894222871154 0.4535329032554264
0.26085106382978723 0.4605249333496922 0.4509037616023448
0.261063829787234 0.45507539772222877 0.44808609276779215
0.2612765957446809 0.4495824399745805 0.4460185637518319
0.26148936170212767 0.44438363838004696 0.44079463386805695
0.26170212765957446 0.44519421422025374 0.43539322161937166
0.26191489361702125 0.4422525827806336 0.43278769652212157
0.2621276595744681 0.43872265604990646 0.4315364398199248
0.2623404255319149 0.43906274963888564 0.42878146285666974
0.2625531914893617 0.44009586383934984 0.42934842856822136
0.26276595744680853 0.43821321411896796 0.4284373349539638
0.2629787234042553 0.43830848407590306 0.43141608864273895
0.2631914893617021 0.4403517655089815 0.43263316853704326
0.26340425531914896 0.442078327667438 0.43530320628468694
0.26361702127659575 0.4411953165231413 0.43637206929445066
0.26382978723404255 0.441992310765242 0.4385565313095499
0.26404255319148934 0.441133365901319 0.44166526170992787
0.2642553191489362 0.4407071459803959 0.44385137465116525
0.264468085106383 0.4382200472422068 0.4432792929453055
0.26468085106382977 0.4340567728792836 0.44406448461162684
0.2648936170212766 0.4336116152339969 0.44347535282462963
0.2651063829787234 0.43324888577037424 0.44315560861164816
0.2653191489361702 0.431362970200293 0.4438736053318962
0.265531914893617 0.4326714120976623 0.44385499466791395
0.26574468085106384 0.43037638465895367 0.44503913768892017
0.26595744680851063 0.42376478167586024 0.44569227901597874
0.2661702127659574 0.41983459101696663 0.44758159781603474
0.2663829787234043 0.41620062837615635 0.4492030565984387
0.26659574468085107 0.412118270055326 0.44860920830563084
0.26680851063829786 0.40870941844868997 0.4508202705979688
0.2670212765957447 0.4025367212815044 0.45188080117244755
0.2672340425531915 0.39943369827245506 0.4502397559177897
0.2674468085106383 0.3964984871656165 0.44992672203224227
0.2676595744680851 0.3961895456765998 0.44992672203224227
0.26787234042553193 0.39424443105773577 0.4508992793416743
0.2680851063829787 0.3951349062732929 0.4439480848618203
0.2682978723404255 0.39331253262434024 0.44091694326912684
0.26851063829787236 0.39392339146114613 0.4384735079219032
0.26872340425531915 0.39330039445669346 0.43675767158105805
0.26893617021276595 0.39372312313965124 0.4357675894696521
0.26914893617021274 0.3962837368090956 0.43580674383200263
0.2693617021276596 0.39834989464323434 0.43624816805080613
0.2695744680851064 0.3971846857698731 0.43947479907919695
0.26978723404255317 0.3982911908039034 0.441133365901319
0.27 0.3998798489615256 0.4449292887744092
0.2702127659574468 0.40173115405481086 0.45010218899633336
0.2704255319148936 0.4107404200330883 0.45003489790875756
0.27063829787234045 0.4136669554749856 0.45177149870898664
0.27085106382978724 0.42254232769044586 0.4545106220980472
0.27106382978723403 0.43543565139967433 0.4538973815935089
0.2712765957446808 0.4439938035165739 0.4606123113451995
0.2714893617021277 0.45014736797618604 0.45778716778185174
0.27170212765957447 0.4553196053126437 0.45922776359305406
0.27191489361702126 0.4606236823418541 0.4639141308832072
0.2721276595744681 0.46575108892261396 0.4653676213851534
0.2723404255319149 0.4667606327709923 0.4639096014427631
0.2725531914893617 0.4690857153510317 0.4624373374019447
0.2727659574468085 0.47582853004192527 0.4650605759668681
0.27297872340425533 0.47728382999511476 0.462718568287245
0.2731914893617021 0.47660100742227973 0.4603327460169533
0.2734042553191489 0.4753297508549097 0.4581238230250555
0.27361702127659576 0.4753297508549097 0.45623549835535976
0.27382978723404255 0.4743235583822583 0.4562629027866348
0.27404255319148935 0.47449504530986586 0.45690833304801926
0.2742553191489362 0.4753297508549097 0.4565147029139533
0.274468085106383 0.4747861787816992 0.45660431756267356
0.2746808510638298 0.4739473072270328 0.457862624894673
0.27489361702127657 0.4752149798272957 0.4587200781631655
0.2751063829787234 0.479954315442803 0.4585897615318557
0.2753191489361702 0.4786595119119572 0.4576101578108163
0.275531914893617 0.48082516544902715 0.4563991761964624
0.27574468085106385 0.47923790913532005 0.45411004396983023
0.27595744680851064 0.48010927306015183 0.4515903465308369
0.27617021276595743 0.48423615351705346 0.4515928034928201
0.2763829787234042 0.4880312652662433 0.4521494614522072
0.2765957446808511 0.4887089636423874 0.4519203091665611
0.27680851063829787 0.4903810257914808 0.4522521547725233
0.27702127659574466 0.4923327187368156 0.44946994377882077
0.2772340425531915 0.4918180170893587 0.4473930682640147
0.2774468085106383 0.49229394114327124 0.4465957129360376
0.2776595744680851 0.4938935026868587 0.44462941378770654
0.27787234042553194 0.4951376106231567 0.43935512123263043
0.27808510638297873 0.49382704954291634 0.43722520762090866
0.2782978723404255 0.491457272696735 0.4394139932509406
0.2785106382978723 0.49174857772571023 0.4425149075786939
0.27872340425531916 0.49025099708328357 0.44562008473657916
0.27893617021276595 0.4890853225625499 0.44421852006403495
0.27914893617021275 0.4880534038624876 0.44310958363776837
0.2793617021276596 0.48806825257431663 0.4440274973035535
0.2795744680851064 0.48900830483634583 0.4430874450415241
0.2797872340425532 0.4893064872206913 0.44278926265717866
0.27999999999999997 0.4909623839765511 0.44174925090827644
0.2802127659574468 0.4883641468402823 0.4443243083252537
0.2804255319148936 0.4787031662059889 0.4453526269404214
0.2806382978723404 0.470860384245187 0.44781519765863
0.28085106382978725 0.46528706743880677 0.45215308888752437
0.28106382978723404 0.4612371675268745 0.45336125861529186
0.28127659574468084 0.4587200781631655 0.4517991228238564
0.2814893617021277 0.4563744290793748 0.4485581125185541
0.2817021276595745 0.45094840693917865 0.44313209037835793
0.28191489361702127 0.44545314524564045 0.4460285180044181
0.28212765957446806 0.4410372451282491 0.4479726428920372
0.2823404255319149 0.4409642856859265 0.4487806022467472
0.2825531914893617 0.4376856034242988 0.44894968246213973
0.2827659574468085 0.4353973484967121 0.4516914711484345
0.28297872340425534 0.4362352609869709 0.45284493367871487
0.28319148936170213 0.4355042837537956 0.45290447179716853
0.2834042553191489 0.4403706424536917 0.4535134061289398
0.2836170212765957 0.4419451735791478 0.45123422538689234
0.28382978723404256 0.441358569294279 0.4530830441355101
0.28404255319148936 0.4423943871198115 0.4538348803126526
0.28425531914893615 0.4424391877110136 0.45351075164739735
0.284468085106383 0.4397445976452525 0.45355222487058333
0.2846808510638298 0.43722520762090866 0.45481191988275516
0.2848936170212766 0.4367803618243283 0.45481191988275516
0.2851063829787234 0.43674697949359154 0.45580954276832614
0.2853191489361702 0.43449177667159483 0.45785937140268596
0.285531914893617 0.4311443424179872 0.4587200781631655
0.2857446808510638 0.429731722751421 0.4613369096782435
0.28595744680851065 0.42799076024401067 0.46404636725965315
0.28617021276595744 0.42379258171999107 0.4631174235038244
0.28638297872340424 0.4186765460856817 0.46262823644357587
0.2865957446808511 0.415180861016017 0.46346275484452265
0.2868085106382979 0.41029453398047366 0.46182177060244833
0.28702127659574467 0.40891910996301767 0.4597532174834364
0.28723404255319146 0.4029247965747624 0.4567139859766826
0.2874468085106383 0.3989543425982261 0.45439611541105124
0.2876595744680851 0.39716658524670256 0.44992672203224227
0.2878723404255319 0.396804989688125 0.449384328694376
0.28808510638297874 0.3947536384517026 0.44653673566713975
0.28829787234042553 0.3932584269662922 0.44450279092151235
0.2885106382978723 0.3926037617158908 0.4430874450415241
0.28872340425531917 0.3913043478260869 0.4430874450415241
0.28893617021276596 0.3913043478260869 0.4413042433301899
0.28914893617021276 0.3918081168438985 0.43867551774330216
0.28936170212765955 0.39508122825170305 0.43932218353321667
0.2895744680851064 0.39807159723563057 0.44054418861218564
0.2897872340425532 0.3995893248021598 0.4411946432835553
0.29 0.40110705236868904 0.44184509795492494
0.2902127659574468 0.4026247799352187 0.44249555262629475
0.2904255319148936 0.4044323117452076 0.44358496946727566
0.2906382978723404 0.4091689133163406 0.44911100463359743
0.2908510638297872 0.42654241305403445 0.4507207369558612
0.29106382978723405 0.43408472743685245 0.4521366938712322
0.29127659574468084 0.43868796691178275 0.4536711070295423
0.29148936170212764 0.4449588914235344 0.4552797814782579
0.2917021276595745 0.4521740394799337 0.45837817753185744
0.2919148936170213 0.45835379277751553 0.4597214810506377
0.29212765957446807 0.46180432673262006 0.45820242817050316
0.2923404255319149 0.462655189458869 0.4606741573033708
0.2925531914893617 0.46946168063227134 0.4606741573033708
0.2927659574468085 0.47219118452930164 0.45948967011796804
0.2929787234042553 0.469476667000289 0.45675226867396795
0.29319148936170214 0.4698777802638137 0.456150598778681
0.29340425531914893 0.47027889352733826 0.4555489288833942
0.2936170212765957 0.4706800067908628 0.4549472589881074
0.29382978723404257 0.47108112005438746 0.4543455890928204
0.29404255319148936 0.47179428623649805 0.45395911153331886
0.29425531914893616 0.4742594996004212 0.45478084932129326
0.29446808510638295 0.47691916210331325 0.4531009526704177
0.2946808510638298 0.47814540364007957 0.4537194143875149
0.2948936170212766 0.4819179047554767 0.45566339790778243
0.2951063829787234 0.48041926818932207 0.45666383928101073
0.29531914893617023 0.4792866031330126 0.45769434459537045
0.295531914893617 0.4832095798824729 0.45865656569642305
0.2957446808510638 0.48719093308130074 0.45453850511243515
0.29595744680851066 0.48900830483634583 0.4509037616023448
0.29617021276595745 0.48900830483634583 0.4502134398309422
0.29638297872340424 0.4898724574599556 0.44699560332193444
0.29659574468085104 0.4931145267961882 0.44719366700136653
0.2968085106382979 0.4941468133477546 0.4479726428920372
0.2970212765957447 0.4948705422569615 0.44767576108265017
0.29723404255319147 0.49379562283108386 0.44771221627251956
0.2974468085106383 0.4922885516113806 0.4486005543974128
0.2976595744680851 0.4934621058393872 0.44769982153072163
0.2978723404255319 0.493507514075651 0.4480178744579173
0.29808510638297875 0.4909623839765511 0.44868495392037494
0.29829787234042554 0.49193728621466887 0.44650815220287554
0.29851063829787233 0.4901436791570859 0.4460185637518319
0.2987234042553191 0.4886513446173235 0.4484988811561529
0.298936170212766 0.4896939363528261 0.44855545899928173
0.29914893617021276 0.4907226780950534 0.4472353092034322
0.29936170212765956 0.48855687525444863 0.44619376708123365
0.2995744680851064 0.48889938703622904 0.44688668552181765
0.2997872340425532 0.4852825435162393 0.44885848398198785
0.3 0.48882256849698463 0.4509501956871851
0.3002127659574468 0.4807750201388573 0.4528578407425501
0.30042553191489363 0.4759103574979879 0.4527091783949159
0.3006382978723404 0.46798757235446714 0.4502284629380769
0.3008510638297872 0.46223208373031466 0.4533727878488116
0.30106382978723406 0.4543607760752119 0.4565030511416808
0.30127659574468085 0.44874505874989873 0.45724299906023613
0.30148936170212765 0.4449197248318628 0.4549337192326217
0.3017021276595745 0.44265258496160315 0.4550265587032766
0.3019148936170213 0.44061042775026144 0.4528578407425501
0.3021276595744681 0.4380494589487363 0.4539876685549275
0.30234042553191487 0.4378557903994132 0.4541813371042506
0.3025531914893617 0.4360947913971215 0.45594233610654233
0.3027659574468085 0.4383536597334186 0.45599536620978165
0.3029787234042553 0.43581141206219814 0.45410502210340004
0.30319148936170215 0.4334530090270757 0.4574711192199083
0.30340425531914894 0.43724010858676776 0.4538348803126526
0.30361702127659573 0.4409862586954858 0.454496862738902
0.3038297872340425 0.43947259054425536 0.46101506563629713
0.3040425531914894 0.44135118829897063 0.45340555795600906
0.30425531914893617 0.44103623187955004 0.45737736117332617
0.30446808510638296 0.4379206421158343 0.45242685493676804
0.3046808510638298 0.43652943989485676 0.4486017985991138
0.3048936170212766 0.43485344120047775 0.44755495561181147
0.3051063829787234 0.4347860879982659 0.44699560332193444
0.30531914893617024 0.4347013972951177 0.4458561409507631
0.30553191489361703 0.43260704159370683 0.4448005174221731
0.3057446808510638 0.4298589993461639 0.4444079399582384
0.3059574468085106 0.42686831924362556 0.4442599821703792
0.30617021276595746 0.42218114735429246 0.44582237280015685
0.30638297872340425 0.4162499906180113 0.44868985569245984
0.30659574468085105 0.4119177973655906 0.44513714274907873
0.3068085106382979 0.41064510495919476 0.4450015173279406
0.3070212765957447 0.4057348161248339 0.44417704723802276
0.3072340425531915 0.40364042370478903 0.4450415241817294
0.30744680851063827 0.40156315042885876 0.445530156850086
0.3076595744680851 0.39916782989713134 0.44761551936185373
0.3078723404255319 0.3952848961002462 0.449326020291431
0.3080851063829787 0.39362161074850205 0.45037346314967974
0.30829787234042555 0.39326908383914866 0.451389617169182
0.30851063829787234 0.3917945667957635 0.45090036323309424
0.30872340425531913 0.3901931696551506 0.44940466759698255
0.308936170212766 0.3912922273764974 0.4477820831578524
0.3091489361702128 0.3926104717801455 0.4456996929496414
0.30936170212765957 0.39300015548433387 0.4428852199172965
0.30957446808510636 0.39484221309800754 0.44290229853727925
0.3097872340425532 0.39348948875087875 0.44136442768590556
0.31 0.39511953150429147 0.43927226136331954
0.3102127659574468 0.39914299197997555 0.44306511744845617
0.31042553191489364 0.40130364912104244 0.442481465521893
0.31063829787234043 0.41362796466644325 0.4463500622710716
0.3108510638297872 0.4195259433765003 0.4479726428920372
0.311063829787234 0.4284613691014702 0.4485647701563957
0.31127659574468086 0.4378401991990969 0.4502937321348699
0.31148936170212765 0.44561147725688327 0.4509037616023448
0.31170212765957445 0.4509429715341535 0.45344438535712295
0.3119148936170213 0.4576689491325499 0.46157710741296026
0.3121276595744681 0.46359457424625433 0.46037701549313437
0.3123404255319149 0.4639300474173627 0.4596998430923184
0.3125531914893617 0.4676936593170246 0.4586299656516977
0.3127659574468085 0.4717139845061912 0.4592406859743278
0.3129787234042553 0.47239863214460187 0.4573058998564286
0.3131914893617021 0.47079121155289066 0.45676599902296044
0.31340425531914895 0.4707672539177114 0.4545070926297569
0.31361702127659574 0.47115962612933615 0.4517604871483841
0.31382978723404253 0.47228747286278394 0.4492340178016146
0.3140425531914894 0.4748927822209148 0.44714977031510983
0.3142553191489362 0.47660946626667505 0.448137294643472
0.31446808510638297 0.4772714014961464 0.4527708412497716
0.31468085106382976 0.4779938778961454 0.45214779284151946
0.3148936170212766 0.4782608695652173 0.4515842665967414
0.3151063829787234 0.4782608695652173 0.45111435319778675
0.3153191489361702 0.4795057498589195 0.4513187217002456
0.31553191489361704 0.48176372455562866 0.4514996436523785
0.31574468085106383 0.4840280481869358 0.44999009456484035
0.3159574468085106 0.4851899141560604 0.4488599148620148
0.31617021276595747 0.48692112561505513 0.4481414307898406
0.31638297872340426 0.4910742056529224 0.44897204679741404
0.31659574468085105 0.4952272856907898 0.44980266280498743
0.31680851063829785 0.49635311967780854 0.44891564633075326
0.3170212765957447 0.4971517118564722 0.4476455524327315
0.3172340425531915 0.49873469688237443 0.4460625674068293
0.3174468085106383 0.4979055346138275 0.4460185637518319
0.3176595744680851 0.4985922509856766 0.44759974378864675
0.3178723404255319 0.49801699622076073 0.44873434720864813
0.3180851063829787 0.4978016609672691 0.451208584801415
0.3182978723404255 0.49665041967361145 0.45130518052561863
0.31851063829787235 0.49628020011355484 0.4539320896077808
0.31872340425531914 0.495472953494436 0.4563913706903324
0.31893617021276593 0.49276416187033945 0.4532256753269856
0.3191489361702128 0.492047044816425 0.45035720711132776
0.3193617021276596 0.4927499818879634 0.45235839705617154
0.31957446808510637 0.4911967026452063 0.45027820003522506
0.3197872340425532 0.48911030566687574 0.4536308786515928
0.32 0.48897320921195214 0.4508686659779511
0.3202127659574468 0.48648510813903845 0.4492342412406909
0.3204255319148936 0.4795255624812843 0.45271401406956796
0.32063829787234044 0.47349524617706057 0.45477206172863643
0.32085106382978723 0.46656348324759783 0.45383875010174
0.321063829787234 0.45575094066546773 0.45386022617091276
0.32127659574468087 0.4525228856343652 0.45573313360149376
0.32148936170212766 0.44655990754992875 0.45481191988275516
0.32170212765957445 0.4427933372424149 0.4549589737823098
0.32191489361702125 0.44073228052763525 0.45558841676601597
0.3221276595744681 0.43867188501798027 0.4545582190111884
0.3223404255319149 0.436918062213318 0.453527734905062
0.3225531914893617 0.43516041212174805 0.4532204260522361
0.3227659574468085 0.4333170493404983 0.4534181462902774
0.3229787234042553 0.43520519246682654 0.4552180196504603
0.3231914893617021 0.43775503973661234 0.45615354224595184
0.32340425531914896 0.4393670230537479 0.4571414716082285
0.32361702127659575 0.44142050925060106 0.45619171232439626
0.32382978723404254 0.44074474289464355 0.4541290885943661
0.32404255319148934 0.4401563263312165 0.4559822085464344
0.3242553191489362 0.4409121473891341 0.45827764113879565
0.324468085106383 0.43968782191361666 0.4579973061693144
0.32468085106382977 0.4385267977788258 0.46165797248679097
0.3248936170212766 0.43635474896548365 0.4617577777881511
0.3251063829787234 0.43410304828600416 0.4606741573033708
0.3253191489361702 0.43149852546131157 0.46249268118255754
0.325531914893617 0.42809988381681463 0.46383431144476783
0.32574468085106384 0.42418086940905425 0.46159487464033333
0.32595744680851063 0.42296511636112905 0.45830114355281487
0.3261702127659574 0.42276535505366697 0.45429105415888493
0.32638297872340427 0.4172940060849443 0.4507736248910406
0.32659574468085106 0.41370636679164696 0.44992672203224227
0.32680851063829786 0.40777146089714544 0.44903104267961175
0.3270212765957447 0.4037413361692068 0.44548951161540457
0.3272340425531915 0.40211809296484724 0.4431537549091561
0.3274468085106383 0.3997432634990719 0.441133365901319
0.3276595744680851 0.39789081581199126 0.43990351732640265
0.3278723404255319 0.3957273058830966 0.437740007397508
0.3280851063829787 0.3952125061064973 0.4377365183153028
0.3282978723404255 0.3940808282147723 0.44046560297446125
0.32851063829787236 0.3932584269662922 0.4436885465385785
0.32872340425531915 0.3942566850764131 0.4455406532367898
0.32893617021276594 0.39251577760499123 0.4492546379536393
0.32914893617021274 0.39322361571801767 0.45014301669522755
0.3293617021276596 0.3971163048312857 0.45148808076185754
0.3295744680851064 0.39470358781084414 0.4521698333413579
0.32978723404255317 0.3932584269662922 0.45484383781285503
0.33 0.39484744196035865 0.4549944519558245
0.3302127659574468 0.39860851979541456 0.4539629164605259
0.3304255319148936 0.4017704786666163 0.45118506603294395
0.33063829787234045 0.409487929423859 0.4509037616023448
0.33085106382978724 0.4177094304510696 0.4538273760429888
0.33106382978723403 0.42804091868021626 0.4507865402502781
0.3312765957446808 0.43796056979144915 0.44894968246213973
0.33148936170212767 0.44437996980365946 0.44847645467409075
0.33170212765957446 0.4479482183789266 0.4462329698215091
0.33191489361702126 0.45535281920056603 0.44699560332193444
0.3321276595744681 0.45935433794422326 0.4482897727825659
0.3323404255319149 0.4649583587519043 0.451279804770468
0.3325531914893617 0.4664100316863578 0.45273147770492156
0.3327659574468085 0.46894610046682067 0.4538348803126526
0.33297872340425533 0.47258163547192983 0.4543691509295359
0.3331914893617021 0.4749412889287978 0.45245760930679224
0.3334042553191489 0.47919077708360125 0.4515472659737935
0.33361702127659576 0.4741948760619752 0.4469828226229625
0.33382978723404255 0.4729339624312698 0.4397482296830325
0.33404255319148934 0.4758203264907279 0.436572477340329
0.3342553191489362 0.4763067904250122 0.4336359428732233
0.334468085106383 0.4790719485347485 0.4323953299705863
0.3346808510638298 0.47923790913532005 0.4323400097703958
0.33489361702127657 0.4791276303409802 0.43456978589645046
0.3351063829787234 0.4773948608728805 0.43917928676111373
0.3353191489361702 0.47876059867469584 0.4395124395007661
0.335531914893617 0.48140341633534556 0.4419790781406007
0.33574468085106385 0.48270316559956206 0.4450415241817294
0.33595744680851064 0.4844377998774829 0.4450415241817294
0.33617021276595743 0.4854621667607595 0.44685162520584953
0.3363829787234042 0.48668759641900067 0.4490111065927983
0.33659574468085107 0.48852078882652644 0.44724036510207604
0.33680851063829786 0.4922234241953249 0.4490916827864753
0.33702127659574466 0.49501628152550775 0.44964602732258
0.3372340425531915 0.4970616071377072 0.4491346959195302
0.3374468085106383 0.4983261859526668 0.44947420744753735
0.3376595744680851 0.49877870053737183 0.4522016374359326
0.33787234042553194 0.4972921883828139 0.45084788747060073
0.33808510638297873 0.495847581827064 0.4475432364949513
0.3382978723404255 0.4964517097021511 0.4467643871418629
0.3385106382978723 0.4961653162388309 0.44667786891016753
0.33872340425531916 0.495847581827064 0.4448759775926943
0.33893617021276595 0.49280223249026794 0.44406448461162684
0.33914893617021274 0.49275580643313693 0.4432481017251434
0.3393617021276596 0.49030220059030977 0.44483028672582176
0.3395744680851064 0.4918299619458041 0.4478084504907629
0.3397872340425532 0.4890261082010387 0.452828168468062
0.34 0.48495780172640174 0.4508088650493223
0.3402127659574468 0.48161875404067633 0.44904139476296495
0.3404255319148936 0.476028493182204 0.44988696528326966
0.3406382978723404 0.46874023419544686 0.44886887365782335
0.34085106382978725 0.45971543649304103 0.44810960300779856
0.34106382978723404 0.45422441902988064 0.4485601437449117
0.34127659574468083 0.4537647745526559 0.44750164954698496
0.3414893617021277 0.44705230510762395 0.4486429032006687
0.3417021276595745 0.443958604847631 0.4483336160034033
0.34191489361702126 0.44171092060617106 0.4493491673273902
0.34212765957446806 0.439862155718753 0.44992672203224227
0.3423404255319149 0.44005089176450013 0.44992672203224227
0.3425531914893617 0.44007571622850117 0.44992672203224227
0.3427659574468085 0.4387622897482042 0.4516068497038214
0.34297872340425534 0.4373336717315808 0.457779480821305
0.34319148936170213 0.4402608036976649 0.45866783947994133
0.3434042553191489 0.44138507013906203 0.4606443799225013
0.34361702127659577 0.4419168438889699 0.46165119687347334
0.34382978723404256 0.4395929063428104 0.462490363249677
0.34404255319148935 0.44366018881949665 0.4653167776786056
0.34425531914893615 0.4383319269926747 0.4636485026142331
0.344468085106383 0.43912466152533036 0.46265554906146755
0.3446808510638298 0.43714247265108774 0.4637707459533205
0.3448936170212766 0.4361083891294708 0.46541957623254837
0.3451063829787234 0.43507298433050373 0.4641860272833818
0.3453191489361702 0.43429408891060084 0.46338306554025505
0.345531914893617 0.4322319741754787 0.4640864160573679
0.3457446808510638 0.42644677175256857 0.4610101706924755
0.34595744680851065 0.42295334710992916 0.45968826424891596
0.34617021276595744 0.4197189426633469 0.4572142951558693
0.34638297872340423 0.415635561236319 0.45572577555796934
0.3465957446808511 0.4105569637524204 0.4566376985825571
0.3468085106382979 0.4064136228133396 0.4568620002072201
0.34702127659574467 0.4043075685665083 0.45646429269387273
0.3472340425531915 0.4047376807351158 0.4531069065344848
0.3474468085106383 0.39945173808750584 0.4510906349267306
0.3476595744680851 0.3981436248168051 0.45005651619035264
0.3478723404255319 0.39547638225925597 0.4481485603272097
0.34808510638297874 0.3961563225254442 0.44514119363519616
0.34829787234042553 0.39419989138942246 0.44600077617834577
0.3485106382978723 0.3923176380946147 0.44505964953094196
0.34872340425531917 0.39607640365297614 0.4411710799091936
0.34893617021276596 0.39316433467443473 0.44201631317956414
0.34914893617021275 0.3927311830560745 0.4417330934478324
0.34936170212765955 0.3950060852604326 0.4448351033356647
0.3495744680851064 0.3944976065062717 0.44511304449113476
0.3497872340425532 0.3952125061064973 0.4479726428920372
0.35 0.39783983364951325 0.44984930542276286
0.3502127659574468 0.4041681176758623 0.45243457382682073
0.3504255319148936 0.4078742124520398 0.4537552641810704
0.3506382978723404 0.41412561373595047 0.4557889594528579
0.35085106382978726 0.4238805166728864 0.45636885510662756
0.35106382978723405 0.43318520560189416 0.45676599902296044
0.35127659574468084 0.4404113378555105 0.45607213738884306
0.35148936170212763 0.44886641073918315 0.4557889594528579
0.3517021276595745 0.4549209685386623 0.4541820766783309
0.3519148936170213 0.4583776725297103 0.4529719759537018
0.35212765957446807 0.46425451421080094 0.4547026527584284
0.3523404255319149 0.46751754214452323 0.451879774209839
0.3525531914893617 0.47903371704212966 0.44894968246213973
0.3527659574468085 0.47435271128480694 0.4488155377007832
0.3529787234042553 0.47446903471632723 0.4467629564588939
0.35319148936170214 0.4753297508549097 0.4445397496046478
0.35340425531914893 0.4748888016737195 0.44188993088082645
0.3536170212765957 0.47392703705795525 0.4419604139161953
0.35382978723404257 0.47466965331820543 0.44406448461162684
0.35404255319148936 0.4749099719775054 0.4444480596773271
0.35425531914893615 0.47640433062605225 0.4463607732353232
0.354468085106383 0.4763210264691371 0.4489639185062646
0.3546808510638298 0.476731191344565 0.4488214447311427
0.3548936170212766 0.4781361151381579 0.4504117425095647
0.3551063829787234 0.47923790913532005 0.451214130821653
0.3553191489361702 0.4806832916960244 0.45234914416304933
0.355531914893617 0.48197063057208966 0.4528578407425501
0.3557446808510638 0.48216902784562765 0.45118907046809165
0.35595744680851066 0.4857293189819195 0.45268390717049084
0.35617021276595745 0.487021993740878 0.45380264835738987
0.35638297872340424 0.4880811127884892 0.4538348803126526
0.35659574468085103 0.48998130560265923 0.45384699672402007
0.3568085106382979 0.48922382681534304 0.45671211852821114
0.3570212765957447 0.49281517488176196 0.455383806512881
0.35723404255319147 0.49225209872871484 0.45172446358141694
0.3574468085106383 0.49453362448007343 0.4511171355334164
0.3576595744680851 0.4955134987243974 0.45188080117244755
0.3578723404255319 0.49225030382234214 0.45125904062107053
0.35808510638297875 0.4932609025573179 0.4488934037105571
0.35829787234042554 0.4938935026868587 0.44699560332193444
0.35851063829787233 0.4915437395139349 0.44582072173547255
0.3587234042553191 0.48936619832128475 0.44406448461162684
0.35893617021276597 0.4904595743034329 0.44406448461162684
0.35914893617021276 0.4894303591472895 0.4446194698707857
0.35936170212765955 0.4884071049720636 0.4450415241817294
0.3595744680851064 0.48868430857803064 0.4450415241817294
0.3597872340425532 0.48687763776424814 0.44646196889646106
0.36 0.48455012697689653 0.44699560332193444
0.3602127659574468 0.4833031495034935 0.451095390733632
0.3604255319148936 0.47963807267453895 0.4501268038018517
0.3606382978723404 0.4708495717355043 0.45272283449884754
0.3608510638297872 0.4645167880872523 0.4538479858119584
0.36106382978723406 0.45934134501688517 0.45452730170964867
0.36127659574468085 0.4540387821445441 0.45154804305085405
0.36148936170212764 0.4487643078655403 0.45597433404945736
0.3617021276595745 0.44653842761862733 0.4550927478706489
0.3619148936170213 0.4409412545712766 0.45080358520735103
0.3621276595744681 0.43854999158090907 0.4525100963526522
0.36234042553191487 0.4383706074401178 0.4526894804934435
0.3625531914893617 0.4367651387427461 0.4542949491908152
0.3627659574468085 0.4367654008114853 0.45481191988275516
0.3629787234042553 0.43722520762090866 0.45652928489912004
0.36319148936170215 0.4391018947382642 0.45649191384815935
0.36340425531914894 0.4394751229564584 0.454426552703342
0.36361702127659573 0.4414016106233984 0.4523533310711296
0.3638297872340425 0.4413108605646585 0.45347989098597363
0.36404255319148937 0.4376966906336946 0.4521165426788405
0.36425531914893616 0.4390560478475536 0.4537116413990925
0.36446808510638296 0.43733704563193754 0.45567712144182904
0.3646808510638298 0.43819906796518404 0.4548150991085823
0.3648936170212766 0.43517142432172945 0.44992672203224227
0.3651063829787234 0.43321263799843596 0.4503443674004918
0.36531914893617023 0.4323400097703958 0.4531983727978012
0.365531914893617 0.4313693494699461 0.44978805627503515
0.3657446808510638 0.4266930528298961 0.44912001389788525
0.3659574468085106 0.4231399978751981 0.4477693150098999
0.36617021276595746 0.42107184660903224 0.44647487543169945
0.36638297872340425 0.4155089020626618 0.4477207747073329
0.36659574468085104 0.41063145155635444 0.44835431884119636
0.3668085106382979 0.40870129085456364 0.4485560472937734
0.3670212765957447 0.40609330440053426 0.44894968246213973
0.3672340425531915 0.4023732996976467 0.44634008035226314
0.36744680851063827 0.3982799859310065 0.44574021358075594
0.3676595744680851 0.40091017244106275 0.4497621509461921
0.3678723404255319 0.39563622125779657 0.4501018163724175
0.3680851063829787 0.3958322584626397 0.45072511799536474
0.36829787234042555 0.3911965872020543 0.45007160185658723
0.36851063829787234 0.3920788631025366 0.4534298317253469
0.36872340425531913 0.39168358945222476 0.4526392844247233
0.368936170212766 0.39171729990261883 0.45022899286631984
0.36914893617021277 0.39228138739618945 0.44755308529245125
0.36936170212765956 0.39228138739618945 0.44560890069376924
0.36957446808510636 0.39381648286626036 0.44406448461162684
0.3697872340425532 0.39577650110326545 0.44857644458577267
0.37 0.3984018162578111 0.4446909217835107
0.3702127659574468 0.40171921565017693 0.43917928676111373
0.37042553191489364 0.4047572789033761 0.43917928676111373
0.3706382978723404 0.41282345593772773 0.43917928676111373
0.3708510638297872 0.42333765302814497 0.43917928676111373
0.371063829787234 0.4314016309507447 0.43917928676111373
0.37127659574468086 0.44003380852524837 0.43917928676111373
0.37148936170212765 0.44927939770992253 0.43997584145428065
0.37170212765957444 0.45259575392663937 0.44269431481765803
0.3719148936170213 0.4591698631583005 0.4484977499693102
0.3721276595744681 0.45780254125703107 0.4480023942240212
0.3723404255319149 0.4609277307990566 0.4509037616023448
0.3725531914893617 0.4701328705924421 0.451293364617288
0.3727659574468085 0.46650447885920937 0.45575704358808106
0.3729787234042553 0.46625453415577356 0.4555070988846452
0.3731914893617021 0.46600458945233775 0.4552571541812093
0.37340425531914895 0.4657546447489019 0.4550072094777734
0.37361702127659574 0.4659147770305147 0.45534505269770165
0.37382978723404253 0.46749949102159505 0.45771515204807517
0.3740425531914894 0.4666516902103142 0.4560195504255139
0.37425531914893617 0.4676556662810783 0.45514937570594816
0.37446808510638296 0.4689511098796725 0.4544091222210372
0.37468085106382976 0.4702465534782666 0.4536688687361263
0.3748936170212766 0.4715419970768611 0.45292861525121514
0.3751063829787234 0.4728374406754553 0.45218836176630417
0.3753191489361702 0.47503822827984304 0.45063388374859353
0.37553191489361704 0.47827791994962365 0.44874040036645363
0.37574468085106383 0.4830005789176678 0.4477461563731812
0.3759574468085106 0.487723237885712 0.44675191237990874
0.37617021276595747 0.4924458968537574 0.44575766838663605
0.37638297872340426 0.49619720353571517 0.44469190247307816
0.37659574468085105 0.497447147973957 0.4434419580348362
0.37680851063829784 0.4978016609672691 0.4459820234746801
0.3770212765957447 0.5008833027801428 0.44699560332193444
0.3772340425531915 0.5025375562761313 0.4503065514357415
0.3774468085106383 0.4999991204145165 0.4517996744034335
0.3776595744680851 0.49975574010747437 0.4493858334144543
0.3778723404255319 0.49888069978271965 0.45332488408591337
0.3780851063829787 0.49783671529645035 0.45289289507173136
0.37829787234042556 0.49682462139716654 0.453174363159289
0.37851063829787235 0.49658487328777673 0.46035449315751775
0.37872340425531914 0.4940403753188697 0.4564722537589385
0.37893617021276593 0.4946602914737074 0.45460166909950106
0.3791489361702128 0.4936246274997119 0.4535660051255058
0.3793617021276596 0.4929164631167562 0.45353496606052607
0.37957446808510636 0.49251427310086937 0.4552141098986421
0.3797872340425532 0.49052585469423865 0.4548465802179146
0.38 0.4884667605106416 0.4549179689640613
0.3802127659574468 0.48435888105976743 0.4545648313840326
0.3804255319148936 0.4784030260882584 0.4525795463935296
0.38063829787234044 0.4695586293790091 0.45188080117244755
0.38085106382978723 0.46264219608585827 0.4495470739180272
0.381063829787234 0.4573570688515005 0.4485254909673489
0.38127659574468087 0.45149894974432375 0.44950184415187827
0.38148936170212766 0.44730648540868984 0.44828352497879237
0.38170212765957445 0.4443138609640953 0.44870030610967104
0.3819148936170213 0.4386703069674524 0.4486646825825075
0.3821276595744681 0.43764023487111947 0.44866867630219387
0.3823404255319149 0.4343825635531712 0.44818574573457176
0.3825531914893617 0.43415194010267694 0.45047731517857303
0.3827659574468085 0.43429408891060084 0.448190462710771
0.3829787234042553 0.43526950971154316 0.4499234844939218
0.3831914893617021 0.43707615605458333 0.4458695121855066
0.38340425531914896 0.43555763693814714 0.4442077388403487
0.38361702127659575 0.43722520762090866 0.44525344834526714
0.38382978723404254 0.43804361668853015 0.44656416979691294
0.38404255319148933 0.4401563263312165 0.448295492281177
0.3842553191489362 0.43859946349492784 0.44894968246213973
0.384468085106383 0.4354468233535836 0.44894968246213973
0.38468085106382977 0.43468047186558983 0.45010883132710683
0.3848936170212766 0.4334450133312919 0.4509677435977418
0.3851063829787234 0.431362970200293 0.44940525961693484
0.3853191489361702 0.4290101694756527 0.4501260828244598
0.38553191489361704 0.42810816372835314 0.45025040979387443
0.38574468085106384 0.42487670403327626 0.44992672203224227
0.38595744680851063 0.42121074543857706 0.4522626302331377
0.3861702127659574 0.41976908672678404 0.44693270332588636
0.38638297872340427 0.41414857088777157 0.4487635259874772
0.38659574468085106 0.4098703112012329 0.4440672490406227
0.38680851063829785 0.40673356571143054 0.4470634084007004
0.3870212765957447 0.4037333840467392 0.44756392560601516
0.3872340425531915 0.401430945947054 0.4450415241817294
0.3874468085106383 0.3985658757487495 0.44531891850080846
0.3876595744680851 0.3985524501476745 0.4463650299770749
0.3878723404255319 0.3990062245573449 0.44782301090984167
0.3880851063829787 0.393770124881032 0.4484657983030262
0.3882978723404255 0.3913043478260869 0.4490751465581956
0.38851063829787236 0.3918381323850507 0.44885915291431466
0.38872340425531915 0.39228138739618945 0.4479726428920372
0.38893617021276594 0.3907730604524999 0.4509892967794164
0.3891489361702128 0.38987608103118215 0.45173163093145136
0.3893617021276596 0.3903273082559844 0.44992672203224227
0.3895744680851064 0.39310115321107264 0.45177595200230114
0.38978723404255317 0.3971884291145556 0.45283599687469694
0.39 0.39702066788101154 0.450757844236654
0.3902127659574468 0.39807574406050894 0.44992672203224227
0.3904255319148936 0.40187770114170934 0.4513052404096432
0.39063829787234045 0.4083211894309783 0.4511247487776388
0.39085106382978724 0.4198266751721454 0.45173364289518736
0.39106382978723403 0.4296945238072099 0.45638188412130454
0.3912765957446808 0.43425351493202086 0.44903083041929975
0.39148936170212767 0.44163161417664354 0.45379335962304224
0.39170212765957446 0.4533034024472596 0.45274645031637273
0.39191489361702125 0.4575002426136474 0.45224792296779104
0.3921276595744681 0.46159938066098344 0.45406618615205574
0.3923404255319149 0.465172722590023 0.4540247105410994
0.3925531914893617 0.46781507946388756 0.45120540677214344
0.39276595744680853 0.4707091000083585 0.4533057863047288
0.3929787234042553 0.47219490495034183 0.45023231282363235
0.3931914893617021 0.4707695710562673 0.45266282991142764
0.3934042553191489 0.4746338561135866 0.4503442588770361
0.39361702127659576 0.4700338958548611 0.45068327274653486
0.39382978723404255 0.4697517558572058 0.4515344025988521
0.39404255319148934 0.4704445530043966 0.45302085813421245
0.3942553191489362 0.47257026885808895 0.45489773823949886
0.394468085106383 0.47501894310515286 0.4549006503590634
0.3946808510638298 0.47632547906799966 0.453158602408601
0.39489361702127657 0.4778299921688831 0.4527000444331001
0.3951063829787234 0.47987942120329186 0.45577418798471314
0.3953191489361702 0.4809364540352539 0.4562098331514359
0.395531914893617 0.4802257384356165 0.45194553955361105
0.39574468085106385 0.4823278372849736 0.45188080117244755
0.39595744680851064 0.48566920534587016 0.4527218471491608
0.39617021276595743 0.4893090522976118 0.4538348803126526
0.3963829787234043 0.4909677062645608 0.4538348803126526
0.39659574468085107 0.491027596716367 0.4547467071429393
0.39680851063829786 0.4888259306493659 0.45694837320994036
0.39702127659574465 0.49043412181518714 0.4548596107343304
0.3972340425531915 0.49344548243968406 0.45293883981830324
0.3974468085106383 0.49480663119013424 0.4554054930518946
0.3976595744680851 0.49405170588995106 0.450875941250796
0.39787234042553193 0.4953578206528428 0.44895051005491965
0.3980851063829787 0.4964015923269837 0.44839567196222
0.3982978723404255 0.49461563830992905 0.4491620101911451
0.3985106382978723 0.4938935026868587 0.4475195927274492
0.39872340425531916 0.4938935026868587 0.449254819617837
0.39893617021276595 0.4915997463244839 0.454514234756992
0.39914893617021274 0.49115417887729296 0.45482095241595166
0.3993617021276596 0.4893635725229395 0.4541457662544071
0.3995744680851064 0.48873853937595335 0.45622646810217543
0.3997872340425532 0.48745513785546685 0.46064891647515804
0.4 0.48620617422917267 0.46334729980740935
0.4002127659574468 0.48064764861137693 0.4590806614181275
0.4004255319148936 0.47661917135281123 0.46231585551577686
0.4006382978723404 0.46968377651630033 0.45978980191127095
0.40085106382978725 0.46342306005238687 0.46273756602035093
0.40106382978723404 0.45839250200624865 0.4647950107877442
0.40127659574468083 0.454889671985723 0.4592596506434464
0.4014893617021277 0.4501466024097749 0.46089403768090337
0.40170212765957447 0.4473327459958962 0.459679923507377
0.40191489361702126 0.4452417870584802 0.46087442018012165
0.40212765957446805 0.4422340095719599 0.46106997401301836
0.4023404255319149 0.4375187289117105 0.4615731974757736
0.4025531914893617 0.43467193227870127 0.4600749611013687
0.4027659574468085 0.43362575026518596 0.45836044044243834
0.40297872340425533 0.4369898532488852 0.457743038593063
0.4031914893617021 0.4382022471910112 0.45451746950030747
0.4034042553191489 0.44171557023367036 0.448564895748664
0.40361702127659577 0.44025116744991954 0.4433245478382818
0.40382978723404256 0.4382259407173937 0.43806008603271623
0.40404255319148935 0.43936920540886304 0.4320551317987718
0.40425531914893614 0.4406440526400649 0.42875647337841577
0.404468085106383 0.4375279610488137 0.4259502568744759
0.4046808510638298 0.4355671486971694 0.4265667512704848
0.4048936170212766 0.43624816805080613 0.42562019813584656
0.4051063829787234 0.43451119828713747 0.4265863270380484
0.4053191489361702 0.43284696050170895 0.42702158497361725
0.405531914893617 0.4315725222029893 0.4290133605358217
0.4057446808510638 0.4284422302673913 0.42940889106008795
0.40595744680851065 0.42460097510952954 0.42655505424973483
0.40617021276595744 0.4204222880275812 0.4278440069885959
0.40638297872340423 0.4145439414415349 0.4267336668508096
0.4065957446808511 0.4128552167993581 0.4227936077934261
0.40680851063829787 0.40595202997473845 0.4235466536394723
0.40702127659574466 0.4049017137959038 0.42395259369756966
0.4072340425531915 0.4035430886541471 0.4288946250732588
0.4074468085106383 0.40152773627137495 0.4315894665724241
0.4076595744680851 0.4009288432223217 0.43324000096110843
0.4078723404255319 0.3958152077650851 0.43601980430373294
0.40808510638297874 0.394763315597118 0.4376743981302879
0.4082978723404255 0.3927937390426384 0.4382022471910112
0.4085106382978723 0.3908189954064183 0.4386875996106798
0.40872340425531917 0.3903273082559844 0.4407408461271311
0.40893617021276596 0.3913595290521965 0.44623928865627027
0.40914893617021275 0.39365355390940904 0.45095584691715696
0.40936170212765954 0.39637280672850345 0.4529952865314778
0.4095744680851064 0.3990920595475986 0.4550347261457992
0.4097872340425532 0.3982650088099225 0.4567053070264017
0.41 0.3969463653282428 0.45875213146192023
0.4102127659574468 0.4001863961587494 0.4621840627593942
0.4104255319148936 0.40519027044080913 0.46541179011692463
0.4106382978723404 0.40982920722843136 0.4692643270343526
0.41085106382978726 0.4230860735839221 0.471730409906344
0.41106382978723405 0.4313087968570852 0.47239863214460187
0.41127659574468084 0.4403519250931807 0.4752712620742641
0.41148936170212763 0.4478650754154406 0.4787762812194178
0.4117021276595745 0.45199712114922264 0.4798136689029526
0.41191489361702127 0.4572420217804073 0.48232770209811004
0.41212765957446806 0.46265201695392083 0.48491900694812184
0.4123404255319149 0.4663340235968427 0.4872449914680791
0.4125531914893617 0.4705427682535931 0.4850019313067392
0.4127659574468085 0.47239863214460187 0.4844616515858495
0.4129787234042553 0.4738217418668348 0.4808308173892366
0.41319148936170214 0.4751186933253606 0.4723440707703379
0.41340425531914893 0.4728644740374691 0.4663357583086624
0.4136170212765957 0.4741496120047037 0.4655593551538837
0.41382978723404257 0.4734303361011497 0.45449085294999647
0.41404255319148936 0.4743500466872799 0.44894435326708576
0.41425531914893615 0.47343003405468176 0.44704996566191185
0.414468085106383 0.4744599581803043 0.44743640841455057
0.4146808510638298 0.47635237891771676 0.44279526559500776
0.4148936170212766 0.48256772106212825 0.4417314057260699
0.4151063829787234 0.48261788679104134 0.4428101344493005
0.4153191489361702 0.4788680622723643 0.43917928676111373
0.415531914893617 0.48091734395389474 0.4377744962641693
0.4157446808510638 0.48216902784562765 0.4352711284807034
0.41595744680851066 0.48305734975331555 0.43838025515761087
0.41617021276595745 0.48662202556516587 0.43911170317622206
0.41638297872340424 0.4899750113426634 0.43673152130396486
0.4165957446808511 0.4895783934055211 0.43768653781125194
0.4168085106382979 0.4900258218070923 0.4382022471910112
0.41702127659574467 0.4935538830675213 0.4376640940173887
0.41723404255319146 0.4960568829102906 0.4366320372942441
0.4174468085106383 0.4974725590353504 0.43560023041262214
0.4176595744680851 0.49841199796591384 0.43588146547934814
0.4178723404255319 0.4981770022850823 0.43624816805080613
0.41808510638297874 0.4958609207336271 0.43883582169566226
0.41829787234042554 0.49627102267503664 0.44575824800351754
0.41851063829787233 0.4975779691197912 0.4472192951694124
0.4187234042553191 0.4969912448343685 0.44780601945483517
0.41893617021276597 0.4950896026904836 0.4479726428920372
0.41914893617021276 0.49212333809373754 0.4488883776131118
0.41936170212765955 0.49193942354665365 0.453003242165041
0.4195744680851064 0.49080813169239296 0.4549661721669133
0.4197872340425532 0.4887860494262009 0.45658848943968955
0.42 0.4891115747337399 0.4581545084005828
0.42021276595744683 0.48735102110323353 0.4582612379188235
0.4204255319148936 0.4783147040359803 0.4572612481168571
0.4206382978723404 0.47133826731615414 0.45626359169485164
0.4208510638297872 0.4634837663226647 0.45801416280464763
0.42106382978723406 0.4566465458939985 0.45908700336541425
0.42127659574468085 0.4509146826685808 0.45547238048468686
0.42148936170212764 0.4482589438443096 0.451071925841332
0.4217021276595745 0.4427636081561999 0.45141501767105296
0.4219148936170213 0.4419353108695631 0.4542866360771798
0.4221276595744681 0.4407104124256528 0.4545319212736014
0.42234042553191486 0.4390254182912513 0.45419492244672116
0.4225531914893617 0.4373404241568494 0.4538579236198408
0.4227659574468085 0.4380662330453601 0.45467590573710404
0.4229787234042553 0.43646823844796984 0.4496098936536308
0.42319148936170214 0.4380773510227959 0.4507788654341295
0.42340425531914894 0.4401386713281425 0.44896733746521367
0.42361702127659573 0.4402027188874762 0.4536957026438735
0.4238297872340426 0.44103454931270036 0.4510025781909635
0.42404255319148937 0.44044061626530684 0.45202294613949273
0.42425531914893616 0.44152960424540527 0.4518898386991897
0.42446808510638295 0.43917928676111373 0.4486656772410506
0.4246808510638298 0.43944952267981313 0.4503632897649461
0.4248936170212766 0.4389537238854332 0.44985163429647723
0.4251063829787234 0.43624816805080613 0.4515453067516341
0.42531914893617023 0.4354926761309114 0.4516592535222395
0.425531914893617 0.4326058279669106 0.4520137102707049
0.4257446808510638 0.42945797595605245 0.4518317162764829
0.4259574468085106 0.4274138830081234 0.455402761947205
0.42617021276595746 0.42135261911336586 0.4554651927102122
0.42638297872340425 0.41705691985017723 0.453207383943973
0.42659574468085104 0.41327454468078134 0.45217127434895554
0.4268085106382979 0.4095845736137437 0.4526266695672801
0.4270212765957447 0.4057032380288542 0.4504669741982405
0.4272340425531915 0.4041313717175653 0.4507782521222
0.4274468085106383 0.4021902304953063 0.4509037616023448
0.4276595744680851 0.40301719698970745 0.4499383477098528
0.4278723404255319 0.39809939212910894 0.44881698439905116
0.4280851063829787 0.3970181502397851 0.4459888767504484
0.42829787234042555 0.3954107957810955 0.4456674058587105
0.42851063829787234 0.39380344132240636 0.4453459349669727
0.42872340425531913 0.392255380542798 0.4450935378885123
0.428936170212766 0.39176532226832206 0.44607365443746416
0.42914893617021277 0.3914199311203932 0.44688002002762817
0.42936170212765956 0.3932584269662922 0.44538072691472896
0.42957446808510635 0.39307736939247 0.45054164645470046
0.4297872340425532 0.3918636823757346 0.4479744387838179
0.43 0.39558702385042066 0.4527113270808825
0.4302127659574468 0.3985828395451278 0.44915285480739153
0.43042553191489363 0.404145785515897 0.45257860003040534
0.4306382978723404 0.40991450289791936 0.4512191296279606
0.4308510638297872 0.41956931056206787 0.45031061938058387
0.43106382978723407 0.4290079772478732 0.4504653560438204
0.43127659574468086 0.4377638590188071 0.44992672203224227
0.43148936170212765 0.4448578683439343 0.4493772294577397
0.43170212765957444 0.45305066180863357 0.44894968246213973
0.4319148936170213 0.4594119225374053 0.4496111633407509
0.4321276595744681 0.4606741573033708 0.44992672203224227
0.4323404255319149 0.46394230688699545 0.4505803519489672
0.4325531914893617 0.46744040718929464 0.4509037616023448
0.4327659574468085 0.472492516921311 0.45157076877853153
0.4329787234042553 0.4786713265716705 0.45188080117244755
0.4331914893617021 0.4748239535533388 0.45265094333703093
0.43340425531914895 0.4717246271882967 0.4545088852689578
0.43361702127659574 0.4731853279558984 0.4556937875734549
0.43382978723404253 0.47617126138080323 0.4595164123409896
0.4340425531914894 0.47239863214460187 0.458706632609485
0.43425531914893617 0.47288943658211063 0.4568887001323376
0.43446808510638296 0.4802149487054226 0.45837980653440086
0.4346808510638298 0.48124478531482484 0.4554456805830571
0.4348936170212766 0.4853873274428259 0.4538348803126526
0.4351063829787234 0.4834326045688624 0.45354834315952064
0.4353191489361702 0.48378017640876364 0.4528578407425501
0.43553191489361703 0.48354392012793457 0.4528578407425501
0.4357446808510638 0.48503404523449484 0.453768778991212
0.4359574468085106 0.4871035210762664 0.45378558493252685
0.43617021276595747 0.49087663800743137 0.45342691529078766
0.43638297872340426 0.4929164631167562 0.45445561013306845
0.43659574468085105 0.4935820190033648 0.45348080810953795
0.43680851063829784 0.4938935026868587 0.4535757073019727
0.4370212765957447 0.49691149335053736 0.4515713873148936
0.4372340425531915 0.49460104853220277 0.4509037616023448
0.4374468085106383 0.49732407097769027 0.45176140367505285
0.4376595744680851 0.4969793334110977 0.45188080117244755
0.4378723404255319 0.4985330671973094 0.4501723553723047
0.4380851063829787 0.4951495242722721 0.44992672203224227
0.43829787234042555 0.4939181170527829 0.45087914723642064
