0.0 0.3531998045920859 0.5192965315095261
0.0002127659574468085 0.34941711188881014 0.5272221733640087
0.000425531914893617 0.3456344191855344 0.5351478152184912
0.0006382978723404255 0.34185172648225864 0.5430734570729737
0.000851063829787234 0.3380690337789829 0.5509990989274562
0.0010638297872340426 0.33428634107570715 0.5589247407819388
0.001276595744680851 0.3314054864066142 0.5712216830872613
0.0014893617021276596 0.32823785188925625 0.5866946827614252
0.001702127659574468 0.3228315711753947 0.6014309034936854
0.0019148936170212765 0.32208700724620365 0.6111102345731674
0.002127659574468085 0.3177496780011091 0.6082099931670649
0.002340425531914894 0.3170206130029888 0.5853901876030297
0.002553191489361702 0.31872975478062243 0.553181607955516
0.0027659574468085106 0.3212951943770977 0.517085698269499
0.0029787234042553193 0.32407756153728184 0.48270685527780427
0.0031914893617021275 0.326807781388644 0.44812407049388425
0.003404255319148936 0.3322255950113815 0.41013163120757906
0.003617021276595745 0.3368586801137821 0.36934662250307293
0.003829787234042553 0.3432129226596942 0.33393490846268487
0.004042553191489362 0.34668839038334986 0.3095412403919212
0.00425531914893617 0.3533411874905533 0.29609284814821757
0.004468085106382979 0.3627977593147274 0.29054284058285346
0.004680851063829788 0.37518257980958675 0.2839219385737659
0.004893617021276595 0.39064356974082054 0.27539706339402414
0.005106382978723404 0.4106961875436073 0.2660624159625623
0.005319148936170213 0.43656543444488327 0.2607845519161442
0.005531914893617021 0.46300516789712576 0.2632198398170243
0.00574468085106383 0.4885369593292874 0.2737741868684357
0.005957446808510639 0.5096047097567251 0.29352922049374
0.006170212765957446 0.52836986196316 0.3147549842254728
0.006382978723404255 0.5442360909250056 0.34299456848714477
0.006595744680851064 0.5563511076262144 0.37484443916315163
0.006808510638297872 0.564113005297543 0.3985808556472574
0.007021276595744681 0.5660945881533539 0.41696412953031803
0.00723404255319149 0.5671358340255926 0.42525127784695566
0.007446808510638298 0.5641101532915896 0.4251752366730389
0.007659574468085106 0.560235534666899 0.41486040799623003
0.007872340425531916 0.5595175677864934 0.4066121531422059
0.008085106382978723 0.559894791933526 0.40585770484814093
0.008297872340425531 0.5581114370888357 0.4128912184598447
0.00851063829787234 0.5580584231166784 0.4340642276098929
0.008723404255319148 0.5601329478326109 0.46842331398813186
0.008936170212765958 0.5639472216375898 0.5061552308250861
0.009148936170212766 0.5661880663984538 0.5492394391075801
0.009361702127659575 0.5669007789359732 0.5991360892520535
0.009574468085106383 0.5681485100146555 0.6455404942281968
0.00978723404255319 0.5675086262127518 0.6804665112652204
0.01 0.567171470444553 0.6999524934570256
0.010212765957446808 0.5642605956336717 0.7010461354480342
0.010425531914893617 0.5648480964608065 0.6889553619018584
0.010638297872340425 0.5626360453393416 0.6639986329670153
0.010851063829787235 0.5659841844609369 0.6304594962725031
0.011063829787234043 0.5622725401488698 0.6019191891679707
0.01127659574468085 0.5610685771189424 0.5706127328650953
0.01148936170212766 0.557510357288701 0.5528790681541835
0.011702127659574468 0.5515457521719911 0.5425583710968632
0.011914893617021277 0.5466714648961574 0.5370929120244003
0.012127659574468085 0.5420414110379219 0.532946310555256
0.012340425531914893 0.5355472579004152 0.5233100026293914
0.012553191489361702 0.5288768670875056 0.5070018762991559
0.01276595744680851 0.5201727169574352 0.48071653312804125
0.01297872340425532 0.5156075497161289 0.45919503041902604
0.013191489361702127 0.5107920070591198 0.4346813325012698
0.013404255319148937 0.5085490962383976 0.41044527786826485
0.013617021276595745 0.5027552765097892 0.38982038589237533
0.013829787234042552 0.49694009399650885 0.37715282751559387
0.014042553191489362 0.495847581827064 0.3662990741954371
0.01425531914893617 0.4916778201397127 0.3547737641510414
0.01446808510638298 0.48825157071130537 0.3369349250006118
0.014680851063829787 0.4815961526445558 0.30803403823729314
0.014893617021276596 0.47000758116215585 0.2718166499609398
0.015106382978723404 0.45262866417962366 0.2415881170374644
0.015319148936170212 0.43621700504226607 0.2259519983452165
0.015531914893617021 0.4227366551991091 0.22462818639187698
0.01574468085106383 0.4102522540591923 0.2347901028008976
0.015957446808510637 0.40079987271611506 0.24689344367579116
0.016170212765957447 0.3896275657312095 0.26801078271915746
0.016382978723404256 0.3820988495366589 0.29468406203824893
0.016595744680851062 0.37628710696716466 0.32327962959620293
0.01680851063829787 0.37321722883827907 0.3506252941090777
0.01702127659574468 0.37486461290552986 0.37713737667382224
0.01723404255319149 0.3807080803232992 0.3978344565281796
0.017446808510638297 0.3873230342951926 0.4132920750390303
0.017659574468085106 0.39286092621771085 0.42259933676341754
0.017872340425531916 0.3950070976643616 0.4306967422333101
0.018085106382978722 0.3943734447653507 0.43737437781727545
0.01829787234042553 0.3915074126856684 0.4491144625939164
0.01851063829787234 0.3912925899907047 0.45874191414316107
0.01872340425531915 0.38432800437813874 0.4719698584034194
0.018936170212765956 0.38198173727673596 0.4801641043675685
0.019148936170212766 0.37899084632608526 0.4874352313157
0.019361702127659575 0.37957181197017215 0.49340901340914933
0.01957446808510638 0.3763903747155042 0.4964208196112246
0.01978723404255319 0.3747061678765512 0.5020201754481026
0.02 0.37234934695756555 0.5081621792871363
0.02021276595744681 0.3681022147906319 0.5148072972014367
0.020425531914893616 0.36081508332211454 0.5200195954305016
0.020638297872340425 0.35280793720934 0.5261363926973025
0.020851063829787235 0.34492425470272664 0.5305855399884203
0.02106382978723404 0.3392320893466379 0.5345742699003154
0.02127659574468085 0.33075058945990254 0.5324979131959992
0.02148936170212766 0.32706597565222323 0.5302902062335618
0.02170212765957447 0.3228881756715025 0.5237534699361531
0.021914893617021276 0.32276325007069506 0.5172553798884825
0.022127659574468085 0.31851748557172305 0.5102136835131627
0.022340425531914895 0.31432650747919644 0.5067512313666032
0.0225531914893617 0.3180080126665315 0.49978788306073146
0.02276595744680851 0.3181122079937577 0.5005611238268468
0.02297872340425532 0.3204657021042745 0.4962423299223547
0.023191489361702126 0.32531129788158286 0.4905167431540791
0.023404255319148935 0.32954398770737636 0.487254726627151
0.023617021276595745 0.33708498396740294 0.4823911247511195
0.023829787234042554 0.3409342664656153 0.4760888022825807
0.02404255319148936 0.3484785011294001 0.47019871142265607
0.02425531914893617 0.3538474368464922 0.46417614762765397
0.02446808510638298 0.3602614363219903 0.4594747629940819
0.024680851063829785 0.371573491864692 0.4481627074513802
0.024893617021276595 0.3858926986124709 0.4364269084435452
0.025106382978723404 0.40583783541541546 0.42454912395701794
0.025319148936170214 0.43183385614633324 0.41305905597504133
0.02553191489361702 0.45918799078660955 0.40500472145980954
0.02574468085106383 0.4843293954237973 0.40256809521118736
0.02595744680851064 0.5068270667172501 0.40140223231321637
0.026170212765957445 0.5260998717597337 0.40129878900310123
0.026382978723404255 0.5395181685041599 0.40975611514303595
0.026595744680851064 0.5541488436218387 0.4260124208293458
0.026808510638297874 0.5627013831650299 0.4284911530001267
0.02702127659574468 0.5689065619497428 0.4280949652499948
0.02723404255319149 0.567772015048442 0.42128768384219056
0.0274468085106383 0.5665883791742138 0.41680977931334806
0.027659574468085105 0.5653495373243843 0.41495151653860374
0.027872340425531914 0.5612009614811747 0.43014961183071254
0.028085106382978724 0.560214221056774 0.44495681217828403
0.028297872340425533 0.5616716084030347 0.45807329829463006
0.02851063829787234 0.5632678061441685 0.46884012161436317
0.02872340425531915 0.564965249209506 0.4778931512961633
0.02893617021276596 0.5662506438608896 0.4782046565787783
0.029148936170212764 0.5674641540035158 0.476991146436152
0.029361702127659574 0.5696474477134329 0.4724761718614699
0.029574468085106383 0.5730849642939448 0.46369140726682845
0.029787234042553193 0.5765224808744568 0.45490664267218694
0.03 0.5714643738313365 0.4527393818498042
0.03021276595744681 0.567171470444553 0.45558789838272956
0.030425531914893618 0.567171470444553 0.46747410044661625
0.030638297872340424 0.5686899117917905 0.4857347304609387
0.030851063829787233 0.5675145553316516 0.5000913514108217
0.031063829787234043 0.5668347365506592 0.5123743492398612
0.03127659574468085 0.567391810526211 0.521038551023707
0.03148936170212766 0.5623053671805468 0.5130455686233771
0.03170212765957447 0.558054471845888 0.5045057267100278
0.031914893617021274 0.5539178323257816 0.49535229151066595
0.03212765957446809 0.5490902258144273 0.4824786741470548
0.03234042553191489 0.5415714758670964 0.4840586056903614
0.0325531914893617 0.5337538843982034 0.4872435503628735
0.03276595744680851 0.5259362929293099 0.49042849503538566
0.03297872340425532 0.5204548830722823 0.49442129755322606
0.033191489361702124 0.5170820570429305 0.49914325399431825
0.03340425531914894 0.5137092310135788 0.5038652104354107
0.03361702127659574 0.5080427431651292 0.5039625357704604
0.033829787234042556 0.5018905921409662 0.4958109942752293
0.03404255319148936 0.4975507576977403 0.48148223678820884
0.03425531914893617 0.4938216992654121 0.46510545492265487
0.03446808510638298 0.4878345161762351 0.4509020851323602
0.03468085106382979 0.4786991625296961 0.4420769209243732
0.03489361702127659 0.4655476374262931 0.43787786930404266
0.035106382978723406 0.44886156870768235 0.44249482783109395
0.03531914893617021 0.43161466993016184 0.45347792722492497
0.03553191489361702 0.4162604604514 0.4598738255241843
0.03574468085106383 0.40584973719196626 0.4508544172226575
0.03595744680851064 0.3934619606676042 0.4192923713611247
0.036170212765957444 0.38472401146655905 0.3633633648206639
0.036382978723404256 0.37844028372905864 0.2982717581786392
0.03659574468085106 0.3733857841591538 0.23866446988411066
0.03680851063829787 0.3708612191508503 0.1909066527393714
0.03702127659574468 0.3742751672110345 0.1861271254551135
0.03723404255319149 0.38332867169004403 0.19182891594993656
0.0374468085106383 0.38935026868588185 0.21350662569470194
0.03765957446808511 0.39214379311866865 0.2514181098921782
0.03787234042553191 0.3956463048473856 0.3073566299862692
0.038085106382978726 0.3966205946009405 0.37383271703774845
0.03829787234042553 0.39585527363825657 0.4400282666522938
0.03851063829787234 0.3924840586066429 0.5022413929940781
0.03872340425531915 0.3875602445973352 0.5500386447192989
0.03893617021276596 0.38257583758136976 0.575265557660255
0.03914893617021276 0.3819357401444317 0.5799886272101274
0.039361702127659576 0.3816790414522568 0.569778451557139
0.03957446808510638 0.37778682853902573 0.545987837887194
0.03978723404255319 0.37475795121864813 0.5126191844661988
0.04 0.37282554475440655 0.48274236756393557
0.04021276595744681 0.36959374985304494 0.4677316681775019
0.04042553191489362 0.36354376708003744 0.47181171420416773
0.040638297872340426 0.3562815602172679 0.48473323162300214
0.04085106382978723 0.34922360376627487 0.49583730555152034
0.041063829787234045 0.3421466457171702 0.5061071352941496
0.04127659574468085 0.3331631511667755 0.520480726574781
0.04148936170212766 0.3289883058821883 0.5264217454825719
0.04170212765957447 0.3250165774150254 0.5336502843492361
0.041914893617021276 0.3229115779189058 0.5420966284407143
0.04212765957446808 0.32201783625624114 0.5467369373798365
0.042340425531914895 0.31986704307353453 0.5434519828464957
0.0425531914893617 0.31900775115919877 0.533999771788802
0.04276595744680851 0.3246866451697475 0.5209618952753458
0.04297872340425532 0.3238290961483635 0.5095938898557403
0.043191489361702126 0.3254149455420718 0.5012370841875494
0.04340425531914894 0.3292318374791814 0.4999847511773044
0.043617021276595745 0.3336225437042398 0.5047852885918956
0.04382978723404255 0.3402812309782351 0.5145742646402887
0.044042553191489364 0.3469815011314286 0.5329128850976056
0.04425531914893617 0.35324688580697383 0.5502439548260962
0.044468085106382976 0.3602757787142465 0.5626413182912036
0.04468085106382979 0.36982392509103273 0.5698275629368893
0.044893617021276595 0.3833397493778432 0.5687235275673703
0.0451063829787234 0.4007608980120325 0.5585611908640933
0.045319148936170214 0.426519493611643 0.5389203642489889
0.04553191489361702 0.4530496239159335 0.5096573933221703
0.045744680851063826 0.4778692546175683 0.4790316269472474
0.04595744680851064 0.4990330194726358 0.4533785786380748
0.046170212765957445 0.5200768113488482 0.42069100959915734
0.04638297872340425 0.5388893426200128 0.3839955937128365
0.046595744680851064 0.5524172173290293 0.334461547605995
0.04680851063829787 0.5619065932482167 0.27945863387193537
0.047021276595744683 0.5697002860003872 0.23717472933923173
0.04723404255319149 0.5745231605509052 0.21241715325357569
0.047446808510638296 0.5717292191123251 0.20436632173734165
0.04765957446808511 0.5647299474373041 0.21579635259985863
0.047872340425531915 0.5611358944706973 0.24113957608220601
0.04808510638297872 0.5592828625965541 0.2655543012383672
0.048297872340425534 0.5574086490058572 0.2985992026012916
0.04851063829787234 0.5600664722603468 0.3384665514186367
0.048723404255319146 0.5617726623640487 0.3719819819803401
0.04893617021276596 0.5649241011217667 0.3993930942726144
0.049148936170212765 0.567572665670081 0.4290216765085118
0.04936170212765957 0.567773359022986 0.46328374432744124
0.049574468085106384 0.5678716965343239 0.49224900658275145
0.04978723404255319 0.5681689447551216 0.5158830665989451
0.05 0.566623803434081 0.5318797514700184
0.05021276595744681 0.5681095786920667 0.5348513019859901
0.050425531914893615 0.5708099987754889 0.5349291646311676
0.05063829787234043 0.5710796287249633 0.5289616666853034
0.050851063829787234 0.5694773217302066 0.523282966656179
0.05106382978723404 0.5691255495847583 0.5182947675216367
0.05127659574468085 0.5652115246177243 0.5192994648528378
0.05148936170212766 0.5617015675297959 0.5202735710796287
0.051702127659574465 0.5580847493338661 0.5193745934316413
0.05191489361702128 0.5529470036279149 0.5141528386470785
0.052127659574468084 0.5476107682970104 0.503021924558449
0.05234042553191489 0.5431183056362565 0.4885455234732143
0.0525531914893617 0.5381642770028829 0.4713565339886197
0.05276595744680851 0.5311435780658014 0.45394554827121736
0.05297872340425532 0.5237273153281672 0.4406335598678381
0.05319148936170213 0.5199400874416371 0.4291754525134938
0.053404255319148934 0.5109680694654761 0.422895039930181
0.05361702127659575 0.5061657187557846 0.41317179138659715
0.05382978723404255 0.500052360337957 0.40585309424050964
0.05404255319148936 0.4943788471234106 0.4000938935388109
0.05425531914893617 0.4906082412931195 0.3940604933217895
0.05446808510638298 0.4865853291498605 0.3891158204127417
0.054680851063829784 0.47921831776799406 0.3841825761975287
0.0548936170212766 0.4674572233441167 0.3761321290145107
0.0551063829787234 0.4513129355075339 0.36793015025061393
0.05531914893617021 0.4333386893409187 0.35936766341898385
0.05553191489361702 0.4208516332919455 0.358185971011507
0.05574468085106383 0.4068107618068815 0.366992110303146
0.055957446808510634 0.39322218733490916 0.39372062899886023
0.05617021276595745 0.3833275977961858 0.41731541943735456
0.05638297872340425 0.37609197700251745 0.44404072187975985
0.056595744680851066 0.37042017345805456 0.4665536627222267
0.05680851063829787 0.3670798346571439 0.4810208530399092
0.05702127659574468 0.3677306436552899 0.48362408903249343
0.05723404255319149 0.37572918241245623 0.48346695829676367
0.0574468085106383 0.3824448012118564 0.4820000961249301
0.057659574468085104 0.38815682681590197 0.47908241342950614
0.05787234042553192 0.3917959102227712 0.47679226759843046
0.05808510638297872 0.3955737112221659 0.4781881183255702
0.05829787234042553 0.3975344254609983 0.4810080681683772
0.05851063829787234 0.39470652571338555 0.4836869690249629
0.05872340425531915 0.3931103424806586 0.4889938144228614
0.058936170212765954 0.39149476842967673 0.4994950457542432
0.05914893617021277 0.38736441259768334 0.5086126501343843
0.05936170212765957 0.3841190657546668 0.5120365648592076
0.059574468085106386 0.3812143162708057 0.5071519195317336
0.05978723404255319 0.37907115037911404 0.4848173070662676
0.06 0.3755292787955545 0.4622783855453833
0.06021276595744681 0.37071835711924195 0.4463594041117202
0.06042553191489362 0.3641367248844089 0.4378321555442065
0.06063829787234042 0.3580901553301653 0.44209237036493915
0.060851063829787236 0.35096632142444034 0.46341056772040934
0.06106382978723404 0.3425811161229889 0.49034460448756273
0.06127659574468085 0.33591041703433583 0.5120264866085762
0.06148936170212766 0.33268197361993157 0.5205308469535757
0.06170212765957447 0.3317206450926545 0.517373874454972
0.06191489361702127 0.3252550157408858 0.5044426157514343
0.062127659574468086 0.3222324353927263 0.49177272666998734
0.06234042553191489 0.3206924359008588 0.48067728957389044
0.0625531914893617 0.3200177699868591 0.4719066326918943
0.0627659574468085 0.32373442638035294 0.46954460898862177
0.06297872340425532 0.3258426966292134 0.4674532927658056
0.06319148936170213 0.32634038930349296 0.46344416128819566
0.06340425531914894 0.3298557151079872 0.4487399620654128
0.06361702127659574 0.3346950067386229 0.4390613788041414
0.06382978723404255 0.34026271074428827 0.4260896813708375
0.06404255319148935 0.34583529756747206 0.4150159125254969
0.06425531914893617 0.3505224563687361 0.4128415134495036
0.06446808510638298 0.3598896191177442 0.41440270724100486
0.06468085106382979 0.3733158984424909 0.4202194467524368
0.06489361702127659 0.387917696207519 0.4272685905010711
0.0651063829787234 0.40798375219146915 0.4312796650279668
0.06531914893617022 0.4302915972988332 0.42999090290092473
0.06553191489361702 0.4545194463692246 0.42070704098929185
0.06574468085106383 0.48048211033962196 0.4023804546572466
0.06595744680851064 0.504424421226793 0.38779264130399116
0.06617021276595744 0.5244162099660086 0.3788503530694643
0.06638297872340425 0.5390452625533475 0.3868483219791765
0.06659574468085107 0.5500097107200409 0.41090919434497586
0.06680851063829787 0.5609741588867335 0.4349700667107736
0.06702127659574468 0.5686755133754661 0.45446511291859376
0.06723404255319149 0.5669214081910255 0.4607297742915955
0.06744680851063829 0.565167303006585 0.4669944356645973
0.06765957446808511 0.5634131978221444 0.4732590970375995
0.06787234042553192 0.5613195160448915 0.4774771813049445
0.06808510638297872 0.5586156785612137 0.47801794880167997
0.06829787234042553 0.5577964067800577 0.4739122171633816
0.06851063829787234 0.5589136705139904 0.4663352106532955
0.06872340425531914 0.5617390433158148 0.4601193904892817
0.06893617021276596 0.5637498269683567 0.45692817062436514
0.06914893617021277 0.5648063034257662 0.4572803294435016
0.06936170212765957 0.5658627798831756 0.457632488262638
0.06957446808510638 0.5664880552415655 0.45686216549171754
0.06978723404255319 0.5669160303137345 0.4555782402752105
0.06999999999999999 0.5661999806225303 0.45694919749120505
0.07021276595744681 0.5637901880121928 0.4622507412339477
0.07042553191489362 0.5622862725940401 0.4709572762335942
0.07063829787234042 0.5622862725940401 0.48531669541457634
0.07085106382978723 0.5617218858285069 0.496888445014649
0.07106382978723404 0.5607918288298649 0.5066540435003901
0.07127659574468086 0.5603321934538348 0.5084163381284563
0.07148936170212766 0.5603321934538348 0.5023588357886889
0.07170212765957447 0.5587235321754437 0.492594072003463
0.07191489361702127 0.5559712283112865 0.4814460945624317
0.07212765957446808 0.5505957586533182 0.4677087832142906
0.07234042553191489 0.5460431899639524 0.45896462408835964
0.0725531914893617 0.5419735715525174 0.45315088350059524
0.07276595744680851 0.5338085950981961 0.43807526862712654
0.07297872340425532 0.5268708302156148 0.4225785822205441
0.07319148936170213 0.5229948772106459 0.4072845827799588
0.07340425531914893 0.5182215154473112 0.39324754068939083
0.07361702127659574 0.5097726426587049 0.3923087770462122
0.07382978723404256 0.5050286725561669 0.4030752992017893
0.07404255319148936 0.4950374411108792 0.42059372042787985
0.07425531914893617 0.4914109587660222 0.4399474215152262
0.07446808510638298 0.48429014943034393 0.4461202789261638
0.07468085106382978 0.47566050922289993 0.4466063110472804
0.0748936170212766 0.46335405450239653 0.4450415241817294
0.07510638297872341 0.44746101964378454 0.44686143422294355
0.07531914893617021 0.43110614877368897 0.45083955624569394
0.07553191489361702 0.4136099524749325 0.44683249681395604
0.07574468085106383 0.40369856113469593 0.4460700820954764
0.07595744680851063 0.40215502869891 0.4495137396254641
0.07617021276595745 0.38635263849465784 0.4603928184339473
0.07638297872340426 0.3798568309424543 0.48192745240229706
0.07659574468085106 0.37463373920225357 0.5181346194864827
0.07680851063829787 0.37097846879801094 0.5707078692690334
0.07702127659574468 0.37346351521604665 0.603841821509509
0.0772340425531915 0.3783725254496422 0.6454001898790543
0.0774468085106383 0.3903084257547048 0.686681859268182
0.07765957446808511 0.3886932643167227 0.719380688292719
0.07787234042553191 0.3933875650471585 0.7300788024899528
0.07808510638297872 0.39442982722506387 0.7250788678041046
0.07829787234042553 0.39400656443617116 0.7018846051230617
0.07851063829787235 0.38932399112124333 0.6594240695449518
0.07872340425531915 0.385621677166214 0.6078903093233022
0.07893617021276596 0.38226590832906987 0.5410804633144704
0.07914893617021276 0.3789666078312366 0.45675474243166037
0.07936170212765957 0.3770965687687996 0.3648227132404035
0.07957446808510638 0.3761759458559262 0.28502919495352796
0.0797872340425532 0.37666791326581206 0.22761191909746395
0.08 0.37327484434945285 0.19014014801333112
0.08021276595744681 0.37176355642403514 0.16429163208084077
0.08042553191489361 0.3703819270960472 0.13869528508944584
0.08063829787234042 0.3622924261449869 0.12413418337753718
0.08085106382978724 0.3541199533666053 0.13146871297438156
0.08106382978723405 0.34637772013773616 0.14873397200544836
0.08127659574468085 0.3396970315624535 0.188261379409204
0.08148936170212766 0.334172237614199 0.2326362326527339
0.08170212765957446 0.3296523291567789 0.2812252485700003
0.08191489361702127 0.32730413948393716 0.33426965582118007
0.08212765957446809 0.3255021595862824 0.3838689729650523
0.0823404255319149 0.3237898727048077 0.41526089912542424
0.0825531914893617 0.3231991527964892 0.44171566579329613
0.08276595744680851 0.3237895788843882 0.4629710049576612
0.08297872340425531 0.32571685948290935 0.4743064231980656
0.08319148936170212 0.32801614549192104 0.4832714215428746
0.08340425531914894 0.3321417460269399 0.4856289075628854
0.08361702127659575 0.33674316807908417 0.4886930931664331
0.08382978723404255 0.3420721382973779 0.4928378477806615
0.08404255319148936 0.34820091387732105 0.49519482222856626
0.08425531914893616 0.35467424561805894 0.49670027103319897
0.08446808510638298 0.36214646069442463 0.4948322172641075
0.08468085106382979 0.3738827424320124 0.48971275708140544
0.0848936170212766 0.39050710899692354 0.48234841687497926
0.0851063829787234 0.40920839508039897 0.47869938544405727
0.08531914893617021 0.4286362805953342 0.4757712639051367
0.08553191489361701 0.45682723787998597 0.4815375960769972
0.08574468085106383 0.4807940987561168 0.48704609674630334
0.08595744680851064 0.5011337458126961 0.4925096328039868
0.08617021276595745 0.5191367023077703 0.49995913204332787
0.08638297872340425 0.5359575532479616 0.5046080182607862
0.08659574468085106 0.5516089149352493 0.5064861816632608
0.08680851063829788 0.5599875376402197 0.5065950170981925
0.08702127659574468 0.5652173913043479 0.5074472462076232
0.08723404255319149 0.5652173913043479 0.5099493692302993
0.0874468085106383 0.5626990630891543 0.5059701845912545
0.0876595744680851 0.5599443854805364 0.49996468336783634
0.08787234042553191 0.5584982333048296 0.49345699857715597
0.08808510638297873 0.5568382288267067 0.4721280090432978
0.08829787234042553 0.5604905952266607 0.45840327461751396
0.08851063829787234 0.5649916571517584 0.4473695433940131
0.08872340425531915 0.5634515137390614 0.43519584785073584
0.08893617021276595 0.5673618546189144 0.4336317114987947
0.08914893617021276 0.571868508738525 0.43778104780914145
0.08936170212765958 0.5723390702093669 0.4461256633191294
0.08957446808510638 0.5727017279559589 0.4508848614448186
0.08978723404255319 0.5723990710811495 0.45315007474048546
0.09 0.5720566682950659 0.4557679708156993
0.0902127659574468 0.571440663443126 0.4598460232826595
0.09042553191489362 0.5710796287249633 0.46050748639037536
0.09063829787234043 0.5700074467944874 0.4602332086985062
0.09085106382978723 0.5686655752184916 0.46343400350097
0.09106382978723404 0.5665774452457999 0.471563801984324
0.09127659574468085 0.563017676994016 0.48364283886638765
0.09148936170212765 0.5614497182111957 0.4930505915633096
0.09170212765957447 0.5584111913351835 0.49679154437561274
0.09191489361702128 0.5535053269166674 0.4965030783583159
0.09212765957446808 0.5478781462291896 0.49157677555105506
0.09234042553191489 0.5432738321381595 0.4811993096029018
0.0925531914893617 0.540535633020148 0.46952634311545455
0.0927659574468085 0.5328060934538141 0.45791397075984774
0.09297872340425532 0.5252342632429021 0.4442532203935278
0.09319148936170213 0.5180138408348447 0.4255533082539979
0.09340425531914893 0.5121854100113573 0.40777138084858033
0.09361702127659574 0.5080153217589561 0.3921003686186285
0.09382978723404255 0.5020219705043889 0.3767014259637413
0.09404255319148937 0.49673234025022756 0.3590660857763226
0.09425531914893617 0.4913642868402526 0.3352666246448398
0.09446808510638298 0.48575460688518 0.30892904839166757
0.09468085106382979 0.4812576045867502 0.2844373447698855
0.09489361702127659 0.471819032144954 0.2566580576901457
0.0951063829787234 0.45385907761317196 0.23624901844948423
0.09531914893617022 0.433255728788725 0.2319315245524898
0.09553191489361702 0.4178651444034467 0.24409527379459736
0.09574468085106383 0.40581912787632074 0.2679615313088731
0.09595744680851064 0.3941719229100756 0.30204927577153295
0.09617021276595744 0.38402796855953525 0.34717476287477494
0.09638297872340426 0.37560487697801387 0.40159041318064953
0.09659574468085107 0.3727201387713451 0.4670731896405336
0.09680851063829787 0.37183809584233146 0.5323443663875462
0.09702127659574468 0.37112075397756167 0.5655007885398355
0.09723404255319149 0.3752651858594273 0.5903232125353742
0.09744680851063829 0.38338002140155153 0.6111407264975045
0.09765957446808511 0.3890863674360659 0.636819283652819
0.09787234042553192 0.393618219775444 0.6687308094981297
0.09808510638297872 0.39701210652701097 0.6986237730120362
0.09829787234042553 0.3991152188298643 0.722474474855996
0.09851063829787234 0.3977282051247703 0.7106848583626966
0.09872340425531914 0.3943140378141399 0.6798815940769861
0.09893617021276596 0.3895205413596656 0.6361409389299082
0.09914893617021277 0.38648931077726745 0.5996835142965369
0.09936170212765957 0.3834296876981441 0.5633914958684575
0.09957446808510638 0.3801696005749172 0.5268785200883163
0.09978723404255319 0.3768220633405143 0.5004173416403696
0.1 0.3736617126018262 0.47838589009457655
0.10021276595744681 0.37085579304161825 0.4601474129532251
0.10042553191489362 0.3637348916088483 0.44110646935986425
0.10063829787234042 0.3564780692021426 0.41355790829698535
0.10085106382978723 0.349086840768039 0.3785433688133247
0.10106382978723404 0.34108067141022236 0.35166551454065464
0.10127659574468086 0.33475051600702965 0.33888965176698227
0.10148936170212766 0.3305611453871868 0.3441263650417859
0.10170212765957447 0.32637177476734386 0.3493630783165896
0.10191489361702127 0.3244943298230467 0.36684146936657613
0.10212765957446808 0.32391457552318786 0.3911911499606493
0.10234042553191489 0.32254688039283036 0.42448307770445837
0.1025531914893617 0.32367396379618885 0.45526897214943257
0.10276595744680851 0.3264946070733429 0.4788066065569337
0.10297872340425532 0.32869157492505324 0.4905237684327219
0.10319148936170212 0.3345237256300387 0.4880874288312924
0.10340425531914893 0.3383802503918765 0.47989375173000237
0.10361702127659575 0.33952125061064975 0.4672538363767509
0.10382978723404256 0.34155772492439596 0.4590449778523738
0.10404255319148936 0.34614690277220295 0.45633088544520034
0.10425531914893617 0.3525677796439141 0.4554329462022305
0.10446808510638297 0.3575074309907334 0.4645817536360361
0.10468085106382978 0.36616489999035834 0.4855687349771597
0.1048936170212766 0.3794761312891918 0.509233146175086
0.1051063829787234 0.3948313363202434 0.5277087178541956
0.10531914893617021 0.416861299741348 0.5430999324348269
0.10553191489361702 0.4439108377970484 0.5555853347004991
0.10574468085106382 0.4704875339748786 0.5625251598652554
0.10595744680851064 0.4944246066396951 0.5595330257821534
0.10617021276595745 0.5155023152868228 0.5154210437972128
0.10638297872340426 0.5363993014309543 0.46871013359268376
0.10659574468085106 0.5514656618649503 0.41794188396076853
0.10680851063829787 0.5617106811359932 0.36436930787317406
0.10702127659574467 0.5690748641212428 0.31834316421536424
0.1072340425531915 0.5710050570760421 0.2835764515084703
0.1074468085106383 0.5661445769242895 0.26722032242305804
0.1076595744680851 0.5649088609753246 0.26794022652411237
0.10787234042553191 0.5615068111494236 0.27717744519224213
0.10808510638297872 0.5574010747435272 0.2983836087350344
0.10829787234042552 0.557899475092156 0.32255150546036254
0.10851063829787234 0.5584550497660947 0.347476023868438
0.10872340425531915 0.557120436693943 0.36171252267342513
0.10893617021276596 0.5587471441724358 0.3614940808578878
0.10914893617021276 0.561055874144675 0.3563408895951932
0.10936170212765957 0.5642403517342451 0.3490731699622243
0.10957446808510639 0.5645104360478839 0.3452167014020787
0.1097872340425532 0.5654138251908213 0.3491054721497312
0.11 0.5658815829870693 0.3601979458383491
0.1102127659574468 0.5642403517342451 0.38192766840578296
0.11042553191489361 0.5642403517342451 0.40517139788293943
0.11063829787234042 0.5671576866950108 0.4316799964397648
0.11085106382978724 0.5663271239850641 0.4560243166377786
0.11106382978723404 0.5680326983970014 0.4909412740675107
0.11127659574468085 0.5681458465436909 0.5347454608469272
0.11148936170212766 0.5711464713742759 0.5814214256024696
0.11170212765957446 0.5630367115074161 0.6157262113497592
0.11191489361702127 0.5593551538837322 0.6267708842208108
0.11212765957446809 0.5585956499207718 0.62525187629489
0.1123404255319149 0.5536896356785488 0.6148322034782494
0.1125531914893617 0.5455214393745864 0.5950401363943991
0.1127659574468085 0.5395835268389755 0.5743131790770195
0.11297872340425531 0.5331796666140842 0.5515617703456651
0.11319148936170213 0.5284688482817131 0.5270895430324022
0.11340425531914894 0.5226573057247166 0.4897475398799469
0.11361702127659574 0.5115414878515893 0.44068735815620996
0.11382978723404255 0.5053839400267982 0.3915421519568199
0.11404255319148936 0.5003823278823255 0.3562079726097022
0.11425531914893616 0.4962660832063706 0.3296796297125077
0.11446808510638298 0.49149613163755923 0.3067849741772115
0.11468085106382979 0.48638442620394995 0.29683874960404777
0.1148936170212766 0.475184394505228 0.3054702220067408
0.1151063829787234 0.4585568142922823 0.32861159885607216
0.11531914893617021 0.439313629838823 0.36563263284800146
0.11553191489361703 0.4226264930594896 0.401744165386934
0.11574468085106383 0.41007391235766527 0.4318426290796254
0.11595744680851064 0.39685428641318937 0.4572032173898789
0.11617021276595745 0.3867461252984322 0.4715009074061687
0.11638297872340425 0.3786829594374011 0.4848117640038606
0.11659574468085106 0.37150528825931245 0.4963769994277034
0.11680851063829788 0.3652483410455667 0.5005199750916465
0.11702127659574468 0.36409028388402725 0.5070430505345587
0.11723404255319149 0.3691647553957364 0.5077634818871306
0.1174468085106383 0.37531492543696404 0.502757611480505
0.1176595744680851 0.38345251802207436 0.4936092549472152
0.11787234042553191 0.388486760887529 0.4861001145914061
0.11808510638297873 0.3920003711938824 0.48035545680657615
0.11829787234042553 0.3956421713494941 0.4778312043222207
0.11851063829787234 0.39405635121583155 0.47267818405566275
0.11872340425531915 0.3895898107410803 0.4660384392642809
0.11893617021276595 0.3877543338349272 0.46112969489027084
0.11914893617021277 0.3834210131225712 0.4583720589255664
0.11936170212765958 0.3793972675298471 0.45418189760103966
0.11957446808510638 0.3755430169973639 0.4497980243251607
0.11978723404255319 0.376291778083979 0.4433598221384133
0.12 0.376648754274548 0.4395848813014524
0.1202127659574468 0.368621795423684 0.43204421222701234
0.12042553191489362 0.36407341429709345 0.4294719782770275
0.12063829787234043 0.3559942870402981 0.43451612283650615
0.12085106382978723 0.34786693490032866 0.44731536892282325
0.12106382978723404 0.3408389461766231 0.4520543603290562
0.12127659574468085 0.3311955582873363 0.45468437520795246
0.12148936170212765 0.32559797550145964 0.4573768793718886
0.12170212765957447 0.32235981210248577 0.4544019119842296
0.12191489361702128 0.32193453834880303 0.44768485442270545
0.12212765957446808 0.3177938882476136 0.4406948707645883
0.12234042553191489 0.3140117445989177 0.43614169086174126
0.1225531914893617 0.31259015192136347 0.4344360920017962
0.12276595744680852 0.31521226181548256 0.43679213442687104
0.12297872340425532 0.3164622381039729 0.44982484447701726
0.12319148936170213 0.3201459408113531 0.467942988347405
0.12340425531914893 0.3216513413460925 0.48073889289269084
0.12361702127659574 0.327637411452477 0.4994399905690844
0.12382978723404255 0.33389515675157844 0.5078082002298392
0.12404255319148937 0.3408884693803775 0.5094422986127177
0.12425531914893617 0.3480735869836041 0.49915744587132294
0.12446808510638298 0.35908238178176644 0.47821728434579247
0.12468085106382978 0.3664823872234828 0.4628657346426892
0.12489361702127659 0.37797288173865745 0.44975017170369436
0.1251063829787234 0.3908366308816381 0.448035005151297
0.12531914893617022 0.41299182081802316 0.45396328194577207
0.125531914893617 0.43774978565808914 0.46923649534086587
0.12574468085106383 0.46413677268376485 0.4651450925188351
0.12595744680851065 0.48759621480575055 0.4610521404935177
0.12617021276595744 0.5086750950229119 0.4559932092413991
0.12638297872340426 0.5270305576122214 0.46315924231758265
0.12659574468085105 0.5408646087870665 0.46178031584987606
0.12680851063829787 0.5523421203093111 0.46958145588904227
0.1270212765957447 0.560837010505555 0.4717798428302945
0.12723404255319148 0.5637025910917657 0.47239863214460187
0.1274468085106383 0.5618020972897256 0.46557962939732267
0.1276595744680851 0.5603321934538348 0.45183899636070457
0.12787234042553192 0.5594490325687429 0.43611603664579907
0.1280851063829787 0.5578229134484685 0.42925377667558634
0.12829787234042553 0.5565505103822708 0.43561579200657435
0.12851063829787235 0.5579272603964907 0.4565417085621993
0.12872340425531914 0.5610934629573231 0.4863875370758928
0.12893617021276596 0.5627710469601226 0.5002180419597441
0.12914893617021275 0.5638998131341622 0.5026030634378522
0.12936170212765957 0.565952179409868 0.4991824529783425
0.1295744680851064 0.5661944308744504 0.490105226294504
0.12978723404255318 0.5644296986112045 0.48058354073090576
0.13 0.5623884848971678 0.47674420405849965
0.1302127659574468 0.5606804321264606 0.4785414317900686
0.13042553191489362 0.5591017009890294 0.4862610461695807
0.13063829787234044 0.558264264983833 0.5026682182841223
0.13085106382978723 0.5575272760899594 0.5170269490032402
0.13106382978723405 0.5592696974164377 0.511389048677626
0.13127659574468084 0.5573490140062651 0.4854282284031426
0.13148936170212766 0.5562641456489058 0.43646116484429665
0.13170212765957448 0.5533539869011952 0.38759049423487474
0.13191489361702127 0.550819918245169 0.350588001903704
0.1321276595744681 0.5526139642827756 0.3345379653703753
0.13234042553191488 0.5472062029907725 0.3412191548175647
0.1325531914893617 0.5443028656099166 0.34788706088842225
0.1327659574468085 0.5396378144791971 0.3443888991281853
0.13297872340425532 0.5362021684067981 0.3263252702172357
0.13319148936170214 0.5319868952795023 0.29774469364245987
0.13340425531914893 0.5260717827870743 0.27547457965338074
0.13361702127659575 0.521257601523232 0.26792120391891744
0.13382978723404254 0.5149064372821491 0.27111531302729897
0.13404255319148936 0.5108408940838508 0.2878669884103338
0.13425531914893618 0.5025543852733986 0.31735122369614305
0.13446808510638297 0.49377033206057624 0.348421411650221
0.1346808510638298 0.48646672625628684 0.3839719317998566
0.13489361702127659 0.47568695096343416 0.42941534544040644
0.1351063829787234 0.4634758495587348 0.4768244962447871
0.13531914893617022 0.4445499759308149 0.5223724189570426
0.13553191489361702 0.4245807897621355 0.5640690620765638
0.13574468085106384 0.4121337538921593 0.600430107667222
0.13595744680851063 0.3999283856492555 0.6303411522772
0.13617021276595745 0.38748391305459573 0.6504902530132255
0.13638297872340424 0.3823715694063651 0.6623633882722844
0.13659574468085106 0.3757730443034215 0.6475167067906614
0.13680851063829788 0.37445438169288325 0.5973780617189155
0.13702127659574467 0.37321806327972656 0.5466890067794908
0.1372340425531915 0.37612154519528995 0.5011922375281795
0.13744680851063829 0.3816297794186851 0.45896244181548324
0.1376595744680851 0.38715238299986154 0.415189247872068
0.13787234042553193 0.3926902287016984 0.36977891311700606
0.13808510638297872 0.3945889535511519 0.3518056576511385
0.13829787234042554 0.3950792487693323 0.3444512293784321
0.13851063829787233 0.3944952380964032 0.3481905134017107
0.13872340425531915 0.3935102639684401 0.3560703064254158
0.13893617021276597 0.39083112383377333 0.36172595714137723
0.13914893617021276 0.38757002750940417 0.3666176016279309
0.13936170212765958 0.3843333951590221 0.36840975576684953
0.13957446808510637 0.38098018813821394 0.37119388725094804
0.1397872340425532 0.37686931358996195 0.381471073621578
0.13999999999999999 0.37274109513456816 0.39093714688409925
0.1402127659574468 0.3685558889715073 0.39773810689907313
0.14042553191489363 0.36291422615707836 0.4041854208446021
0.14063829787234042 0.35474664235682757 0.41001940927335256
0.14085106382978724 0.347113088938107 0.41614575086921357
0.14106382978723403 0.3397183550229045 0.4224028334128465
0.14127659574468085 0.3357591696883484 0.43009377591397263
0.14148936170212767 0.328261632816345 0.44013096747947444
0.14170212765957446 0.3228037217167161 0.4575225758758861
0.14191489361702128 0.31864037767713455 0.48553386174307
0.14212765957446807 0.31713640794694037 0.5211343686572805
0.1423404255319149 0.31520750274328113 0.5462837824201485
0.1425531914893617 0.31605018910276195 0.5619545952126548
0.1427659574468085 0.31710556863811623 0.5766044973066224
0.14297872340425533 0.3195579187947579 0.5641083929918229
0.14319148936170212 0.32552201830995653 0.5490624780199084
0.14340425531914894 0.32993290075608384 0.5229401405707212
0.14361702127659573 0.3354377764072497 0.507450912055082
0.14382978723404255 0.3420545902198089 0.5030487644762335
0.14404255319148937 0.34848794333821154 0.5057913141247283
0.14425531914893616 0.35418743898519 0.5075685250606279
0.14446808510638298 0.3604194408091571 0.5076988430770795
0.14468085106382977 0.36912862470591157 0.5103966235622376
0.1448936170212766 0.38177336348873864 0.5056734358450334
0.1451063829787234 0.3958951320238473 0.4976330017253698
0.1453191489361702 0.4188596035466522 0.4889422555837816
0.14553191489361703 0.443812030365399 0.4768379313342687
0.14574468085106382 0.4697520500920802 0.4643900259291223
0.14595744680851064 0.4953412887022489 0.45481902921866074
0.14617021276595746 0.5144933467748762 0.4460815608619194
0.14638297872340425 0.5309946892334884 0.43791174159915996
0.14659574468085107 0.5455939017352124 0.4347555539211209
0.14680851063829786 0.557739691415504 0.4319723935672721
0.14702127659574468 0.5664512360714027 0.4303859306301905
0.14723404255319147 0.570535415897278 0.4325007300989703
0.1474468085106383 0.5703133195420197 0.4379149044381603
0.14765957446808511 0.567615377785424 0.44083742767407164
0.1478723404255319 0.5653781815848749 0.44292665476099713
0.14808510638297873 0.5603895811856764 0.4421218830177899
0.14829787234042552 0.5629708540340665 0.4312459869482626
0.14851063829787234 0.5585025712177839 0.4287866065393172
0.14872340425531916 0.5596999646586244 0.4248685039844672
0.14893617021276595 0.5615955044429739 0.4269071794783348
0.14914893617021277 0.563069719822625 0.42979607574312306
0.14936170212765956 0.5628083794500104 0.43214613048424855
0.14957446808510638 0.5635880393215497 0.4352725575296441
0.1497872340425532 0.5611381660298267 0.43569439886862416
0.15 0.5598023641263713 0.43108099812730305
0.15021276595744681 0.5593337524447748 0.42493730795827533
0.1504255319148936 0.5578702619172997 0.41702190293229746
0.15063829787234043 0.5583923522282237 0.4073471922025129
0.15085106382978725 0.5603231475523331 0.3996317989257133
0.15106382978723404 0.5645445597133921 0.39762877477376746
0.15127659574468086 0.5641558524775304 0.40249925122094166
0.15148936170212765 0.5560868618798701 0.41424880920355966
0.15170212765957447 0.5513285269269266 0.4355078925436534
0.15191489361702126 0.5499434720193749 0.46495683881646127
0.15212765957446808 0.5466893479067493 0.4983404752697663
0.1523404255319149 0.5417848712083743 0.5276289088880062
0.1525531914893617 0.535476405917586 0.5432827290465934
0.15276595744680851 0.5316496352224456 0.5471661314446157
0.1529787234042553 0.5277943118959425 0.5420257003426115
0.15319148936170213 0.5171904954411701 0.5242909644366811
0.15340425531914895 0.5150524041241643 0.497974194129317
0.15361702127659574 0.5090733157647876 0.47339934687824564
0.15382978723404256 0.5045631484866275 0.4577834903881116
0.15404255319148935 0.4989140436485422 0.4429389295783939
0.15425531914893617 0.49293551876511843 0.41988621878777155
0.154468085106383 0.48873391668307653 0.3930464512055611
0.15468085106382978 0.4825625540251872 0.3756762319569763
0.1548936170212766 0.47318574083708415 0.37431963201252183
0.1551063829787234 0.45889338193592044 0.3897705567022769
0.15531914893617021 0.44095244409541523 0.4144617780333583
0.155531914893617 0.42475836350793605 0.44457218358500716
0.15574468085106383 0.41007222158656637 0.46858844207797373
0.15595744680851065 0.3993055343585911 0.48194718387960744
0.15617021276595744 0.3890179596142783 0.486888071160339
0.15638297872340426 0.3811086038146358 0.48250804495009236
0.15659574468085105 0.37713104180511337 0.47563465652999015
0.15680851063829787 0.3737521663378736 0.4643717383058579
0.1570212765957447 0.36906369068512895 0.44874348613004267
0.15723404255319148 0.37295133808570985 0.43726350192488284
0.1574468085106383 0.38023006796523984 0.42550247987920425
0.1576595744680851 0.3866685015475347 0.42012362069115655
0.15787234042553192 0.3910678842194435 0.4233101900328289
0.15808510638297874 0.3942026311246783 0.4370719756995653
0.15829787234042553 0.3972490729419101 0.44936212093817735
0.15851063829787235 0.3985941369480119 0.4578776342609323
0.15872340425531914 0.3940727217546898 0.44846258987677134
0.15893617021276596 0.39302869246267746 0.4337210885110444
0.15914893617021275 0.38989074511272404 0.4204206179273136
0.15936170212765957 0.38410023664877546 0.40451304984881375
0.1595744680851064 0.38262229072211557 0.39673371497512716
0.15978723404255318 0.37953483759781736 0.39319087388573426
0.16 0.37481390358546934 0.3942639546188383
0.1602127659574468 0.370867975775264 0.4021602391636993
0.16042553191489362 0.36567243333776156 0.4139464970240048
0.16063829787234044 0.3586447005841388 0.41919942744144983
0.16085106382978723 0.35489469235097315 0.4218517658805852
0.16106382978723405 0.34379054548323473 0.4277627634088467
0.16127659574468084 0.3358182587456867 0.4333089172559759
0.16148936170212766 0.32738467192688964 0.44396259668826366
0.16170212765957448 0.3224915140862097 0.46277447646685044
0.16191489361702127 0.31928896099857534 0.4831965374887359
0.1621276595744681 0.31713449828645013 0.5000515173722971
0.16234042553191488 0.3160736283275118 0.5232445117696621
0.1625531914893617 0.31720797832985115 0.5532561867736322
0.1627659574468085 0.319878853315452 0.5677185192716395
0.16297872340425532 0.31960358873729716 0.5810000667006897
0.16319148936170214 0.3232968426191302 0.580286005195194
0.16340425531914893 0.3258341220697775 0.5698947711399378
0.16361702127659575 0.33023747366354844 0.55271736810664
0.16382978723404254 0.33540247454231426 0.5344459039423094
0.16404255319148936 0.34093594283994977 0.5128795493518221
0.16425531914893618 0.3470826430367356 0.49270419595085835
0.16446808510638297 0.35374943732961817 0.4806598163815589
0.1646808510638298 0.3626044132082921 0.4777112245316377
0.16489361702127658 0.372853676684633 0.4789134622072359
0.1651063829787234 0.38785494741247467 0.4817493217405962
0.16531914893617022 0.41004501815973005 0.4800552435166037
0.16553191489361702 0.4348242300422376 0.47507855407128635
0.16574468085106384 0.4600020157402899 0.4679898947536226
0.16595744680851063 0.48360540869992835 0.4498017887151635
0.16617021276595745 0.5055359727995158 0.43100671874916274
0.16638297872340424 0.5242143487542734 0.41299457184976707
0.16659574468085106 0.5408669204699177 0.39611402725846534
0.16680851063829788 0.5530436433887023 0.38224255477120583
0.16702127659574467 0.5623760777867254 0.3796784545823466
0.1672340425531915 0.5669549350781814 0.3712737214282686
0.16744680851063828 0.567171470444553 0.3602361771878999
0.1676595744680851 0.5632436348738737 0.34235890219218057
0.16787234042553192 0.5611756068745423 0.3325357691953559
0.16808510638297872 0.5593551538837322 0.3242177349946599
0.16829787234042554 0.5595696901706063 0.3275706132033754
0.16851063829787233 0.5632633121641426 0.3419369267964199
0.16872340425531915 0.5634998974405072 0.3599776846535154
0.16893617021276597 0.5654777127793544 0.3748890822017697
0.16914893617021276 0.567344177078916 0.3830291115982528
0.16936170212765958 0.5687975115145477 0.38738911490514816
0.16957446808510637 0.5710796287249633 0.39554015159439576
0.1697872340425532 0.5707056338275294 0.4029026656877653
0.17 0.5692853449664951 0.4158718651807067
0.1702127659574468 0.5699189724321255 0.4232451250038842
0.17042553191489362 0.5691255495847583 0.43130971090234116
0.17063829787234042 0.5688452064478321 0.4354154614583052
0.17085106382978724 0.5684802195602819 0.4378705376453848
0.17106382978723403 0.5695104343967144 0.4368403228089525
0.17127659574468085 0.5670218791043279 0.43228725512869237
0.17148936170212767 0.5612885350518826 0.4279485061979477
0.17170212765957446 0.5577275892820819 0.425719243820568
0.17191489361702128 0.5546485092960656 0.420587443843874
0.17212765957446807 0.5528498902507769 0.4115881674532217
0.1723404255319149 0.5476427412216516 0.40443320932400045
0.1725531914893617 0.5411887074002417 0.4000368943326151
0.1727659574468085 0.5318053568471491 0.3983197638234545
0.17297872340425532 0.5243435867699657 0.40384400482749405
0.17319148936170212 0.5206265711117359 0.41185788494939146
0.17340425531914894 0.5120385551105981 0.43475926095242556
0.17361702127659576 0.5085720967830895 0.458543740653861
0.17382978723404255 0.5015118853204398 0.47903997520808045
0.17404255319148937 0.49746925054258134 0.47483113521787806
0.17425531914893616 0.49350513411558444 0.4690791448630197
0.17446808510638298 0.490424198648424 0.4685097409271189
0.17468085106382977 0.48625746160611955 0.48105316277287774
0.1748936170212766 0.4764035096380506 0.49743269610656127
0.1751063829787234 0.46174199945791866 0.5117090387153314
0.1753191489361702 0.4452727613285114 0.5236961035184864
0.17553191489361702 0.4288291262006316 0.526556190247165
0.17574468085106382 0.4149712002866344 0.5275858033712492
0.17595744680851064 0.40161580811321507 0.5265153345392954
0.17617021276595746 0.39219369100165175 0.5194504051087871
0.17638297872340425 0.38811541318071546 0.5030398181774528
0.17659574468085107 0.3793780821129172 0.48448859629732155
0.17680851063829786 0.374233665231206 0.4670144886127833
0.17702127659574468 0.3737176355642404 0.46129665753897
0.1772340425531915 0.37438299508628187 0.4640009549135782
0.1774468085106383 0.3782410908000077 0.4733614696183462
0.1776595744680851 0.3848819378880508 0.48691092023140203
0.1778723404255319 0.38881832591850796 0.5019812241211177
0.17808510638297873 0.3935776349980948 0.5173230368946262
0.17829787234042552 0.3924632694153837 0.5201826300700316
0.17851063829787234 0.39043464841346853 0.5082697676919422
0.17872340425531916 0.3894385981870091 0.4951301157026401
0.17893617021276595 0.38663440060795623 0.48936705589031615
0.17914893617021277 0.3816664760145502 0.4804534917065029
0.17936170212765956 0.3786028334147533 0.48419321319895314
0.17957446808510638 0.37846948384491835 0.4874978669869034
0.1797872340425532 0.37606362660838555 0.4788106423066326
0.18 0.3721010505033925 0.46680300346740494
0.1802127659574468 0.37241799305817136 0.45785364982578614
0.1804255319148936 0.366025396625133 0.45428906230604327
0.18063829787234043 0.3585158594539927 0.45442050430437125
0.18085106382978725 0.3505844774182861 0.46068528166358774
0.18106382978723404 0.3430234750676271 0.4712564206512624
0.18127659574468086 0.336943765404713 0.4884030885029425
0.18148936170212765 0.3317022982964292 0.5098869340456461
0.18170212765957447 0.3236494395152282 0.5306682229274131
0.18191489361702126 0.3210191787071025 0.5462218799735846
0.18212765957446808 0.319467885043864 0.5534929164631168
0.1823404255319149 0.31956954058353154 0.5529267955180805
0.1825531914893617 0.31998045920859797 0.5450887109625319
0.1827659574468085 0.3213228726759596 0.5287096808455275
0.1829787234042553 0.322659317601406 0.4855161686545887
0.18319148936170213 0.32600879161131274 0.4189716959505816
0.18340425531914895 0.32929539959512855 0.34886786483577203
0.18361702127659574 0.33395588753943756 0.30658596305396346
0.18382978723404256 0.33817559637617867 0.28725853291248143
0.18404255319148935 0.34414305312897275 0.29884803912800056
0.18425531914893617 0.349355351909375 0.3181378648643668
0.184468085106383 0.35767920294726335 0.33208576076634044
0.18468085106382978 0.36712594606843807 0.33701052280452704
0.1848936170212766 0.3787060861574535 0.33165330767847884
0.1851063829787234 0.3927036580599624 0.32628826221745927
0.1853191489361702 0.41158867127102616 0.33118612815097853
0.185531914893617 0.4394692702326667 0.3448561133127049
0.18574468085106383 0.4647900063272544 0.3608113508590935
0.18595744680851065 0.4904201781864375 0.3752898597195785
0.18617021276595744 0.5120070605581366 0.394194501609065
0.18638297872340426 0.5291852699158859 0.4147235693819961
0.18659574468085105 0.5435872027823586 0.43375175925473713
0.18680851063829787 0.5557811746355198 0.4490197141139906
0.1870212765957447 0.5652249715669342 0.4609278925241295
0.18723404255319148 0.5714637331943507 0.46657144949159823
0.1874468085106383 0.56814465837355 0.4703071768607282
0.1876595744680851 0.566936787206032 0.47216394890608093
0.18787234042553191 0.5631985702283597 0.4731932121878405
0.18808510638297873 0.5605909544318549 0.47168035355251947
0.18829787234042553 0.5585450447478523 0.4723151669274906
0.18851063829787235 0.5602740062448962 0.47713836197276843
0.18872340425531914 0.5594452787878949 0.4893462732269556
0.18893617021276596 0.5636102722400185 0.5048435626458626
0.18914893617021278 0.5678051281979791 0.5218760195574517
0.18936170212765957 0.5652173913043479 0.5342791245769258
0.1895744680851064 0.564999382982625 0.5352521792361014
0.18978723404255318 0.564785473837578 0.5327025244392959
0.19 0.5658737413148864 0.5294325294443473
0.1902127659574468 0.5648529852934334 0.5245461353709535
0.19042553191489361 0.5646570455543757 0.527242238030794
0.19063829787234043 0.5642786904394853 0.5319213685103799
0.19085106382978723 0.5643033372888672 0.5375922129976007
0.19106382978723405 0.5652173913043479 0.540791402051783
0.19127659574468084 0.5641211179616867 0.539695128709122
0.19148936170212766 0.5616193769420347 0.5328095604305156
0.19170212765957448 0.5597980354505209 0.5142017795542875
0.19191489361702127 0.5568469387985913 0.485630996238823
0.1921276595744681 0.5540072681384745 0.45466150080245765
0.19234042553191488 0.5491226792584623 0.4285877253407713
0.1925531914893617 0.5396353641309332 0.41588994532252277
0.19276595744680852 0.5317725605669276 0.413819198439633
0.19297872340425531 0.5260893772331435 0.40983920405115976
0.19319148936170213 0.5205747136179814 0.39915454329678307
0.19340425531914893 0.5150600500028198 0.3884698825424078
0.19361702127659575 0.5102976945292672 0.3777893041301736
0.19382978723404254 0.5069272655090703 0.36711627889955006
0.19404255319148936 0.5029679216568451 0.3598784684433264
0.19425531914893618 0.49849533196310175 0.3578114674948905
0.19446808510638297 0.49366115044912223 0.3653413532896332
0.1946808510638298 0.4894598925867518 0.3905489004638563
0.19489361702127658 0.4785030638145482 0.4061512227657711
0.1951063829787234 0.4664259973791139 0.4198943628684679
0.19531914893617022 0.4500330606079834 0.423751524461675
0.19553191489361701 0.43366952562972916 0.42741695959982984
0.19574468085106383 0.41801360334284415 0.42646811582486716
0.19595744680851063 0.40235768105596115 0.4255192720499046
0.19617021276595745 0.3939858954603362 0.4304104035151693
0.19638297872340427 0.3857592694095724 0.4354179150243298
0.19659574468085106 0.3791312371009174 0.43633792616283684
0.19680851063829788 0.3773284302231938 0.4249201492705873
0.19702127659574467 0.37552562334547046 0.41350237237833926
0.1972340425531915 0.3737228164677469 0.4020845954860897
0.19744680851063828 0.378690519191117 0.39346225683261027
0.1976595744680851 0.3836777350709708 0.38484797485831723
0.19787234042553192 0.38907403952553804 0.3777268204025547
0.19808510638297872 0.39302977584713966 0.3707240817604398
0.19829787234042554 0.3945539528363037 0.3668567779031465
0.19851063829787233 0.39494244340181106 0.3688324377137273
0.19872340425531915 0.3935253285875127 0.3707853170731529
0.19893617021276597 0.389552208137862 0.3811300732211006
0.19914893617021276 0.38495266538036776 0.3911856875300208
0.19936170212765958 0.3810021072281413 0.40826062141277925
0.19957446808510637 0.3779510368196268 0.43266918468089544
0.1997872340425532 0.3748999664111118 0.4570777479490148
0.2 0.3730284653297159 0.47288286150249503
0.2002127659574468 0.3718974010916741 0.4820753100746189
0.20042553191489362 0.3672642877394954 0.4849457748895462
0.20063829787234042 0.363138213669201 0.4851001465559355
0.20085106382978724 0.35408297624120433 0.48514037566492874
0.20106382978723403 0.34780808839039573 0.4878296133152753
0.20127659574468085 0.33968891457761174 0.49472383628586974
0.20148936170212767 0.33446989728102855 0.49890331714670305
0.20170212765957446 0.3304169636461164 0.5019171064700861
0.20191489361702128 0.3272807923482109 0.5040078873353565
0.20212765957446807 0.32510577146043873 0.5053778631267619
0.2023404255319149 0.3243185399762383 0.5034216126356071
0.2025531914893617 0.3216916146318242 0.49816337419164397
0.2027659574468085 0.3224816287720175 0.4930336043930824
0.20297872340425532 0.32242248776203336 0.4943791706128048
0.20319148936170212 0.3240146820906175 0.500133933912302
0.20340425531914894 0.32486565705911086 0.5088979272141715
0.20361702127659576 0.32900280462382225 0.5172839266776379
0.20382978723404255 0.3307278944797265 0.517778541018928
0.20404255319148937 0.33486016760278153 0.518168906993932
0.20425531914893616 0.34191059202234103 0.517419849126266
0.20446808510638298 0.3463298212369896 0.5163730893903129
0.20468085106382977 0.3539117891344229 0.5159820365071908
0.2048936170212766 0.3673183764403304 0.5089188254783956
0.2051063829787234 0.37925618643754744 0.503802621193874
0.2053191489361702 0.3971168672141798 0.49438833505741986
0.20553191489361702 0.423171555676006 0.48057151487885186
0.20574468085106382 0.4483620009445051 0.46355971926784095
0.20595744680851064 0.47355440961316625 0.43925416904004394
0.20617021276595746 0.49641202597213224 0.41789071393137406
0.20638297872340425 0.519523093773878 0.40949621338145353
0.20659574468085107 0.5363122875992133 0.4102138804000476
0.20680851063829786 0.5508795695548303 0.4077551346168202
0.20702127659574468 0.5617676362800784 0.3989215792877474
0.2072340425531915 0.5666256944826972 0.3898454849224803
0.2074468085106383 0.5681485100146555 0.3895845897638471
0.2076595744680851 0.5639581473003927 0.40736740489742784
0.2078723404255319 0.561540530681846 0.43763999912866014
0.20808510638297872 0.5629151057021368 0.4715384233720173
0.20829787234042554 0.5606525577918146 0.501650870803509
0.20851063829787234 0.5622134586965538 0.5187504272783796
0.20872340425531916 0.5644089028324085 0.5262369391591424
0.20893617021276595 0.5692932476086362 0.5299054173299419
0.20914893617021277 0.57093647201504 0.5406983601405809
0.20936170212765956 0.5711575481299485 0.5530157798880342
0.20957446808510638 0.5741522980449546 0.5586566106337694
0.2097872340425532 0.5724050782340314 0.5548258246771803
0.21 0.572617868139974 0.542079402495258
0.2102127659574468 0.5735023664736045 0.526268216344346
0.2104255319148936 0.5711667804264708 0.5059941092279107
0.21063829787234042 0.5675365732916907 0.48189130617018494
0.21085106382978724 0.5678509712411267 0.44861610426452003
0.21106382978723404 0.5703752885118715 0.40851186722813193
0.21127659574468086 0.5702693537870563 0.3707610415601621
0.21148936170212765 0.5683384632793896 0.34375476892766466
0.21170212765957447 0.5643414640516915 0.3291024303712219
0.2119148936170213 0.561290803164212 0.3288014601291096
0.21212765957446808 0.5553841477667217 0.3387612803658477
0.2123404255319149 0.5532982966311227 0.35808368897255477
0.2125531914893617 0.5454814779478865 0.37546944375976354
0.2127659574468085 0.5413201402096676 0.39737349950731155
0.2129787234042553 0.5295447775299916 0.4092989470609534
0.21319148936170212 0.5225245871351992 0.41258656468952204
0.21340425531914894 0.5142138265686654 0.4054485221190489
0.21361702127659574 0.5109784678246286 0.3905380539214994
0.21382978723404256 0.507084442285569 0.3748590240665688
0.21404255319148935 0.5027257255826301 0.3675944962283374
0.21425531914893617 0.4981568030369772 0.37229674818268377
0.214468085106383 0.4937184480132719 0.3902255420538162
0.21468085106382978 0.4895471448080479 0.41023972850275925
0.2148936170212766 0.48097581791152016 0.42797169367079246
0.2151063829787234 0.4674467212453943 0.4447307640121217
0.2153191489361702 0.45015966214260095 0.45652874661463344
0.21553191489361703 0.43346453832368753 0.4660644599551912
0.21574468085106382 0.4182754584807468 0.472994649815784
0.21595744680851064 0.4054271119066585 0.4774614398187706
0.21617021276595744 0.39492341139343984 0.481336535632054
0.21638297872340426 0.3834012411670994 0.4870368676765074
0.21659574468085105 0.37530824446478334 0.48541826833604407
0.21680851063829787 0.37063459755910033 0.4763648722080388
0.2170212765957447 0.36880099512387354 0.46619402405501603
0.21723404255319148 0.372230505638533 0.4578652128051288
0.2174468085106383 0.376339178553323 0.4490402952669366
0.2176595744680851 0.38218150956035335 0.4389489962547933
0.2178723404255319 0.38706909644310195 0.43308462276369397
0.21808510638297873 0.39075088748225983 0.43255865261524284
0.21829787234042553 0.39228138739618945 0.43266512912722566
0.21851063829787234 0.39228138739618945 0.4332215491861362
0.21872340425531914 0.3899319487299088 0.4362538476733491
0.21893617021276596 0.3867028048849346 0.4394550653641446
0.21914893617021278 0.3837109816989651 0.44301858874232813
0.21936170212765957 0.3814792612574728 0.4477381144813167
0.2195744680851064 0.3780931768695352 0.4529851361637937
0.21978723404255318 0.3742065962023311 0.45798707805906885
0.22 0.37199890019563775 0.4600180458105404
0.2202127659574468 0.3684208993668845 0.46638243184756933
0.2204255319148936 0.3656324063628681 0.47195941785560214
0.22063829787234043 0.3611680974174425 0.47587979305862077
0.22085106382978723 0.35457717836038 0.47728382999511476
0.22106382978723405 0.34616095692602716 0.4767188557144644
0.22127659574468084 0.3382789975050211 0.4763067904250122
0.22148936170212766 0.3343407846596952 0.4756706365897402
0.22170212765957448 0.32826248636617883 0.4699332240310544
0.22191489361702127 0.3237862994534372 0.4613442427667598
0.2221276595744681 0.3216120492873252 0.4580703138473753
0.22234042553191488 0.3190490165942113 0.45328991349592157
0.2225531914893617 0.3180263800683927 0.4490054588936026
0.22276595744680852 0.31861647975604457 0.4485627425796889
0.2229787234042553 0.31900341963849543 0.4533516421645473
0.22319148936170213 0.32050781804682626 0.46228212652017375
0.22340425531914893 0.32308039059339655 0.47247879402066073
0.22361702127659575 0.32593757349167124 0.48278754814356756
0.22382978723404254 0.3304835064702989 0.49200602823398776
0.22404255319148936 0.3393208127977577 0.49280941971830217
0.22425531914893618 0.34503197148346443 0.49593891731856427
0.22446808510638297 0.35117502365582554 0.4995757619997138
0.2246808510638298 0.3581659912676324 0.5056989663531234
0.22489361702127658 0.36875261535984527 0.5121594602016357
0.2251063829787234 0.3839929508363482 0.514926082332899
0.22531914893617022 0.4013359150049563 0.5088580606324317
0.225531914893617 0.42339082966935626 0.4964140135971734
0.22574468085106383 0.4501349164704954 0.47999565720431636
0.22595744680851063 0.4753700680418142 0.4577027214061585
0.22617021276595745 0.49788834728229336 0.42325021560703313
0.22638297872340427 0.5180504461515396 0.38554049628984016
0.22659574468085106 0.535243939044484 0.35891487865921645
0.22680851063829788 0.5499111233862526 0.34654614084316443
0.22702127659574467 0.5615905829523731 0.34446969297404145
0.2272340425531915 0.5700413357300762 0.3463452142451718
0.22744680851063828 0.5718755263571935 0.3496992156718882
0.2276595744680851 0.5682295867185996 0.35922007629781627
0.22787234042553192 0.5684670835219264 0.3747925003130616
0.22808510638297871 0.5644155525391207 0.39861548665828367
0.22829787234042553 0.5648287737521852 0.42235332253450486
0.22851063829787233 0.5630907491292375 0.439123401004865
0.22872340425531915 0.5628104081156327 0.44860160551794825
0.22893617021276597 0.567171470444553 0.4536453990096337
0.22914893617021276 0.567171470444553 0.44227367726399874
0.22936170212765958 0.569103963920011 0.4331227783577729
0.22957446808510637 0.5682193427395907 0.4241695295848987
0.2297872340425532 0.5694789570608996 0.41916728539087345
0.23 0.5717643505557859 0.41719192577505165
0.2302127659574468 0.5699895235012813 0.4260660610475751
0.23042553191489362 0.5691255495847583 0.43568773496892904
0.23063829787234041 0.5696079080844992 0.45270996989510326
0.23085106382978723 0.5701025891548608 0.4851966351942724
0.23106382978723405 0.5684932841360634 0.5299492136949082
0.23127659574468085 0.5665968134661585 0.5808463432210302
0.23148936170212767 0.5643069865179962 0.624017187675594
0.23170212765957446 0.5632633121641426 0.6453477210867754
0.23191489361702128 0.5603726498908972 0.646352132059925
0.23212765957446807 0.5562734819196434 0.6276150222592496
0.2323404255319149 0.551331621194998 0.602285853898781
0.2325531914893617 0.5452880951118902 0.5650366199620175
0.2327659574468085 0.5400230792503491 0.519220903287338
0.23297872340425532 0.5335850069858498 0.48174613525028837
0.23319148936170211 0.5264730482788792 0.4364620589161106
0.23340425531914893 0.5221678856197594 0.3890846482411056
0.23361702127659575 0.5131202292413818 0.3485413292203704
0.23382978723404255 0.5070281641683071 0.3155244745684481
0.23404255319148937 0.5015909916030524 0.29461515520055065
0.23425531914893616 0.49499320334256275 0.29140098950442017
0.23446808510638298 0.49034579915185805 0.30069579788582945
0.2346808510638298 0.48417220279485984 0.31240799615609977
0.2348936170212766 0.47836146856398776 0.32196898786479117
0.2351063829787234 0.4685820388942601 0.3297718601821003
0.2353191489361702 0.45258119835634647 0.341249327192084
0.23553191489361702 0.43557671768477263 0.3608597431412893
0.23574468085106381 0.41937561576862387 0.385790738277699
0.23595744680851063 0.40491513052781186 0.41454473817005727
0.23617021276595745 0.3932444947716849 0.4396007534172908
0.23638297872340425 0.38810996103929535 0.4578444155741731
0.23659574468085107 0.37873420022476684 0.4711006397690112
0.23680851063829786 0.371657300846608 0.48252666966592805
0.23702127659574468 0.3672573567707742 0.5000043273600456
0.2372340425531915 0.3678079089995251 0.5184417269157322
0.2374468085106383 0.37766612759767126 0.5399555306172521
0.2376595744680851 0.38369008956991724 0.5610899120962762
0.2378723404255319 0.3875964968099856 0.5757890160626098
0.23808510638297872 0.3892006838224009 0.5841503673375226
0.23829787234042554 0.3885755847352058 0.5889668366445711
0.23851063829787233 0.38935026868588185 0.5748597158296481
0.23872340425531915 0.38842997330191703 0.5647971378040839
0.23893617021276595 0.38533965312461366 0.5670690131636952
0.23914893617021277 0.3823253474884472 0.5710308101884426
0.23936170212765956 0.37973384147065575 0.5848114113617028
0.23957446808510638 0.3776738398606797 0.5878814854808234
0.2397872340425532 0.3761315038034561 0.5646428757058953
0.24 0.3756717147044455 0.510814171723936
0.2402127659574468 0.37289861720821266 0.43988574647449796
0.2404255319148936 0.36920295994496344 0.36787591052649
0.24063829787234042 0.36519157195415264 0.3143909737201483
0.24085106382978724 0.35729992430061913 0.292405300702995
0.24106382978723404 0.3489297748446916 0.2972552524601038
0.24127659574468086 0.34503660988716917 0.31894271837423516
0.24148936170212765 0.33653002993561365 0.35188106787151713
0.24170212765957447 0.32828989728540614 0.38709468411824305
0.2419148936170213 0.3243587763106687 0.42048570534863383
0.24212765957446808 0.3212661065037291 0.45172584263246934
0.2423404255319149 0.3172285232648532 0.47532128520891553
0.2425531914893617 0.3160815961894511 0.49487983751822495
0.2427659574468085 0.3180263800683927 0.49663765125853465
0.2429787234042553 0.3186104777551842 0.49284212685063405
0.24319148936170212 0.32358678399617175 0.4825681237661881
0.24340425531914894 0.32744544579792884 0.4668988652789244
0.24361702127659574 0.33104114721839006 0.45022206184810715
0.24382978723404256 0.33650319860128514 0.4345548888077715
0.24404255319148935 0.3423150468464262 0.42075285740369583
0.24425531914893617 0.3478876969233902 0.41851915251623184
0.244468085106383 0.3545092206369427 0.4238344177398558
0.24468085106382978 0.3621838384525174 0.43355539650238334
0.2448936170212766 0.37209510220034026 0.44646062478690524
0.2451063829787234 0.38449692140411695 0.45172068721743225
0.2453191489361702 0.4002133620621658 0.44527446141756866
0.24553191489361703 0.42209638756442885 0.4307408505088962
0.24574468085106382 0.4470367485384552 0.4178633660462691
0.24595744680851064 0.4732805023538977 0.40907065674819754
0.24617021276595744 0.4947471770860129 0.40693698094772834
0.24638297872340426 0.5143346680605518 0.40857445121332636
0.24659574468085105 0.5330313083489263 0.41673548807773625
0.24680851063829787 0.5460581875798762 0.4204666719560341
0.2470212765957447 0.5564948659986593 0.4235545237311651
0.24723404255319148 0.5652173913043479 0.4248178627586069
0.2474468085106383 0.5651376621945812 0.43028591126752175
0.2476595744680851 0.5638338453620257 0.4413758454478749
0.2478723404255319 0.5613092330239375 0.45104992579507086
0.24808510638297873 0.5613092330239375 0.45994097213414203
0.24829787234042552 0.5604290205367817 0.4580335198419032
0.24851063829787234 0.5594151813873222 0.447732532877678
0.24872340425531914 0.5613092330239375 0.436171259093338
0.24893617021276596 0.5630830462589819 0.4303859306301905
0.24914893617021278 0.5657045755735469 0.43330903624538475
0.24936170212765957 0.5667349954681933 0.4373292972382919
0.2495744680851064 0.5701455856446118 0.44117636239107005
0.24978723404255318 0.5694719529596808 0.4450259815430629
0.25 0.567450671625501 0.45439262442168615
0.2502127659574468 0.5686652570293995 0.46371818493244893
0.25042553191489364 0.5675316101676394 0.47352905223947767
0.25063829787234043 0.5663207649203691 0.4846875116209326
0.2508510638297872 0.5661944308744504 0.4906066772085358
0.251063829787234 0.5671523785265598 0.496710069889207
0.25127659574468086 0.5661589699622758 0.4937871199503348
0.25148936170212766 0.5650344012064661 0.49068789882972835
0.25170212765957445 0.5625279069787422 0.4868546169696027
0.2519148936170213 0.5579814258041254 0.48061163721492695
0.2521276595744681 0.5554058888563512 0.47962366205294454
0.2523404255319149 0.5510016919777239 0.4675532404156731
0.2525531914893617 0.5458403101394342 0.45175296609437293
0.2527659574468085 0.5396452870984604 0.43456191128432226
0.2529787234042553 0.5349291646311676 0.4136203661316906
0.2531914893617021 0.5304794090771509 0.39137236976757556
0.25340425531914895 0.5226729151540415 0.3731339551073329
0.25361702127659574 0.5163938461605468 0.36397567322454294
0.25382978723404254 0.5110031953425448 0.35250727554062666
0.2540425531914894 0.5042669587378529 0.34207839010082314
0.2542553191489362 0.49748984288689047 0.3374112624302552
0.25446808510638297 0.492096452081687 0.3388408097475682
0.25468085106382976 0.4877531039990061 0.34593981056573975
0.2548936170212766 0.4810592587713187 0.3601839248675176
0.2551063829787234 0.4703119585275926 0.3799985974099728
0.2553191489361702 0.4523927588243628 0.3881741344733676
0.25553191489361704 0.43481657728628553 0.3882823188768955
0.25574468085106383 0.4146708993429981 0.38568749899189203
0.2559574468085106 0.4019429813094298 0.40400695049740454
0.2561702127659574 0.3924208200655787 0.4432274842415401
0.25638297872340426 0.37962525330380154 0.4937693881661426
0.25659574468085106 0.374661552937423 0.5438881317466905
0.25680851063829785 0.36914175842061586 0.5754934175100114
0.2570212765957447 0.3670824103731106 0.5900298744421696
0.2572340425531915 0.368003058997165 0.5880983321345208
0.2574468085106383 0.3737524567456801 0.5779788915252626
0.25765957446808513 0.3811544721274488 0.5633914473752114
0.2578723404255319 0.3903702751968128 0.5519886868612173
0.2580851063829787 0.3968493473602016 0.5372640177690405
0.2582978723404255 0.39754672351525294 0.518322703782613
0.25851063829787235 0.3997641768312659 0.49849225702588856
0.25872340425531914 0.4003722881705723 0.47227067356351926
0.25893617021276594 0.3965188460118247 0.4470459116523723
0.2591489361702128 0.39163892432909275 0.4231342954069855
0.2593617021276596 0.3863586307139357 0.40546279027961657
0.25957446808510637 0.38379938323429197 0.39810064115377986
0.2597872340425532 0.37996686230625976 0.3985750528303051
0.26 0.3770929898844636 0.39836574262176283
0.2602127659574468 0.37421855938453596 0.39247317007344323
0.2604255319148936 0.37024366463417263 0.3878303768960191
0.26063829787234044 0.36796378976226096 0.3929332521103836
0.26085106382978723 0.36489562881759474 0.41384310937513163
0.261063829787234 0.35612292729621564 0.434318076929135
0.2612765957446809 0.3478560234859302 0.45871752801130394
0.26148936170212767 0.33984863024845563 0.47511064787248636
0.26170212765957446 0.33402781170166645 0.4826517668158541
0.26191489361702125 0.328994893033433 0.4944283868691377
0.2621276595744681 0.3250693674636547 0.5065573565041157
0.2623404255319149 0.32454866573416163 0.5272031527669693
0.2625531914893617 0.3203355975928142 0.5536729397362723
0.26276595744680853 0.320811967562272 0.5807751403614587
0.2629787234042553 0.3230556809397435 0.5943686345987065
0.2631914893617021 0.32099532870577036 0.5965961473288401
0.26340425531914896 0.3246561727595932 0.583680588007444
0.26361702127659575 0.3310549754738882 0.5658631464679059
0.26382978723404255 0.3333075717864684 0.547468788719531
0.26404255319148934 0.3410922824954384 0.5266006151960113
0.2642553191489362 0.34222497334713603 0.5151834624802333
0.264468085106383 0.35007563180232565 0.5142161397299534
0.26468085106382977 0.3547311843319318 0.5169197529689615
0.2648936170212766 0.36768957822680365 0.5156710264367192
0.2651063829787234 0.3802640531165185 0.498835294827359
0.2653191489361702 0.3954269019974304 0.4681125249942697
0.265531914893617 0.41780686269884765 0.4057277152948847
0.26574468085106384 0.4474509366913703 0.34909276489484387
0.26595744680851063 0.47494324430837526 0.29012435909932716
0.2661702127659574 0.49905881850417105 0.24920659892752736
0.2663829787234043 0.5186365903506468 0.2269451522407499
0.26659574468085107 0.5348338393170092 0.22671686853834433
0.26680851063829786 0.5498160095116224 0.23656787142842198
0.2670212765957447 0.5577842587648281 0.2696172982334974
0.2672340425531915 0.566224568409643 0.31911355356293325
0.2674468085106383 0.5686781136336758 0.37831076035439554
0.2676595744680851 0.565643981664844 0.4379959194684776
0.26787234042553193 0.5626150498953355 0.4909159223076324
0.2680851063829787 0.5565272775789957 0.5260445305746638
0.2682978723404255 0.5592616903747764 0.5423159529920031
0.26851063829787236 0.561609170813272 0.5443223963407599
0.26872340425531915 0.5620346166687712 0.5284894642205832
0.26893617021276595 0.5615746761559235 0.5096843574657198
0.26914893617021274 0.5657529866839115 0.49427217941804785
0.2693617021276596 0.5639828139993333 0.4758162658617576
0.2695744680851064 0.5641141594701609 0.45708338063627235
0.26978723404255317 0.566942542315122 0.4521097293018785
0.27 0.5690797014221269 0.4385231843294301
0.2702127659574468 0.5661143166188969 0.4208715461992854
0.2704255319148936 0.5633029294423212 0.39498272589306177
0.27063829787234045 0.567871817682616 0.3684831740993514
0.27085106382978724 0.5672806713092382 0.3451823909380899
0.27106382978723403 0.5685915638055101 0.33535190251617203
0.2712765957446808 0.566823654165657 0.3361348167485835
0.2714893617021277 0.5642214220532815 0.34700994967461046
0.27170212765957447 0.5610419247362608 0.37248070566976904
0.27191489361702126 0.5571465298139961 0.40721638462880544
0.2721276595744681 0.5537053542559776 0.444329596160059
0.2723404255319149 0.5487442103902498 0.48376992747540043
0.2725531914893617 0.5417109946346392 0.5155750759376668
0.2727659574468085 0.5367686743195599 0.5433724139472654
0.27297872340425533 0.5303667725285255 0.5609864272760665
0.2731914893617021 0.5228170878700144 0.5661944308744504
0.2734042553191489 0.5181948098305478 0.5641156696253695
0.27361702127659576 0.5129451448433394 0.547465111451898
0.27382978723404255 0.506766353970862 0.5119711010531003
0.27404255319148935 0.5032832041028957 0.4686103830827986
0.2742553191489362 0.49759146224210565 0.42376075240574845
0.274468085106383 0.5005074872990136 0.3879463891846122
0.2746808510638298 0.49178587410511937 0.36499404355412773
0.27489361702127657 0.4831512430674211 0.3534505340492251
0.2751063829787234 0.4740770428273525 0.3585165311473086
0.2753191489361702 0.45733126552559444 0.3751064482018115
0.275531914893617 0.44172122244150347 0.4018302164675422
0.27574468085106385 0.4243253046197232 0.43605971504705854
0.27595744680851064 0.40924096973028967 0.47129469096759036
0.27617021276595743 0.3965001743322142 0.5015050687580064
0.2763829787234042 0.3886270222679805 0.5219370378408017
0.2765957446808511 0.3796807582054754 0.5425134451845632
0.27680851063829787 0.3758659055269252 0.5501734161078495
0.27702127659574466 0.3700009575676604 0.53496721562665
0.2772340425531915 0.3702777608430124 0.5127159789896856
0.2774468085106383 0.3746951818249207 0.47982018069087484
0.2776595744680851 0.3808572082899622 0.43407102397202807
0.27787234042553194 0.3873919202200879 0.3899348028688419
0.27808510638297873 0.39184219336341997 0.3599850180927566
0.2782978723404255 0.393471664393645 0.3447618441734173
0.2785106382978723 0.3958640315835665 0.3487491228232866
0.27872340425531916 0.3919926313853528 0.3597839320397933
0.27893617021276595 0.3886435940027961 0.38415181090147404
0.27914893617021275 0.3845062520146706 0.4164602895729433
0.2793617021276596 0.37882629183530575 0.4542485236198169
0.2795744680851064 0.37340814443968096 0.49801401969898035
0.2797872340425532 0.37078499372316714 0.5163760747145771
0.27999999999999997 0.36686220205774017 0.5355832457395137
0.2802127659574468 0.3643674521365152 0.54984762102691
0.2804255319148936 0.36139083788512694 0.5590714795937769
0.2806382978723404 0.3572228500368196 0.5563663422545853
0.28085106382978725 0.35192551074410133 0.5436184149035831
0.28106382978723404 0.34468519134558845 0.5324288303786088
0.28127659574468084 0.3365597337243715 0.5119453304823932
0.2814893617021277 0.33306858071170053 0.4959554071762931
0.2817021276595745 0.33268197361993157 0.48574991983165056
0.28191489361702127 0.3276602429150643 0.4784027298169773
0.28212765957446806 0.3235128326910008 0.4634549589279657
0.2823404255319149 0.3250599498891925 0.45058179869210685
0.2825531914893617 0.32275861952341056 0.4294681802572202
0.2827659574468085 0.3178279668289247 0.40891872143403735
0.28297872340425534 0.32057299520275795 0.3883416678552869
0.28319148936170213 0.3200057930857623 0.3635782133450568
0.2834042553191489 0.3250881265098889 0.34628637111777527
0.2836170212765957 0.3311317170003591 0.3459207829135349
0.28382978723404256 0.3351177579731497 0.36307625212114203
0.28404255319148936 0.33938832063615904 0.3898620533452673
0.28425531914893615 0.3468357033735015 0.4207202035553453
0.284468085106383 0.3526732372098663 0.4543697045891472
0.2846808510638298 0.358287493377607 0.48084603158040595
0.2848936170212766 0.36629125964819176 0.4958470348375209
0.2851063829787234 0.37847926532715553 0.5031135945590345
0.2853191489361702 0.39261502772379675 0.503543660151151
0.285531914893617 0.41643681203967825 0.4954830708211725
0.2857446808510638 0.44151458276209243 0.4845342063764038
0.28595744680851065 0.4653540438980729 0.4722534870948258
0.28617021276595744 0.4870223980784571 0.45591371688489907
0.28638297872340424 0.5086289163566999 0.4404287927757157
0.2865957446808511 0.5280644290119558 0.4225950726978633
0.2868085106382979 0.5407024241300997 0.40643656202359507
0.28702127659574467 0.5578324112283165 0.3926986897555466
0.28723404255319146 0.5567254124243384 0.3850247714442089
0.2874468085106383 0.5629229392947147 0.4001164834484112
0.2876595744680851 0.5594761213090795 0.42770604693790165
0.2878723404255319 0.5564044107526469 0.4593007685797162
0.28808510638297874 0.5574990232647642 0.48742806459937055
0.28829787234042553 0.5553852201824933 0.50294176872
0.2885106382978723 0.5583781143136297 0.5081895003217602
0.28872340425531917 0.5599112019141651 0.5096611922992631
0.28893617021276596 0.5617487423741973 0.5148745559452362
0.28914893617021276 0.5625408516393016 0.5192311569033106
0.28936170212765955 0.5635825175924984 0.5237632992895592
0.2895744680851064 0.5671596972975336 0.5301028325157519
0.2897872340425532 0.5664634611310995 0.5349291646311676
0.29 0.569240132242583 0.5333120579206466
0.2902127659574468 0.5629758322856281 0.5185496718506586
0.2904255319148936 0.565230610305511 0.5064069379606105
0.2906382978723404 0.5625964203886955 0.4880006945884052
0.2908510638297872 0.5640213519126672 0.4734346514835982
0.29106382978723405 0.5643210488663625 0.47447809397533103
0.29127659574468084 0.5643063637877709 0.48549621887708927
0.29148936170212764 0.5670097838286501 0.4927547765008533
0.2917021276595745 0.5688185353168654 0.4858531990603407
0.2919148936170213 0.5632136413283012 0.4570434177556854
0.29212765957446807 0.5572680707741714 0.3996475030149942
0.2923404255319149 0.5538067769004883 0.3396223615000928
0.2925531914893617 0.5478433430316861 0.28281285230715947
0.2927659574468085 0.5414890108841468 0.2513082585636777
0.2929787234042553 0.5318339644068427 0.24247361965645906
0.29319148936170214 0.5279587657578764 0.2574818980511349
0.29340425531914893 0.5189225155686183 0.29426442326197716
0.2936170212765957 0.5126388717735971 0.34699957529557296
0.29382978723404257 0.5084809250593433 0.4036423632788075
0.29404255319148936 0.5022268955132034 0.4546982038970346
0.29425531914893616 0.4964511801883798 0.49781204049674976
0.29446808510638295 0.49069629737713955 0.5358154256097423
0.2946808510638298 0.48682715755678596 0.566442266115108
0.2948936170212766 0.4794059178052879 0.580944627138029
0.2951063829787234 0.47187816280353556 0.5724706391160824
0.29531914893617023 0.4566207272901146 0.5376379465688934
0.295531914893617 0.44049180280375927 0.49609082604044324
0.2957446808510638 0.42843711859684513 0.4533661121783256
0.29595744680851066 0.4149796955230069 0.4187106312882456
0.29617021276595745 0.40400931946990054 0.4031069049078859
0.29638297872340424 0.39351533605261285 0.3972179670639666
0.29659574468085104 0.38248853585644854 0.3957677813336182
0.2968085106382979 0.3752750458381913 0.39977527578820554
0.2970212765957447 0.3765859523707589 0.40117843380639073
0.29723404255319147 0.37864270859961324 0.4023537230800217
0.2974468085106383 0.38069946482846806 0.40352901235365307
0.2976595744680851 0.3842612082837702 0.40673311839612963
0.2978723404255319 0.38885046106116744 0.411322371173527
0.29808510638297875 0.3923095576432804 0.4155353751185351
0.29829787234042554 0.3944699188733754 0.41931600727120144
0.29851063829787233 0.3948526607186721 0.4198958441535142
0.2987234042553191 0.39430433917634883 0.41879920106886764
0.298936170212766 0.38979309888162217 0.4256423192464591
0.29914893617021276 0.38700959183099204 0.4344346613509869
0.29936170212765956 0.38571225700350664 0.44324143422672935
0.2995744680851064 0.3820547026508998 0.4490935211909004
0.2997872340425532 0.3781257979948853 0.4448144908369787
0.3 0.375418521776521 0.43606950734282923
0.3002127659574468 0.37475650644031244 0.4228292006186565
0.30042553191489363 0.3729110666755101 0.40018927299327395
0.3006382978723404 0.36989699816692545 0.37823844002631857
0.3008510638297872 0.3674992726188887 0.3711070298261951
0.30106382978723406 0.35760647977338067 0.37957987298485585
0.30127659574468085 0.35089122015384505 0.3808797257443203
0.30148936170212765 0.3466842165767673 0.3934069341228396
0.3017021276595745 0.33687380000050976 0.40693698094772834
0.3019148936170213 0.3269707206362569 0.41114420192201195
0.3021276595744681 0.32217112016467514 0.42172622156051054
0.30234042553191487 0.320520860827321 0.42791303315326756
0.3025531914893617 0.31998045920859797 0.43131746371280416
0.3027659574468085 0.31998045920859797 0.42259518935966256
0.3029787234042553 0.3193432118344059 0.41322368459951186
0.30319148936170215 0.32321598175818866 0.40312210867536763
0.30340425531914894 0.32563329226598353 0.40393587999137376
0.30361702127659573 0.3300253296509868 0.4141846944554243
0.3038297872340425 0.3316261616543112 0.4363904820941008
0.3040425531914894 0.3364009701008115 0.45698639139494124
0.30425531914893617 0.3396827074494267 0.48165329352917347
0.30446808510638296 0.34698871083645544 0.5019891461477519
0.3046808510638298 0.3549274054517536 0.5162959891422871
0.3048936170212766 0.3669014200041869 0.5263468213674566
0.3051063829787234 0.38093821167966774 0.5275545037816824
0.30531914893617024 0.39648668330198833 0.5280156032341022
0.30553191489361703 0.41728506424876016 0.52359692830832
0.3057446808510638 0.44554677103456386 0.5195499568697457
0.3059574468085106 0.4691320703360239 0.5211909992533057
0.30617021276595746 0.49195085317104 0.5312141846077778
0.30638297872340425 0.5119466498784263 0.5481489400755245
0.30659574468085105 0.5303613189160109 0.5719722660627458
0.3068085106382979 0.5457839441852038 0.5919467891551118
0.3070212765957447 0.556491174734137 0.6000949757761013
0.3072340425531915 0.5657385027893653 0.6027863773771731
0.30744680851063827 0.5681485100146555 0.601045944030476
0.3076595744680851 0.5665698498275847 0.5956548352668284
0.3078723404255319 0.5653651708402804 0.5895530182024049
0.3080851063829787 0.5643438940530123 0.5703228987087663
0.30829787234042555 0.5623847748819348 0.5505205299177065
0.30851063829787234 0.5603349545657252 0.5290959188854019
0.30872340425531913 0.5603831457750426 0.5125171523071702
0.308936170212766 0.5615970539955473 0.4931612527587068
0.3091489361702128 0.5642403517342451 0.46236735837626125
0.30936170212765957 0.5650253542439473 0.4211747918422655
0.30957446808510636 0.5681485100146555 0.3868704730993193
0.3097872340425532 0.5699354307920993 0.35250999916207426
0.31 0.5726077329900525 0.33020134563304676
0.3102127659574468 0.5709072936697231 0.3134281701814095
0.31042553191489364 0.5711477793249755 0.30552931745709566
0.31063829787234043 0.5701025891548608 0.3089887499819321
0.3108510638297872 0.5701025891548608 0.3229690990527798
0.311063829787234 0.5694836039828662 0.34548641498337457
0.31127659574468086 0.5678061805385268 0.3802218956106868
0.31148936170212765 0.5659966902556114 0.41342743079713906
0.31170212765957445 0.5647293988796923 0.4435585619335133
0.3119148936170213 0.5618115921914872 0.4661738098472895
0.3121276595744681 0.5566376174577254 0.47741834708199477
0.3123404255319149 0.551336835039841 0.48083264137164583
0.3125531914893617 0.544821561057867 0.4758006204438547
0.3127659574468085 0.5415411725906157 0.4634693491236321
0.3129787234042553 0.53867063853745 0.4517974589853835
0.3131914893617021 0.5273093870836965 0.44670267996745855
0.31340425531914895 0.5204339599488295 0.44740392867238543
0.31361702127659574 0.5125899221311144 0.4531249518585296
0.31382978723404253 0.5072031571942783 0.45864033128914256
0.3140425531914894 0.5036223057034446 0.46518521525104245
0.3142553191489362 0.4973341366965586 0.47646111651218775
0.31446808510638297 0.49270340772601173 0.48714246307976034
0.31468085106382976 0.4893424852018875 0.5013501373556157
0.3148936170212766 0.4873268012368385 0.5178664415686697
0.3151063829787234 0.47496596369901145 0.5343159122169633
0.3153191489361702 0.45690815253198835 0.5555989322823219
0.31553191489361704 0.4409625011325391 0.567936740003808
0.31574468085106383 0.42277391534184755 0.5818852829108542
0.3159574468085106 0.4071308202207278 0.583768220518097
0.31617021276595747 0.3978054211594645 0.5729115855489142
0.31638297872340426 0.3894694064220083 0.5462246579626701
0.31659574468085105 0.3809488165583783 0.5196469287182471
0.31680851063829785 0.37689266189482 0.4905944089126204
0.3170212765957447 0.373242236190032 0.4732959277216921
0.3172340425531915 0.3719389047915021 0.4546700040928776
0.3174468085106383 0.3776191953030379 0.4375008105860946
0.3176595744680851 0.38285203292916176 0.41407928209588346
0.3178723404255319 0.3927599737355878 0.3784815558604924
0.3180851063829787 0.4010747435271129 0.33989942648292765
0.3182978723404255 0.4019357235270512 0.3029592300694722
0.31851063829787235 0.4039759833487878 0.2686754242112857
0.31872340425531914 0.4044582481137338 0.24364561607710006
0.31893617021276593 0.4022799698866857 0.2388315434310002
0.3191489361702128 0.39671041997312506 0.252686275105398
0.3193617021276596 0.3935622823733787 0.28296545156779956
0.31957446808510637 0.3896588092488838 0.32383717964205777
0.3197872340425532 0.3846908028345595 0.36204967063143845
0.32 0.379770095249708 0.3986816048742219
0.3202127659574468 0.37600227526303936 0.419774491427001
0.3204255319148936 0.3738208770867911 0.431772181396367
0.32063829787234044 0.3698206909646962 0.43721119051982593
0.32085106382978723 0.3597511200089459 0.44425645899419897
0.321063829787234 0.35329834851070047 0.4480702535199803
0.32127659574468087 0.3443365950270961 0.4490992386055924
0.32148936170212766 0.3375203997937292 0.451564820027151
0.32170212765957445 0.3321207371923646 0.4579994179260079
0.32191489361702125 0.32622520502390673 0.4602916489086775
0.3221276595744681 0.3221735839191383 0.46729524601251565
0.3223404255319149 0.3196943124575684 0.47632310646401255
0.3225531914893617 0.3170717907775997 0.4835560112231981
0.3227659574468085 0.3166051359805875 0.4886527308533404
0.3229787234042553 0.3159432392771804 0.48832619257478366
0.3231914893617021 0.31715160280036103 0.4824274574510198
0.32340425531914896 0.3209927200572252 0.47627156914648755
0.32361702127659575 0.3256131160663958 0.47273178839631297
0.32382978723404254 0.329560592043965 0.47436128636540975
0.32404255319148934 0.3351709432587418 0.48074983920402764
0.3242553191489362 0.3416882786535441 0.4913882817819296
0.324468085106383 0.3463736488898344 0.49634266225634854
0.32468085106382977 0.35123943456910484 0.5061891031514892
0.3248936170212766 0.35952318328822785 0.5199053024303336
0.3251063829787234 0.3722200809742825 0.5334316100412096
0.3253191489361702 0.3875064534416391 0.5330906555808477
0.325531914893617 0.40792392459928994 0.5134268660278162
0.32574468085106384 0.4366028623368472 0.49158472926061236
0.32595744680851063 0.4616944706116238 0.46787408890833426
0.3261702127659574 0.4894227021542134 0.45321881701219546
0.32638297872340427 0.5109898916021003 0.4425301673223535
0.32659574468085106 0.5299860419623578 0.4283542598906612
0.32680851063829786 0.5429124698651857 0.40970111098483875
0.3270212765957447 0.5560519758991727 0.39144348607873986
0.3272340425531915 0.5632236522085394 0.372819915905344
0.3274468085106383 0.5676278230621037 0.3576226375525042
0.3276595744680851 0.5651607515620792 0.33734061250137043
0.3278723404255319 0.5606433248133412 0.3231044503280487
0.3280851063829787 0.5599496594663235 0.3191739820309267
0.3282978723404255 0.5616235175915593 0.3206090283438415
0.32851063829787236 0.5602049911974999 0.3254033406763701
0.32872340425531915 0.5615911485865115 0.3424716991187702
0.32893617021276594 0.5651934775524555 0.3662343994011711
0.32914893617021274 0.5669448108221292 0.40200541395361333
0.3293617021276596 0.567171470444553 0.43173309048484965
0.3295744680851064 0.564599174296833 0.4662582897742051
0.32978723404255317 0.5651251786355991 0.4846017834260564
0.33 0.5642884289571204 0.4972247342927659
0.3302127659574468 0.5662029130998094 0.5006875411423289
0.3304255319148936 0.5688266779229991 0.4845522151760437
0.33063829787234045 0.5636726434649434 0.4735340486832054
0.33085106382978724 0.5675992694311848 0.4634838344168397
0.33106382978723403 0.5646241332820784 0.45599843592729394
0.3312765957446808 0.565208474417524 0.4533508189710133
0.33148936170212767 0.5622862725940401 0.45989620393204483
0.33170212765957446 0.5594641808876738 0.47318539989097824
0.33191489361702126 0.5556905049739599 0.4771204897188392
0.3321276595744681 0.555566193263795 0.4768847084554182
0.3323404255319149 0.551441320053163 0.47173945713749055
0.3325531914893617 0.5450661596107123 0.46284222564919864
0.3327659574468085 0.5368349260081623 0.45687000980801934
0.33297872340425533 0.5345852767964555 0.45452265598207675
0.3331914893617021 0.5329317793238529 0.4538348803126526
0.3334042553191489 0.5291107281312323 0.4538348803126526
0.33361702127659576 0.5218741660927916 0.4538348803126526
0.33382978723404255 0.5169647562047531 0.4505260654377771
0.33404255319148934 0.5101689228232603 0.4508119348859505
0.3342553191489362 0.5048181890113402 0.44054627864859297
0.334468085106383 0.5006212609502633 0.43925894299490914
0.3346808510638298 0.49361193540968834 0.444205268250212
0.33489361702127657 0.48930283554660786 0.44761108442479314
0.3351063829787234 0.4817589721965633 0.4625678528345243
0.3353191489361702 0.46750295446802764 0.47924838896138117
0.335531914893617 0.4530053244572652 0.4935109768117876
0.33574468085106385 0.4365079206340182 0.5081100219084629
0.33595744680851064 0.4217119817605062 0.5184320042642209
0.33617021276595743 0.4107825424631512 0.5234188767334532
0.3363829787234042 0.400950569177817 0.5260548428478541
0.33659574468085107 0.3911683035039077 0.5286192207221545
0.33680851063829786 0.383860364504721 0.5259499100272897
0.33702127659574466 0.3794798767796456 0.5181194995290029
0.3372340425531915 0.379280647985568 0.5066886810013993
0.3374468085106383 0.382359492836427 0.4971276191146397
0.3376595744680851 0.3892448609836269 0.4948705422569615
0.33787234042553194 0.39432786485566684 0.49555270141012053
0.33808510638297873 0.401821598418999 0.4965819254173419
0.3382978723404255 0.4047886148553931 0.49917287925108383
0.3385106382978723 0.4091437409344498 0.49226622967900663
0.33872340425531916 0.4107343568926691 0.4840323260994875
0.33893617021276595 0.40900943272476936 0.47029612189214404
0.33914893617021274 0.40597097549863864 0.45486709048781926
0.3393617021276596 0.3998477633253413 0.4505038565916746
0.3395744680851064 0.39491212593983804 0.4429873183193043
0.3397872340425532 0.39156568273487136 0.44139470081010346
0.34 0.38642896356061024 0.4329694132866168
0.3402127659574468 0.38032680876800573 0.4137888411434001
0.3404255319148936 0.3737176355642404 0.4043780525730714
0.3406382978723404 0.37029697706245945 0.3910585579239284
0.34085106382978725 0.3598316129686745 0.3774183252305212
0.34106382978723404 0.34966092493486545 0.36488838409189844
0.34127659574468083 0.33953419818837866 0.35391626408749194
0.3414893617021277 0.3287384847746709 0.34730930271959015
0.3417021276595745 0.3184183292648288 0.3499937547600754
0.34191489361702126 0.310510394222037 0.36297084345850616
0.34212765957446806 0.30432705781792296 0.3868452097992702
0.3423404255319149 0.30097186885549865 0.4160958389541377
0.3425531914893617 0.2973795730318624 0.4503224829179555
0.3427659574468085 0.29817445205597076 0.4725295213615782
0.34297872340425534 0.29673640620782366 0.4945707578986001
0.34319148936170213 0.30024720992320947 0.49682462139716654
0.3434042553191489 0.303391429399102 0.4987632183756858
0.34361702127659577 0.311304648151744 0.49297523565379087
0.34382978723404256 0.31371290666653784 0.49492260669444327
0.34404255319148935 0.31785401312527733 0.5038934274195898
0.34425531914893615 0.3197048093087879 0.5104112920786661
0.344468085106383 0.32904111630338917 0.5115631873418347
0.3446808510638298 0.33123742840825027 0.5042164995003902
0.3448936170212766 0.33727511207394206 0.49646952363779223
0.3451063829787234 0.347005152477227 0.4945952137211442
0.3453191489361702 0.36068401029313835 0.5061534888191149
0.345531914893617 0.37961936090403303 0.5242140376575476
0.3457446808510638 0.40556124683209205 0.545488677892765
0.34595744680851065 0.43490442230733983 0.5673228618712411
0.34617021276595744 0.4640939506377486 0.5904809757647309
0.34638297872340423 0.4887406006420906 0.6012303601291787
0.3465957446808511 0.5107309257609313 0.5932818186802634
0.3468085106382979 0.5283518976096888 0.5752262349250846
0.34702127659574467 0.5439460395219968 0.5470682708306696
0.3472340425531915 0.5621326204743234 0.5217811599993876
0.3474468085106383 0.5720037982098982 0.4940521129423615
0.3476595744680851 0.5711291220080329 0.469738820950133
0.3478723404255319 0.5719558404548141 0.4328583716576689
0.34808510638297874 0.5712359732282484 0.37907095832117615
0.34829787234042553 0.5718559170469455 0.33307049400030064
0.3485106382978723 0.5706433146946998 0.30027556180449705
0.34872340425531917 0.5688101348630729 0.2831658833759788
0.34893617021276596 0.5681485100146555 0.28360508483439045
0.34914893617021275 0.569378630334777 0.3024995972366702
0.34936170212765955 0.5714206801106135 0.33293560384759624
0.3495744680851064 0.5748677066586791 0.3757563500726123
0.3497872340425532 0.5744555660634936 0.42836863268332054
0.35 0.5748150700307361 0.4787638109135351
0.3502127659574468 0.5767102497462859 0.52236471188484
0.3504255319148936 0.5742502750833813 0.5414680004020674
0.3506382978723404 0.5797183974474183 0.5275250811595956
0.35085106382978726 0.5729435368238984 0.4902261737625206
0.35106382978723405 0.5703550890924058 0.4322923356959333
0.35127659574468084 0.5733174170941864 0.384653123675629
0.35148936170212763 0.5739974509394793 0.3460959779092299
0.3517021276595745 0.5688593080057252 0.32285882187128784
0.3519148936170213 0.564013805200051 0.31080836000116585
0.35212765957446807 0.5605976991322698 0.30514962124602335
0.3523404255319149 0.5576978294300563 0.3128136266149758
0.3525531914893617 0.5540377343719363 0.32698923328301377
0.3527659574468085 0.5488461373071001 0.3476708081125285
0.3529787234042553 0.5435128472736653 0.37106751821438333
0.35319148936170214 0.5378255947808347 0.3978686033237013
0.35340425531914893 0.5300081577474031 0.4197101134255652
0.3536170212765957 0.5238108904585852 0.44068973779378123
0.35382978723404257 0.5193766918700088 0.4572382575289691
0.35404255319148936 0.5137060114722635 0.47067003164888416
0.35425531914893615 0.5058615012709888 0.48491823989838795
0.354468085106383 0.5046409379579873 0.49582570750633964
0.3546808510638298 0.4990320273861405 0.5052379872549367
0.3548936170212766 0.4937867624482154 0.5135410343275538
0.3551063829787234 0.48508445968324265 0.5215342467762442
0.3553191489361702 0.47043815226631186 0.5248128018927963
0.355531914893617 0.45322978996692137 0.5201803146310847
0.3557446808510638 0.4374988918653756 0.5059600828336736
0.35595744680851066 0.4218641451314332 0.4873257963283067
0.35617021276595745 0.40809732473178956 0.47557407320147194
0.35638297872340424 0.3956400268095197 0.47315171556458724
0.35659574468085103 0.3894567309497167 0.4742368094231781
0.3568085106382979 0.38301838041395314 0.4709313574318354
0.3570212765957447 0.3776257938446508 0.46926506075706886
0.35723404255319147 0.3752449557406409 0.4657278057160815
0.3574468085106383 0.3769603939544095 0.4600424538375444
0.3576595744680851 0.38065628450917555 0.4522671690079371
0.3578723404255319 0.3858517436038996 0.4448892986402639
0.35808510638297875 0.3896911325587343 0.44079250202846654
0.35829787234042554 0.3927779311224842 0.4352550805982169
0.35851063829787233 0.39412609246726626 0.4360294199125492
0.3587234042553191 0.3915010446058266 0.4380711160045181
0.35893617021276597 0.39322748917066314 0.4285865404681308
0.35914893617021276 0.38644708279948153 0.4133013999320192
0.35936170212765955 0.38723466630928377 0.3970373666575883
0.3595744680851064 0.3825042838798192 0.3932114722588812
0.3597872340425532 0.3812234524890092 0.3865355873390935
0.36 0.3658917851827878 0.3923061753298324
0.3602127659574468 0.36111890793562146 0.40471565617246463
0.3604255319148936 0.3566783335309652 0.4194421938806617
0.3606382978723404 0.3526410910073422 0.43269026956565915
0.3608510638297872 0.34600249539485006 0.4420315018398535
0.36106382978723406 0.338063401913472 0.4477075794925503
0.36127659574468085 0.33125952327781694 0.4464705106497039
0.36148936170212764 0.32008993149129433 0.45253147663800203
0.3617021276595745 0.3112608930853506 0.45821311087619526
0.3619148936170213 0.30876539218762705 0.46620218616064424
0.3621276595744681 0.3090698390085029 0.4841189669784395
0.36234042553191487 0.3088413757403179 0.5005390365017772
0.3625531914893617 0.3054919905846539 0.5080734314510796
0.3627659574468085 0.3064194130059873 0.5102681598209516
0.3629787234042553 0.3079423768659473 0.5072222321010318
0.36319148936170215 0.3120188230363487 0.5006819849040783
0.36340425531914894 0.31774123591317394 0.49416377983746196
0.36361702127659573 0.3252845270264095 0.48936350367449377
0.3638297872340425 0.32721155551782294 0.48627058705912685
0.36404255319148937 0.3350036014392653 0.48284801353410844
0.36425531914893616 0.3452528566564653 0.47717586909641385
0.36446808510638296 0.35146121765452587 0.466828600766313
0.3646808510638298 0.35796526453144395 0.45387998703875165
0.3648936170212766 0.3649033343122172 0.4371129850685496
0.3651063829787234 0.3764563321152911 0.41829231524246807
0.36531914893617023 0.3912902264262546 0.405967002077542
0.365531914893617 0.41048640173291534 0.40063106592896447
0.3657446808510638 0.43349004789584333 0.39959546585762384
0.3659574468085106 0.459798319743485 0.40589501649912846
0.36617021276595746 0.4912044769704528 0.4096697739265231
0.36638297872340425 0.5107374838896114 0.41853685849937894
0.36659574468085104 0.5289683329812518 0.42423984408338855
0.3668085106382979 0.5461979059212237 0.4290311897255974
0.3670212765957447 0.5544751962948834 0.44016680685454446
0.3672340425531915 0.5649519848150242 0.45247948461146037
0.36744680851063827 0.5717782020783475 0.45941865151655
0.3676595744680851 0.5671935144183569 0.46453822763617336
0.3678723404255319 0.5680596103496891 0.4632505340983403
0.3680851063829787 0.5666845449121369 0.469102319284982
0.36829787234042555 0.5634288771285586 0.46521187500865824
0.36851063829787234 0.5644701033539788 0.4550440522474264
0.36872340425531913 0.5663986421472507 0.43718119082701035
0.368936170212766 0.5712025894856804 0.4187991338659358
0.36914893617021277 0.5753240277087591 0.4040692273175285
0.36936170212765956 0.5725721007999758 0.39171212945156264
0.36957446808510636 0.5719558538799335 0.3959704893878573
0.3697872340425532 0.5749877870053737 0.39791936703242925
0.37 0.575211097249704 0.4133572649745401
0.3702127659574468 0.5750669543935315 0.4344924887181122
0.37042553191489364 0.5718347941465023 0.4599150252997164
0.3706382978723404 0.5716457271116785 0.4832278630556232
0.3708510638297872 0.5723307002016449 0.49955918012607836
0.371063829787234 0.5698127856620515 0.5001531726919586
0.37127659574468086 0.5696073996253671 0.4939068421757433
0.37148936170212765 0.5710796287249633 0.4843873080566977
0.37170212765957444 0.5704629926104501 0.47368818410470054
0.3719148936170213 0.5653049282871153 0.46427613188872385
0.3721276595744681 0.5602902824180381 0.4564483948177905
0.3723404255319149 0.5561252170748489 0.4491595304672094
0.3725531914893617 0.551070957712311 0.44884785047023934
0.3727659574468085 0.5477248534122787 0.45367792302969007
0.3729787234042553 0.539218206771833 0.4631820717245063
0.3731914893617021 0.5318297663071065 0.4808880671604355
0.37340425531914895 0.5253861464596133 0.5058191767546989
0.37361702127659574 0.5176888357776406 0.5286584331473764
0.37382978723404253 0.5123672490907147 0.5422226826370632
0.3740425531914894 0.5050345073932253 0.5440142558295231
0.37425531914893617 0.5011310273607102 0.5450613990503612
0.37446808510638296 0.4955367018344413 0.5431007607768457
0.37468085106382976 0.4909317588614567 0.5358653707144777
0.3748936170212766 0.48465811713876655 0.523565175602168
0.3751063829787234 0.47713984187578984 0.5110559699070237
0.3753191489361702 0.46317565302821345 0.4887107708602936
0.37553191489361704 0.4472540860425717 0.463610800357281
0.37574468085106383 0.4290750720115589 0.43956693984085676
0.3759574468085106 0.4134224548411129 0.4240088078864306
0.37617021276595747 0.401360702585607 0.4070011335107569
0.37638297872340426 0.3908187879098202 0.36933417824601644
0.37659574468085105 0.3819942171713084 0.32837415438357387
0.37680851063829784 0.37667596870657977 0.299123787827566
0.3770212765957447 0.37300855076079875 0.2951437588043546
0.3772340425531915 0.37141057428618285 0.3228420176976969
0.3774468085106383 0.37672040904116444 0.3518315580134317
0.3776595744680851 0.38642812737865645 0.3816745981066857
0.3778723404255319 0.3887647151231328 0.418281139436815
0.3780851063829787 0.39456612391910756 0.4436819170899183
0.37829787234042556 0.3978026453228368 0.45412996089481855
0.37851063829787235 0.39729012626450194 0.4521165946357537
0.37872340425531914 0.39861243883749015 0.44418271919782415
0.37893617021276593 0.39639811261466024 0.4393183313864874
0.3791489361702128 0.39287797798103685 0.4368447586356533
0.3793617021276596 0.39156617088205087 0.4355329515366673
0.37957446808510636 0.3881400908429891 0.44033393965365997
0.3797872340425532 0.3852108031778922 0.44792083223225126
0.38 0.38274865556421944 0.455773108294116
0.3802127659574468 0.3789553979411567 0.4607043432040977
0.3804255319148936 0.3751621403180939 0.4656355781140794
0.38063829787234044 0.36958988307556306 0.4665961559632718
0.38085106382978723 0.36292352460122235 0.46511474296897387
0.381063829787234 0.35625716612688163 0.46363332997467593
0.38127659574468087 0.34723258161674375 0.46657138990889524
0.38148936170212766 0.3399133451260101 0.47036485541400513
0.38170212765957445 0.3352098177064645 0.4760781040271537
0.3819148936170213 0.3290175688871023 0.48381841505135653
0.3821276595744681 0.32351935072493 0.49813501262474313
0.3823404255319149 0.32206623734039663 0.5107451676280915
0.3825531914893617 0.32029242663667146 0.5182046455112689
0.3827659574468085 0.31751155685992344 0.518473564059968
0.3829787234042553 0.31789857496974705 0.5225656642967083
0.3831914893617021 0.3171326279289398 0.527673450487201
0.38340425531914896 0.32272175720567203 0.5318714987787039
0.38361702127659575 0.3258662549396736 0.5309503314193766
0.38382978723404254 0.3271542988257391 0.5280898876404494
0.38404255319148933 0.33240526187205816 0.5258721828700572
0.3842553191489362 0.33807304104308294 0.506659541563549
0.384468085106383 0.34201926227457 0.49139549102293845
0.38468085106382977 0.34814231145864233 0.4828582089773506
0.3848936170212766 0.3540822374301007 0.4708569556988448
0.3851063829787234 0.3659539769867479 0.4582041629267623
0.3853191489361702 0.3784706104409218 0.44567538849254884
0.38553191489361704 0.3964119325235175 0.43659119201589014
0.38574468085106384 0.42106309623153537 0.42630563338732985
0.38595744680851063 0.4482850899227493 0.4166032276385169
0.3861702127659574 0.4747582948740301 0.40737719459766963
0.38638297872340427 0.49587968720928327 0.39486185539695917
0.38659574468085106 0.5158104887615856 0.3691763039851251
0.38680851063829785 0.529599940861716 0.34355843070966585
0.3870212765957447 0.5482790241580144 0.3304037219219698
0.3872340425531915 0.5575725592850761 0.3296357756198304
0.3874468085106383 0.5592888722330767 0.335215402426306
0.3876595744680851 0.5622386277486922 0.3586808832499182
0.3878723404255319 0.5603321934538348 0.3863506956479253
0.3880851063829787 0.5605946833608019 0.41250757530559673
0.3882978723404255 0.5622860969004199 0.4306653106848743
0.38851063829787236 0.556806100996391 0.4372470826335948
0.38872340425531915 0.559769029535596 0.4307670381002267
0.38893617021276594 0.5640077202348907 0.4207085620745335
0.3891489361702128 0.5632633121641426 0.41183415966642545
0.3893617021276596 0.562950690846784 0.4046311048721378
0.3895744680851064 0.563748570490898 0.4081533882229127
0.38978723404255317 0.5666090925955811 0.4180421046152016
0.39 0.5653184762234054 0.4375957376766655
0.3902127659574468 0.5622315006958167 0.460244836715502
0.3904255319148936 0.5624490898472658 0.4820059384909062
0.39063829787234045 0.5626364274440747 0.4953505770170265
0.39085106382978724 0.5595511324990419 0.49643409091977003
0.39106382978723403 0.5583781143136297 0.489926029838727
0.3912765957446808 0.555207380695152 0.47138491376923525
0.39148936170212767 0.5604020072369369 0.4641236907491076
0.39170212765957446 0.5553254956927282 0.44821852287628294
0.39191489361702125 0.5508760354215817 0.43523680191691905
0.3921276595744681 0.5496106107971908 0.42763578022127297
0.3923404255319149 0.5454745592431077 0.4164764730382533
0.3925531914893617 0.5384916494006993 0.4088219253857579
0.39276595744680853 0.5335949862552825 0.40839020559220757
0.3929787234042553 0.5311929325002444 0.41749574173131615
0.3931914893617021 0.5299620651992213 0.45039864685672437
0.3934042553191489 0.52236229388337 0.48433832980851865
0.39361702127659576 0.5189348621225497 0.5317605658056264
0.39382978723404255 0.515586960484168 0.5776567316399951
0.39404255319148934 0.5119306082467849 0.6230176067368155
0.3942553191489362 0.5089709860137046 0.6689162440362725
0.394468085106383 0.507222686855481 0.706974608717007
0.3946808510638298 0.5025965642166309 0.7245199885316455
0.39489361702127657 0.49846451668334013 0.6993668563674494
0.3951063829787234 0.49061395626935045 0.642001936783993
0.3953191489361702 0.48102724659817914 0.5643494666600033
0.395531914893617 0.4667429590142704 0.4798080313379749
0.39574468085106385 0.4502507266262341 0.3983797178036244
0.39595744680851064 0.43209274171947915 0.3328347863536457
0.39617021276595743 0.41793162313932286 0.28945681372671284
0.3963829787234043 0.4026866634905572 0.27176336109681015
0.39659574468085107 0.3942744396334597 0.2779336562342547
0.39680851063829786 0.384055672897174 0.29098769272411606
0.39702127659574465 0.37541135940982445 0.29809434850913574
0.3972340425531915 0.37142629780058994 0.3070888420152004
0.3974468085106383 0.37018305689284897 0.31634890276829375
0.3976595744680851 0.3779653587612953 0.3376296542401917
0.39787234042553193 0.383590179637373 0.3661789120091689
0.3980851063829787 0.38738389462925227 0.39897312538981533
0.3982978723404255 0.39045847275667334 0.4366068656327294
0.3985106382978723 0.3918682699911893 0.4733299920982744
0.39872340425531916 0.3894530864930262 0.5011957302119575
0.39893617021276595 0.3842848852215864 0.5119987656693871
0.39914893617021274 0.37866712670526675 0.5095904290990138
0.3993617021276596 0.37790946273042214 0.501898868616862
0.3995744680851064 0.3786028334147533 0.48572923230327486
0.3997872340425532 0.37638807687933834 0.4654499051359897
0.4 0.37408883577050783 0.4464282468979311
0.4002127659574468 0.37118846633406727 0.4338138245308895
0.4004255319148936 0.3707865168539326 0.4224840173590383
0.4006382978723404 0.36413095719028954 0.41969098602394056
0.40085106382978725 0.3570352644118894 0.4188359320944159
0.40106382978723404 0.35174019759403014 0.43129074455760275
0.40127659574468083 0.3430510259655814 0.44752646542362834
0.4014893617021277 0.3320294907870379 0.47028817101312476
0.40170212765957447 0.3279300291191222 0.4940710221587399
0.40191489361702126 0.3240795513747793 0.5166498181685764
0.40212765957446805 0.32100551980235204 0.5342833446167898
0.4023404255319149 0.3182787065720614 0.5527036705075392
0.4025531914893617 0.31704934049829014 0.5629685749896725
0.4027659574468085 0.31798366469896355 0.5624144187023278
0.40297872340425533 0.3215981149073403 0.5557225805073494
0.4031914893617021 0.3215916077825439 0.5427535856405403
0.4034042553191489 0.32376174381393297 0.5226717080825973
0.40361702127659577 0.3278804379593553 0.4950109599276971
0.40382978723404256 0.331697214377667 0.4612282943017988
0.40404255319148935 0.33346630358732116 0.4348182514925889
0.40425531914893614 0.34030290334068647 0.41460669152239105
0.404468085106383 0.3485597381270759 0.40473777042202014
0.4046808510638298 0.35494333661526345 0.4040058622374205
0.4048936170212766 0.3626071835695239 0.41239082455430753
0.4051063829787234 0.3707743914466972 0.4206034095219293
0.4053191489361702 0.38494218867801655 0.4314689963875481
0.405531914893617 0.39584191374077826 0.43363998518730906
0.4057446808510638 0.4211348899837509 0.43641215002617634
0.40595744680851065 0.4489151427187394 0.4378727295850437
0.40617021276595744 0.4747665451622804 0.4406862295040151
0.40638297872340423 0.4957317342779807 0.44211040547142155
0.4065957446808511 0.5151342994813304 0.44136265031504424
0.40680851063829787 0.5318884680300041 0.43930002203455365
0.40702127659574466 0.5460996280936521 0.43723976130839654
0.4072340425531915 0.5569803759451092 0.4367830495668311
0.4074468085106383 0.5664237046590783 0.4401805162387931
0.4076595744680851 0.5684797248443725 0.4453395291733496
0.4078723404255319 0.5648067673918127 0.4510056944693459
0.40808510638297874 0.561171295409406 0.4549498574972867
0.4082978723404255 0.5595922200542887 0.4580088796514964
0.4085106382978723 0.5593551538837322 0.46183638633365304
0.40872340425531917 0.5610174694728256 0.46179707864902925
0.40893617021276596 0.5560937693149094 0.4520895134069219
0.40914893617021275 0.5609305405826172 0.44085059580697056
0.40936170212765954 0.5642098418318828 0.43048763030473136
0.4095744680851064 0.5643831997322591 0.41835195179326234
0.4097872340425532 0.5676383045559207 0.41129922467532914
0.41 0.5694043042771632 0.40433060999633136
0.4102127659574468 0.5664902569869276 0.40139137591232554
0.4104255319148936 0.5639706263430785 0.4105094124349337
0.4106382978723404 0.5639025007606101 0.41794924049088655
0.41085106382978726 0.5655902918372209 0.424150792676702
0.41106382978723405 0.5661944308744504 0.42740139018859014
0.41127659574468084 0.5661944308744504 0.4347674535663596
0.41148936170212763 0.5661944308744504 0.43884533285464067
0.4117021276595745 0.5644086836703712 0.44253732260332196
0.41191489361702127 0.5619597679912689 0.44406448461162684
0.41212765957446806 0.5563567999746426 0.44052703243355895
0.4123404255319149 0.5537209693808525 0.431689420237445
0.4125531914893617 0.5487741344502305 0.42075779070312974
0.4127659574468085 0.542580755537045 0.4136115322835032
0.4129787234042553 0.5384932859869853 0.41116164055089366
0.41319148936170214 0.5327248751197977 0.4168364488200959
0.41340425531914893 0.5274574843294018 0.42676553940177275
0.4136170212765957 0.5251922312488272 0.43705789602748063
0.41382978723404257 0.5190159854890855 0.4402364823370567
0.41404255319148936 0.5117703675985147 0.4422085321743206
0.41425531914893615 0.50499776843272 0.4427773404938392
0.414468085106383 0.5012846497016343 0.4402830268092288
0.4146808510638298 0.497854410303944 0.432879310927125
0.4148936170212766 0.4896425916567372 0.4202830259152596
0.4151063829787234 0.4816374483250509 0.41806157099152674
0.4153191489361702 0.47166874752886045 0.4228665455703259
0.415531914893617 0.45555639784535923 0.43405781982362923
0.4157446808510638 0.4379400077876934 0.4448747583345506
0.41595744680851066 0.42030447302788704 0.45359389872619593
0.41617021276595745 0.4052538528161794 0.4548661100844865
0.41638297872340424 0.3959987181884128 0.45861703037601637
0.4165957446808511 0.38757807092760743 0.4606741573033708
0.4168085106382979 0.3790806889551563 0.4654452233911071
0.41702127659574467 0.3750944341333899 0.4682239678648269
0.41723404255319146 0.3693146702307029 0.4702838088320714
0.4174468085106383 0.3688324377137273 0.46567654063043745
0.4176595744680851 0.369084817107315 0.46232996988751773
0.4178723404255319 0.37973606627760886 0.4493800455076068
0.41808510638297874 0.38241751357687653 0.4427087758478889
0.41829787234042554 0.38855248886597765 0.43782594957863563
0.41851063829787233 0.3905047088917579 0.4260694836728314
0.4187234042553191 0.39506500377544845 0.4207630372602135
0.41893617021276597 0.39582898509766606 0.4199990559379959
0.41914893617021276 0.3920948574413641 0.42412104010260726
0.41936170212765955 0.38988768827194903 0.42911549225399237
0.4195744680851064 0.38836073042802133 0.4323400097703958
0.4197872340425532 0.3840810864315799 0.43510259569880966
0.42 0.3797744456143503 0.4419172249828041
0.42021276595744683 0.3786028334147533 0.45424559598875636
0.4204255319148936 0.37604271634382425 0.4663064148594149
0.4206382978723404 0.3725109737714647 0.47745490153837783
0.4208510638297872 0.36834054278382505 0.4904255844728959
0.42106382978723406 0.36110552264549434 0.5045502610957274
0.42127659574468085 0.3546449915693829 0.5215966755292439
0.42148936170212764 0.34472317789235357 0.5391809036192987
0.4217021276595745 0.3388864745095992 0.5479530421767318
0.4219148936170213 0.3330028096916919 0.5497264111719812
0.4221276595744681 0.32708020770662644 0.5460346125160035
0.42234042553191486 0.32486565705911086 0.5331136416885109
0.4225531914893617 0.3211816899664122 0.5181660708452217
0.4227659574468085 0.3191721374558268 0.5001913588916962
0.4229787234042553 0.32351921729777877 0.48230018884921366
0.42319148936170214 0.3190284269174675 0.4753297508549097
0.42340425531914894 0.31979364754855183 0.4780145429637479
0.42361702127659573 0.31976269933707047 0.48358158715878535
0.4238297872340426 0.3251991791867756 0.4881980263300756
0.42404255319148937 0.3301213431710155 0.4848812961217217
0.42425531914893616 0.3333532607891294 0.4797474964701613
0.42446808510638295 0.3401703504272461 0.46900580776255835
0.4246808510638298 0.3493064841709131 0.4587250241162447
0.4248936170212766 0.35213010698603175 0.4596662317212844
0.4251063829787234 0.36004936149547695 0.4694829333033034
0.42531914893617023 0.37228931735591797 0.48815832365309475
0.425531914893617 0.3838319374166063 0.5085082728981839
0.4257446808510638 0.4112461255449035 0.51921659713902
0.4259574468085106 0.4368931167713649 0.5269468026455748
0.42617021276595746 0.4618631268892799 0.5391259800325532
0.42638297872340425 0.48682244700293603 0.5507018383483617
0.42659574468085104 0.5088633916306519 0.5590463272430888
0.4268085106382979 0.5269394339804432 0.5562034448856562
0.4270212765957447 0.5411495242214183 0.5433926828273131
0.4272340425531915 0.5547351392420214 0.5132287808731234
0.4274468085106383 0.5624173344837033 0.46418024301123095
0.4276595744680851 0.5659580907077338 0.4072829456682161
0.4278723404255319 0.567171470444553 0.36043169089641197
0.4280851063829787 0.565818826834138 0.3308051260815949
0.42829787234042555 0.5637673153140951 0.3173632755328711
0.42851063829787234 0.5609575211249542 0.31586385837114783
0.42872340425531913 0.5603321934538348 0.3223326209847134
0.428936170212766 0.5656867316899034 0.32618341959018055
0.42914893617021277 0.5695211998604087 0.32838622247655325
0.42936170212765956 0.5701025891548608 0.330401336556544
0.42957446808510635 0.5701025891548608 0.32730042041645174
0.4297872340425532 0.5737410089441586 0.335006180725236
0.43 0.5720922412126381 0.33849085166418874
0.4302127659574468 0.5759007293789205 0.3479144419404723
0.43042553191489363 0.5741758418420653 0.3662450346876705
0.4306382978723404 0.5754191145431322 0.3835583287328502
0.4308510638297872 0.5726171201600572 0.4059749461521548
0.43106382978723407 0.5758576721371619 0.42691903972831097
0.43127659574468086 0.5781563226318094 0.4453154369719782
0.43148936170212765 0.5756705389351767 0.4580490839260493
0.43170212765957444 0.5729001929596075 0.46764694919964994
0.4319148936170213 0.5699188524281215 0.4722148954178626
0.4321276595744681 0.5679688420565824 0.4711536812372895
0.4323404255319149 0.5627613415809117 0.46454644678863566
0.4325531914893617 0.5564372705415135 0.45471953649151925
0.4327659574468085 0.5501561146084057 0.44225749460726516
0.4329787234042553 0.5434842268594535 0.4282590970528958
0.4331914893617021 0.5345748601436461 0.41663938485265356
0.43340425531914895 0.5260392937011769 0.4115417258560654
0.43361702127659574 0.5161994500639895 0.404459315791299
0.43382978723404253 0.5127095591682916 0.403028822667318
0.4340425531914894 0.5061457465821636 0.4057337546401656
0.43425531914893617 0.5037109171118047 0.4154952434590515
0.43446808510638296 0.4957448586025147 0.4197412185836113
0.4346808510638298 0.49068493723155665 0.42452369320957506
0.4348936170212766 0.48658039455004853 0.4251159821421904
0.4351063829787234 0.48180734653635826 0.43041293171961703
0.4353191489361702 0.4716628083084356 0.4385066660217099
0.43553191489361703 0.45446954904656867 0.4517863285207534
0.4357446808510638 0.43870045738740404 0.46052627415506336
0.4359574468085106 0.42357148754457424 0.4757872282585836
0.43617021276595747 0.40881390158442843 0.4963018591896068
0.43638297872340426 0.39647273880480827 0.5140809416761034
0.43659574468085105 0.3867440372423101 0.5263695692406944
0.43680851063829784 0.3813683643561225 0.5230722554414683
0.4370212765957447 0.3768100330410304 0.49586859721490956
0.4372340425531915 0.37409308838529176 0.4579562389905261
0.4374468085106383 0.3769700577741049 0.4141422002808731
0.4376595744680851 0.3771981412912069 0.37524089828662
0.4378723404255319 0.3841564851111638 0.3493843111628651
0.4380851063829787 0.38959497419926165 0.34440644846116264
0.43829787234042555 0.40048535033430394 0.35625749755253555
0.43851063829787235 0.39667979355272437 0.38673561334655104
0.43872340425531914 0.3967483957896538 0.43852907863462587
0.43893617021276593 0.3943887051522167 0.49310818345961904
0.4391489361702128 0.3871755401312513 0.5471275587473373
0.43936170212765957 0.385619298845156 0.5884941588508004
0.43957446808510636 0.3822196341810964 0.6242165464828355
0.4397872340425532 0.3784984146723019 0.6489394970946066
0.44 0.37501097141438583 0.6567428146139483
0.4402127659574468 0.37134952156651213 0.6548399667513195
0.4404255319148936 0.37032692039669307 0.6476326183389579
0.44063829787234043 0.36624853362140625 0.6368259174917731
0.4408510638297872 0.3623537511599084 0.6201994072367613
0.441063829787234 0.3560212186359863 0.5948264453068478
