0.0 0.3707865168539326 0.45188080117244755
0.0002127659574468085 0.3713694096783456 0.4509093131317592
0.000425531914893617 0.37195230250275857 0.4499378250910709
0.0006382978723404255 0.3725351953271716 0.4489663370503825
0.000851063829787234 0.3731180881515846 0.4479948490096942
0.0010638297872340426 0.3737009809759976 0.44702336096900586
0.001276595744680851 0.37590038961040567 0.44408526459371395
0.0014893617021276596 0.37510335974294007 0.439996655978308
0.001702127659574468 0.37397326479197157 0.4374808368486398
0.0019148936170212765 0.37460921233811356 0.4381167843947818
0.002127659574468085 0.37524515988425555 0.4387527319409238
0.002340425531914894 0.37630128439951926 0.44043842615126133
0.002553191489361702 0.3782133532208558 0.4442625637939343
0.0027659574468085106 0.38528676857084376 0.4497202787909928
0.0029787234042553193 0.3861389000500412 0.452439383438882
0.0031914893617021275 0.3878161481452989 0.4528578407425501
0.003404255319148936 0.3917206514829156 0.45410675171303627
0.003617021276595745 0.3933894093906915 0.4557889594528579
0.003829787234042553 0.3966115919317861 0.4557889594528579
0.004042553191489362 0.4002312266777907 0.4539380223013861
0.00425531914893617 0.4084466510404857 0.4509037616023448
0.004468085106382979 0.42263430489468545 0.4479402974793793
0.004680851063829788 0.4368752759301195 0.44166415440567564
0.004893617021276595 0.4529254344194542 0.43960702542971947
0.005106382978723404 0.46755877448837324 0.43948985321971995
0.005319148936170213 0.4779978658379544 0.4381972488350813
0.005531914893617021 0.49110977240885767 0.4417337852077509
0.00574468085106383 0.49767244576829395 0.4438173906180161
0.005957446808510639 0.5007327796775769 0.44677169161633784
0.006170212765957446 0.49924523339667215 0.450933077503346
0.006382978723404255 0.49836403582535127 0.45342021560063217
0.006595744680851064 0.49750692019574794 0.4576502213375242
0.006808510638297872 0.4989269791933957 0.4582955458691155
0.007021276595744681 0.4974555327962093 0.4592765101339064
0.00723404255319149 0.49431704407524885 0.45969711773326827
0.007446808510638298 0.4920764619995174 0.4624226787642803
0.007659574468085106 0.48413842508890137 0.4587277372146997
0.007872340425531916 0.4890785767679089 0.46165119687347334
0.008085106382978723 0.49011827948136905 0.46191706702331464
0.008297872340425531 0.49077831124978333 0.46342120328691083
0.00851063829787234 0.48928838391725327 0.4621635961174458
0.008723404255319148 0.48761326222798473 0.4606741573033708
0.008936170212765958 0.48871025669537843 0.45918391659853386
0.009148936170212766 0.4912595139943009 0.45722373666532795
0.009361702127659575 0.4985220379034048 0.45799970122703
0.009574468085106383 0.5041637615572097 0.454318538647301
0.00978723404255319 0.5109099044031339 0.4517452248309371
0.01 0.517596151559531 0.4526874148040393
0.010212765957446808 0.521544630260029 0.4512927619518523
0.010425531914893617 0.527692556270016 0.44856049551969684
0.010638297872340425 0.532271420457755 0.44500270465590325
0.010851063829787235 0.5354109095305215 0.4375689538394692
0.011063829787234043 0.53918517779055 0.4387073982427659
0.01127659574468085 0.5406181879658346 0.4327486828878798
0.01148936170212766 0.5392154983094216 0.43293887394265457
0.011702127659574468 0.5346566713650459 0.4316447887218854
0.011914893617021277 0.5203951378059617 0.4331705685009736
0.012127659574468085 0.5017385200996137 0.4342924944188267
0.012340425531914893 0.49391381328999784 0.43624309040002135
0.012553191489361702 0.4783115702251165 0.4402335212404001
0.01276595744680851 0.45486771187250225 0.4423407173665105
0.01297872340425532 0.44558448889630864 0.4446615231105589
0.013191489361702127 0.4335705180129815 0.4441670269651756
0.013404255319148937 0.440845980147506 0.44689980807066343
0.013617021276595745 0.4462810989651907 0.4489168655604699
0.013829787234042552 0.4538348803126526 0.44818776584827463
0.014042553191489362 0.4538348803126526 0.45064014543650943
0.01425531914893617 0.4545394270948409 0.45360003138525656
0.01446808510638298 0.4584831987520775 0.45199924087799154
0.014680851063829787 0.4667938880196773 0.4488853091382169
0.014893617021276596 0.47857811385687465 0.44469083828262485
0.015106382978723404 0.49109884520327907 0.439419452002078
0.015319148936170212 0.4893478392633057 0.4377215687405963
0.015531914893617021 0.46830553857612167 0.4399035914951971
0.01574468085106383 0.44437944143393626 0.44304807543873553
0.015957446808510637 0.4177787053871955 0.44690594040602843
0.016170212765957447 0.39054485223869273 0.44875342316086203
0.016382978723404256 0.3701607289620264 0.4540434762766213
0.016595744680851062 0.36050621818272294 0.4575678623680934
0.01680851063829787 0.35611273427562806 0.45578289644393605
0.01702127659574468 0.3538792905639976 0.4547552960517625
0.01723404255319149 0.36578808788147005 0.45364292287972974
0.017446808510638297 0.3753458734098551 0.45188080117244755
0.017659574468085106 0.39001027743759054 0.45219307312566637
0.017872340425531916 0.41065471030106715 0.4539705457136629
0.018085106382978722 0.42352205878121163 0.45529429095324125
0.01829787234042553 0.43537687498599836 0.4580599348462169
0.01851063829787234 0.4471123743076659 0.4600096350349351
0.01872340425531915 0.4526545403075854 0.4608379951336146
0.018936170212765956 0.45112040038008494 0.457743038593063
0.019148936170212766 0.44521463969287023 0.4574317850289572
0.019361702127659575 0.43206129037614377 0.45602829655942256
0.01957446808510638 0.41990772108357527 0.4537202401159861
0.01978723404255319 0.4131837106963879 0.4524733484145061
0.02 0.412801858391733 0.45252864085466366
0.02021276595744681 0.4131925646468621 0.4491463556013988
0.020425531914893616 0.40901181357846267 0.44705598006719915
0.020638297872340425 0.4038496192790117 0.4455040034737125
0.020851063829787235 0.40001093709917523 0.4446869220390835
0.02106382978723404 0.39805861994502395 0.44393697730395515
0.02127659574468085 0.3960755111201655 0.4409623140666675
0.02148936170212766 0.3934082306375276 0.4382022471910112
0.02170212765957447 0.38739618954567656 0.4378334937221289
0.021914893617021276 0.3868902392388358 0.4357422177439653
0.022127659574468085 0.3854421104054715 0.43526040942896943
0.022340425531914895 0.38815880923681795 0.4380014072870076
0.0225531914893617 0.39502677813575776 0.4400944170076365
0.02276595744680851 0.39971718100904635 0.44165788463206607
0.02297872340425532 0.40048958316420746 0.4426955658343269
0.023191489361702126 0.3968659300380294 0.4443801546091165
0.023404255319148935 0.390937157246706 0.4493168730415206
0.023617021276595745 0.39090972912372984 0.454022682478041
0.023829787234042554 0.39298531076574067 0.45397143841292836
0.02404255319148936 0.3968705851271753 0.4583500780137565
0.02425531914893617 0.40200694146774096 0.4548477931863348
0.02446808510638298 0.41361017487975654 0.4510285241425621
0.024680851063829785 0.4272897222391984 0.45296965258377014
0.024893617021276595 0.4415707647140636 0.4538348803126526
0.025106382978723404 0.45492271434038173 0.453875169206335
0.025319148936170214 0.46609860434241734 0.45763518875535625
0.02553191489361702 0.47610040471192383 0.45607795464923817
0.02574468085106383 0.48470076831847175 0.45928542394598054
0.02595744680851064 0.49314094011188125 0.46262823644357587
0.026170212765957445 0.48998534440644836 0.4630875073650345
0.026382978723404255 0.49053316065251823 0.4637605912146764
0.026595744680851064 0.4916192751398452 0.46165119687347334
0.026808510638297874 0.48838573064994517 0.4612831035411011
0.02702127659574468 0.4845013786828954 0.46029588560630835
0.02723404255319149 0.48581570685415343 0.45969711773326827
0.0274468085106383 0.4898253566751876 0.4577177384625204
0.027659574468085105 0.4961288856241698 0.4539177667078308
0.027872340425531914 0.5016185181079673 0.4528578407425501
0.028085106382978724 0.507612538557009 0.454343641042061
0.028297872340425533 0.5153803606561027 0.4557889594528579
0.02851063829787234 0.5198878116496045 0.4534238388925443
0.02872340425531915 0.5196324340102059 0.45123966410302463
0.02893617021276596 0.518607223102431 0.45572892045201113
0.029148936170212764 0.5175807576471424 0.4592205071776252
0.029361702127659574 0.5173424523693209 0.46206830461898807
0.029574468085106383 0.5181828736573754 0.46514950030773916
0.029787234042553193 0.5138622973114594 0.4664507940794764
0.03 0.5088375282454818 0.4633186586335861
0.03021276595744681 0.5038233512239355 0.4598087347185038
0.030425531914893618 0.49630741673867196 0.4580623440334431
0.030638297872340424 0.4915979073919012 0.4503796101466773
0.030851063829787233 0.48664797795178516 0.44894968246213973
0.031063829787234043 0.48879872638903543 0.44804250237447396
0.03127659574468085 0.4861520658698581 0.44416432427005365
0.03148936170212766 0.48609621580173473 0.44503518095649713
0.03170212765957447 0.48878124211776347 0.4441212502912724
0.031914893617021274 0.48608694158999893 0.4450415241817294
0.03212765957446809 0.4937286722011567 0.44570084612453764
0.03234042553191489 0.4931286288929591 0.44894968246213973
0.0325531914893617 0.49440406165616513 0.4497155209160993
0.03276595744680851 0.49464654012453896 0.4503794990442912
0.03297872340425532 0.4912635702568232 0.44564389674227367
0.033191489361702124 0.48653352878196 0.4411697696945861
0.03340425531914894 0.4799346086539431 0.4373639941099566
0.03361702127659574 0.48146132215779236 0.4325905079450061
0.033829787234042556 0.4790517229270885 0.42641571028036973
0.03404255319148936 0.46842053375447856 0.42452369320957506
0.03425531914893617 0.4603979777094485 0.4269147434234794
0.03446808510638298 0.45192154837291837 0.43231284497008177
0.03468085106382979 0.4456652563596684 0.43495097413109507
0.03489361702127659 0.4402482322725127 0.4403594649328555
0.035106382978723406 0.44369987200305944 0.44430913944420153
0.03531914893617021 0.4542241868941557 0.4450415241817294
0.03553191489361702 0.4694743847108081 0.4431437053792042
0.03574468085106383 0.48620339651592587 0.44211040547142155
0.03595744680851064 0.4989738917612756 0.44211040547142155
0.036170212765957444 0.5040371055327116 0.44055888128140025
0.036382978723404256 0.5013349357567416 0.44676833073370786
0.03659574468085106 0.4946205891383412 0.4549580035083065
0.03680851063829787 0.48215953094693936 0.461204638717436
0.03702127659574468 0.4653001469711189 0.4624876095737052
0.03723404255319149 0.44396206478426403 0.4592343870509737
0.0374468085106383 0.41341653568320114 0.4640846259473175
0.03765957446808511 0.3820769555353437 0.46922234521165124
0.03787234042553191 0.3649263313464321 0.4684906021087612
0.038085106382978726 0.3582215248262167 0.4683539514805738
0.03829787234042553 0.36136731669010763 0.46564715403818396
0.03851063829787234 0.36572935424878744 0.46680475299580976
0.03872340425531915 0.3718743146388385 0.46921567238746215
0.03893617021276596 0.3752574264060239 0.47216674416651455
0.03914893617021276 0.3707865168539326 0.47056991273425597
0.039361702127659576 0.3724681594164392 0.4705084449391994
0.03957446808510638 0.3772159922181705 0.47165022563578823
0.03978723404255319 0.3808815499738107 0.46621175730513414
0.04 0.3844439067651284 0.46458231558378116
0.04021276595744681 0.38641914997557403 0.4624548148647131
0.04042553191489362 0.3852554522981826 0.4571830642711967
0.040638297872340426 0.3832012644862413 0.45354811353362773
0.04085106382978723 0.3858907790295798 0.4488020959412506
0.041063829787234045 0.39152526087839146 0.44493106765557716
0.04127659574468085 0.39469984652260687 0.442623065055312
0.04148936170212766 0.3875249337443209 0.4382666192903334
0.04170212765957447 0.38298523703013565 0.43558729203735136
0.041914893617021276 0.370344103156475 0.43440206501365425
0.04212765957446808 0.3651490287630667 0.4315315321976053
0.042340425531914895 0.3707554844793084 0.4284473676772975
0.0425531914893617 0.3826521295387877 0.43425880444969484
0.04276595744680851 0.38729138062479906 0.4333170493404983
0.04297872340425532 0.39712110223513486 0.43371628786558475
0.043191489361702126 0.4037167208343686 0.43762396438490736
0.04340425531914894 0.4075706037384263 0.44564854158837175
0.043617021276595745 0.4108451392281387 0.4545240786050489
0.04382978723404255 0.41132345100133605 0.45943754582296153
0.044042553191489364 0.41512115877708716 0.4650237491060269
0.04425531914893617 0.42011165446921983 0.4703656931527036
0.044468085106382976 0.4319339326450368 0.46866889962817393
0.04468085106382979 0.44832264737508914 0.47274707190005216
0.044893617021276595 0.4665065872421224 0.4647401875984876
0.0451063829787234 0.4838150954167078 0.46692803479323375
0.045319148936170214 0.49188747486882733 0.45974906641109453
0.04553191489361702 0.4982787860621758 0.4531987135194437
0.045744680851063826 0.5008922124405105 0.44881069269170687
0.04595744680851064 0.5019679532330554 0.4429583780488361
0.046170212765957445 0.5040654821750561 0.44237812799620246
0.04638297872340425 0.5051841669604911 0.44432100281848164
0.046595744680851064 0.49608468534092554 0.4460185637518319
0.04680851063829787 0.4981207011858943 0.4461381999975551
0.047021276595744683 0.4882069864789293 0.4480312166295992
0.04723404255319149 0.4904526442167656 0.4488106625276528
0.047446808510638296 0.480032080335505 0.4460185637518319
0.04765957446808511 0.47420012079165585 0.44610333624802695
0.047872340425531915 0.4654675318932465 0.4509562320369946
0.04808510638297872 0.45893876002387246 0.45468695881949406
0.048297872340425534 0.4568692140921722 0.45481191988275516
0.04851063829787234 0.4559226869307922 0.4564985440670919
0.048723404255319146 0.4623192666441691 0.45839857582078813
0.04893617021276596 0.46924603215143645 0.45997357952711176
0.049148936170212765 0.4781678405133818 0.4601933899393058
0.04936170212765957 0.48913377384078266 0.45969711773326827
0.049574468085106384 0.5004498118674239 0.4573960027130883
0.04978723404255319 0.5139475002741244 0.4530848281237316
0.05 0.5315666443303979 0.44954872276075525
0.05021276595744681 0.5494356956851041 0.44434601012855296
0.050425531914893615 0.5611461328483889 0.4398037233591222
0.05063829787234043 0.5652571734944369 0.435699974980621
0.050851063829787234 0.5650879841123708 0.4337408655295611
0.05106382978723404 0.5648426771256025 0.4272937954269249
0.05127659574468085 0.563915239949617 0.42615095634893385
0.05148936170212766 0.5580731489979915 0.42680604152411383
0.051702127659574465 0.5423193696756852 0.429603397570646
0.05191489361702128 0.5215815658934089 0.4389072651390263
0.052127659574468084 0.49946182950975343 0.442440056485495
0.05234042553191489 0.48230583668438576 0.4431956637942298
0.0525531914893617 0.4742375525843172 0.4471107620224244
0.05276595744680851 0.4670314899352214 0.44992552650020884
0.05297872340425532 0.4579595888032101 0.4509037616023448
0.05319148936170213 0.4497838273337878 0.4509037616023448
0.053404255319148934 0.44378364349695437 0.4509037616023448
0.05361702127659575 0.44211040547142155 0.45029433753385584
0.05382978723404255 0.44343104279192164 0.4492664033719923
0.05404255319148936 0.4426500894152983 0.44894968246213973
0.05425531914893617 0.44135158130890034 0.44743203413709715
0.05446808510638298 0.44274169257891977 0.44860392999953536
0.054680851063829784 0.4471594509682743 0.4473208800914396
0.0548936170212766 0.45136442023556417 0.44445177031428934
0.0551063829787234 0.4545731471647802 0.44496193327573774
0.05531914893617021 0.45386247030476423 0.44409207460373845
0.05553191489361702 0.44883237927365577 0.4441114058870204
0.05574468085106383 0.44406448461162684 0.44631082056703575
0.055957446808510634 0.444431355131641 0.44980443185890423
0.05617021276595745 0.44820472543893364 0.4494678776551394
0.05638297872340425 0.456079666743675 0.4530031943879587
0.056595744680851066 0.4661022880810031 0.4564885532377022
0.05680851063829787 0.47483830788107856 0.4551790405187387
0.05702127659574468 0.47991060282272496 0.4529218426645597
0.05723404255319149 0.47326830708563705 0.4509037616023448
0.0574468085106383 0.4550993834192585 0.44971499533534737
0.057659574468085104 0.43782590705822744 0.44841825557442283
0.05787234042553192 0.42345965480517006 0.44944441644964117
0.05808510638297872 0.4123499425795055 0.45047140129089835
0.05829787234042553 0.4077070674865475 0.45386374310581
0.05851063829787234 0.40501899767155936 0.4557889594528579
0.05872340425531915 0.4012476915017624 0.4571680448206869
0.058936170212765954 0.3992492855134819 0.45816724781482715
0.05914893617021277 0.3979173796778884 0.4587200781631655
0.05936170212765957 0.3942310727407483 0.4587171489660679
0.059574468085106386 0.3910491032111861 0.45668091748466016
0.05978723404255319 0.3849128379958905 0.45507655608754566
0.06 0.37875084235221057 0.4574666950488479
0.06021276595744681 0.37409581646337775 0.4557889594528579
0.06042553191489362 0.37544519751004013 0.4546563734808311
0.06063829787234042 0.37525270038400294 0.4503457363526848
0.060851063829787236 0.3776279335303714 0.4479705032063164
0.06106382978723404 0.38179631915415246 0.44749619453136297
0.06127659574468085 0.38586199645870944 0.44908694992576637
0.06148936170212766 0.38547831679109884 0.4489134760765123
0.06170212765957447 0.38133585473946224 0.4494051860162579
0.06191489361702127 0.3791738973457328 0.44952074639311923
0.062127659574468086 0.3784429851250605 0.45276894168173065
0.06234042553191489 0.378790406856222 0.4577234524116835
0.0625531914893617 0.38084276176161447 0.4628543396751646
0.0627659574468085 0.3822103795709801 0.46458231558378116
0.06297872340425532 0.3803343513793588 0.4631312220399112
0.06319148936170213 0.37802671777882024 0.46185165884055807
0.06340425531914894 0.3759751029521482 0.460000505980971
0.06361702127659574 0.3713026226394653 0.45532802566828784
0.06382978723404255 0.37722464515815496 0.44837379157853297
0.06404255319148935 0.38441978252063214 0.4411786542160556
0.06425531914893617 0.39785376677533263 0.44019674877407705
0.06446808510638298 0.41466388382742486 0.4411611042103496
0.06468085106382979 0.4429269126915309 0.4420443238623529
0.06489361702127659 0.4540703404168302 0.44662481358897194
0.0651063829787234 0.46250807280967166 0.4512712438368881
0.06531914893617022 0.4731470974075292 0.45188080117244755
0.06553191489361702 0.481425247080114 0.4549285492850497
0.06574468085106383 0.48975781028993753 0.45879429712295206
0.06595744680851064 0.5010056026498494 0.4578293173181745
0.06617021276595744 0.511286905715069 0.45663712620053604
0.06638297872340425 0.5168664466331938 0.4597021233528378
0.06659574468085107 0.5203640444391893 0.46280918316269726
0.06680851063829787 0.517168535294439 0.46458231558378116
0.06702127659574468 0.504253441281386 0.4633125790365777
0.06723404255319149 0.4919153991649137 0.46468722685531333
0.06744680851063829 0.4801733259407142 0.4648231069125811
0.06765957446808511 0.47104685185166617 0.4715989159951608
0.06787234042553192 0.467013383784436 0.46601328276513043
0.06808510638297872 0.4665363947239862 0.4637126088608333
0.06829787234042553 0.4730203007867477 0.4589739145402775
0.06851063829787234 0.4850973249379393 0.46458090477478303
0.06872340425531914 0.4925119661662032 0.44880654680725235
0.06893617021276596 0.5043317791906594 0.4454991009052294
0.06914893617021277 0.5139633281387742 0.43906343494419325
0.06936170212765957 0.5256458273961674 0.43706577743695113
0.06957446808510638 0.5291395229649289 0.4305232619407094
0.06978723404255319 0.5334840780890409 0.4261823304246863
0.06999999999999999 0.5346295762550328 0.4228692024455045
0.07021276595744681 0.5342771030218074 0.4235466536394723
0.07042553191489362 0.5334408694931432 0.4238443126670772
0.07063829787234042 0.5283240409691176 0.42509700181342075
0.07085106382978723 0.5211971739291543 0.4275884037213248
0.07106382978723404 0.5193502232826525 0.43220578033757995
0.07127659574468086 0.5146159869636096 0.4339001912857012
0.07148936170212766 0.5114710631593615 0.43429408891060084
0.07170212765957447 0.5087858226000431 0.4383012453939068
0.07191489361702127 0.5038277258950807 0.4454126010707068
0.07212765957446808 0.5012347465895369 0.45045558319801987
0.07234042553191489 0.4972878053832432 0.4554184122639966
0.0725531914893617 0.4903940923164458 0.45815178650306043
0.07276595744680851 0.4866349138106921 0.4561380473167457
0.07297872340425532 0.4850895553884468 0.4570881484904984
0.07319148936170213 0.4873622971879375 0.45743496710126624
0.07340425531914893 0.48880107878151274 0.45779241704331974
0.07361702127659574 0.4900253436288796 0.4618454577379602
0.07382978723404256 0.48599993464077523 0.46643793103335496
0.07404255319148936 0.4806985347941059 0.4707265264223504
0.07425531914893617 0.47415792079681535 0.474370419510988
0.07446808510638298 0.4637135599969637 0.4753199068564292
0.07468085106382978 0.44978885994341133 0.47440865645022506
0.0748936170212766 0.43347898430003035 0.46919581189743725
0.07510638297872341 0.41355947122720094 0.46462014800047585
0.07531914893617021 0.3968448139517755 0.46289667329978684
0.07553191489361702 0.3877168508480212 0.46067200649436096
0.07574468085106383 0.3842394624134875 0.4578931457452924
0.07595744680851063 0.3862959316614071 0.45283493846836315
0.07617021276595745 0.39845222853295376 0.44992672203224227
0.07638297872340426 0.41625541743606964 0.4486096593609414
0.07659574468085106 0.4327222526757181 0.44582476326082116
0.07680851063829787 0.44417780687456115 0.4436050620775958
0.07702127659574468 0.4497433746766248 0.4423682692326927
0.0772340425531915 0.4429129180198506 0.44153963092981485
0.0774468085106383 0.43061684566588415 0.441133365901319
0.07765957446808511 0.4160491489724084 0.44140591044239375
0.07787234042553191 0.40456317723603863 0.4437858271123177
0.07808510638297872 0.3908784273313181 0.45062820206467796
0.07829787234042553 0.38029683330223746 0.4499919002429133
0.07851063829787235 0.372300027792167 0.4535666446285867
0.07872340425531915 0.37176355642403514 0.4510542254309155
0.07893617021276596 0.382986559896098 0.45370951247036057
0.07914893617021276 0.39304541188557424 0.4503594691779952
0.07936170212765957 0.40149778752700205 0.4491197974777304
0.07957446808510638 0.4038046967458519 0.45050143061920755
0.0797872340425532 0.4025381250872075 0.4472344187268121
0.08 0.3988514627555772 0.4440983715468489
0.08021276595744681 0.39599543870349285 0.4413307252267097
0.08042553191489361 0.3901477508242033 0.440719076918138
0.08063829787234042 0.3837927685989078 0.43693115569865304
0.08085106382978724 0.3801315408397851 0.4347194606257743
0.08106382978723405 0.37756188990550155 0.43709739974261025
0.08127659574468085 0.37677156492626207 0.43551674978413146
0.08148936170212766 0.3799206594242126 0.43788865260043497
0.08170212765957446 0.3870868773960501 0.4396064348588822
0.08191489361702127 0.3949517538264269 0.4415889009112807
0.08212765957446809 0.3978310784489676 0.4473475501563622
0.0823404255319149 0.3955314578365718 0.4486256846370955
0.0825531914893617 0.39176611698420616 0.4509251621038906
0.08276595744680851 0.38893575408935327 0.45327235533907856
0.08297872340425531 0.3851269220956641 0.4541955810926654
0.08319148936170212 0.37930142271343154 0.4559257209684524
0.08340425531914894 0.3798788520971858 0.45960347571254184
0.08361702127659575 0.38934900393934924 0.46615973468019367
0.08382978723404255 0.39720682603207563 0.4653670785828204
0.08404255319148936 0.4066111634197384 0.46494627022618534
0.08425531914893616 0.4194351914380974 0.46789529259562385
0.08446808510638298 0.42928696506689346 0.46031700518885754
0.08468085106382979 0.44435276624831466 0.46285319508753603
0.0848936170212766 0.4589070223017393 0.464285843246686
0.0851063829787234 0.47142465573241804 0.4616506399356699
0.08531914893617021 0.48130252987976996 0.45985466281796966
0.08553191489361701 0.4878738693440977 0.46132707244711674
0.08574468085106383 0.49259086797249135 0.4609346842462443
0.08595744680851064 0.49600631832299885 0.46225876903047597
0.08617021276595745 0.4978016609672691 0.4636052760136786
0.08638297872340425 0.49754224451319445 0.4624379019703426
0.08659574468085106 0.49607607560166034 0.4558401418684388
0.08680851063829788 0.495847581827064 0.45287768691240726
0.08702127659574468 0.49635777770145856 0.45039356572795025
0.08723404255319149 0.5000409386261145 0.44671040480329444
0.0874468085106383 0.5036990875719605 0.4450767133658052
0.0876595744680851 0.5072934329111198 0.44867105870496454
0.08787234042553191 0.5085490962383976 0.4451065883151365
0.08808510638297873 0.5110675860535427 0.4422127186792384
0.08829787234042553 0.5152215435506392 0.44489863300400984
0.08851063829787234 0.5144221214441997 0.4489766519251059
0.08872340425531915 0.5160235139074154 0.4529801330831454
0.08893617021276595 0.5143926634986362 0.4558076296132347
0.08914893617021276 0.5108523558308645 0.456673106134434
0.08936170212765958 0.5038252818132245 0.451988390122674
0.08957446808510638 0.5007327796775769 0.4487573304159059
0.08978723404255319 0.5007327796775769 0.4464333980672616
0.09 0.5002189063760951 0.44289474255346845
0.0902127659574468 0.49300238548781444 0.4401348457384519
0.09042553191489362 0.4968158017370577 0.43918149167614096
0.09063829787234043 0.49962549433716813 0.44104653538778155
0.09085106382978723 0.50501185904003 0.4376292866129486
0.09106382978723404 0.5120170090968802 0.4348255707826122
0.09127659574468085 0.5208534930852975 0.43355216901096216
0.09148936170212765 0.5318770530408975 0.429314420147747
0.09170212765957447 0.5332955814991691 0.42774488110900505
0.09191489361702128 0.5293014420016904 0.42818867438650277
0.09212765957446808 0.5240893151658511 0.4295313180007111
0.09234042553191489 0.5174008037140894 0.4319635039831699
0.0925531914893617 0.5126839085321484 0.43970301830453556
0.0927659574468085 0.5061293015115664 0.4425563149245164
0.09297872340425532 0.49891849645576675 0.443565869985357
0.09319148936170213 0.4928359016210701 0.4470056735088952
0.09340425531914893 0.4850988064575883 0.4479726428920372
0.09361702127659574 0.47809327908419735 0.4479391247958332
0.09382978723404255 0.47266890892240543 0.44706627960116435
0.09404255319148937 0.46252358115923903 0.44829715134836906
0.09425531914893617 0.45228075404366497 0.45028211109474975
0.09446808510638298 0.4410032380673475 0.44760785263079034
0.09468085106382979 0.4276514130491462 0.45042885860679704
0.09489361702127659 0.42046304380661104 0.45127892395451646
0.0951063829787234 0.4139974963604198 0.4513129946068277
0.09531914893617022 0.4112421392737446 0.4538348803126526
0.09553191489361702 0.4131624395977735 0.4507076051137441
0.09574468085106383 0.41673586402138263 0.44501303680910087
0.09595744680851064 0.4213900830243773 0.44527034682985844
0.09617021276595744 0.42712143251075774 0.4463998068433869
0.09638297872340426 0.42812316201930845 0.4498757508741702
0.09659574468085107 0.4219123452389003 0.4539592261778158
0.09680851063829787 0.4175992388039408 0.45821068080795735
0.09702127659574468 0.40979167863171306 0.459005547931564
0.09723404255319149 0.4032538203344376 0.4601933424084819
0.09744680851063829 0.3927616666565409 0.4606741573033708
0.09765957446808511 0.38703432615559147 0.4623206483535672
0.09787234042553192 0.3794334851645865 0.45826219593670875
0.09808510638297872 0.3786028334147533 0.457743038593063
0.09829787234042553 0.38167835694410224 0.4538986341813768
0.09851063829787234 0.3877557112858815 0.4539067846606936
0.09872340425531914 0.3962841643502374 0.4533991750754442
0.09893617021276596 0.4080403265908443 0.44924994134346535
0.09914893617021277 0.4081811199525015 0.4432701613786835
0.09936170212765957 0.40172534966704443 0.4367128867221858
0.09957446808510638 0.393780069950664 0.43151476906220326
0.09978723404255319 0.3916332437423103 0.4322303777983213
0.1 0.3913043478260869 0.4342801332055959
0.10021276595744681 0.3920999262262426 0.43885123128140396
0.10042553191489362 0.3932584269662922 0.4444400383493893
0.10063829787234042 0.3932584269662922 0.4466024445730658
0.10085106382978723 0.3919669850566709 0.45086992905079826
0.10106382978723404 0.3893796849515932 0.4571883322101609
0.10127659574468086 0.3913169068724681 0.464171658012125
0.10148936170212766 0.4010681302575055 0.4704403016167918
0.10170212765957447 0.41810459470849376 0.4698768912983506
0.10191489361702127 0.4311253243119404 0.46872811975254414
0.10212765957446808 0.4337724077933677 0.46608103627111686
0.10234042553191489 0.42751452339474916 0.4624668778330664
0.1025531914893617 0.4096348243130427 0.4575905962653283
0.10276595744680851 0.39562115250785823 0.45256823329657103
0.10297872340425532 0.3838728406430251 0.44746027161620877
0.10319148936170212 0.3829193452675045 0.44507359066681357
0.10340425531914893 0.38698040732200195 0.4445772502504703
0.10361702127659575 0.3935674124847745 0.446772918638061
0.10382978723404256 0.3974536022756382 0.4461910693871236
0.10404255319148936 0.40104862208506364 0.4467448130688965
0.10425531914893617 0.4115423510090713 0.45174088727786244
0.10446808510638297 0.4255717161566324 0.4549926896159445
0.10468085106382978 0.43921654706458946 0.45533052363324494
0.1048936170212766 0.4513345362147351 0.4551456839514322
0.1051063829787234 0.462264208781076 0.454933262436922
0.10531914893617021 0.47228151616332686 0.45188080117244755
0.10553191489361702 0.4775253596788098 0.4520548824944186
0.10574468085106382 0.48441933536168463 0.45349447471552723
0.10595744680851064 0.4885117649021888 0.4570303092882506
0.10617021276595745 0.48910944386785715 0.4600869521114518
0.10638297872340426 0.4932125087692986 0.461103556874626
0.10659574468085106 0.4911689033445679 0.46594461525492653
0.10680851063829787 0.49213814046435994 0.4661058355124039
0.10702127659574467 0.4948705422569615 0.4679402823643092
0.1072340425531915 0.4979900963136547 0.4683648502999344
0.1074468085106383 0.5001859373285473 0.4627084982807791
0.1076595744680851 0.5031974272108866 0.45568181611262065
0.10787234042553191 0.5056179775280898 0.44694970103796783
0.10808510638297872 0.5067495454223532 0.4419558771472608
0.10829787234042552 0.5092049259386495 0.44058907614453424
0.10851063829787234 0.5110481914923208 0.4396113102174984
0.10872340425531915 0.5131080637166882 0.441892368041085
0.10893617021276596 0.5166461047050821 0.44361753040241303
0.10914893617021276 0.5210637827079646 0.4455615967193379
0.10936170212765957 0.524181729360039 0.44992672203224227
0.10957446808510639 0.5277702007707733 0.4485810452532169
0.1097872340425532 0.5295128394267965 0.44600152072430915
0.11 0.5307512491529243 0.4450415241817294
0.1102127659574468 0.5279491959097282 0.4434043616859102
0.11042553191489361 0.5167070873696387 0.4438824788587755
0.11063829787234042 0.5055354911160187 0.44441227296329405
0.11085106382978724 0.4936081954271954 0.4427142139748794
0.11106382978723404 0.4863669652895543 0.44211040547142155
0.11127659574468085 0.48587338309610484 0.4413371689312522
0.11148936170212766 0.4819756422894961 0.43785213083208546
0.11170212765957446 0.48380005181457997 0.4346171440818538
0.11191489361702127 0.4850453836892693 0.4315272588002916
0.11212765957446809 0.4889957468522866 0.42649346982985414
0.1123404255319149 0.49479423615991625 0.42373628173906336
0.1125531914893617 0.5127440297048934 0.4272636284624924
0.1127659574468085 0.516752658288276 0.42645573232108974
0.11297872340425531 0.5249142242500979 0.4320954650903521
0.11319148936170213 0.5220525315299814 0.43153808889014555
0.11340425531914894 0.5143755329168853 0.43802115957384186
0.11361702127659574 0.5039186921018609 0.44161997044610657
0.11382978723404255 0.49189904342577984 0.4449300962954567
0.11404255319148936 0.4756491018912611 0.4496495777130291
0.11425531914893616 0.45774684923781644 0.451552580885911
0.11446808510638298 0.4485055782726945 0.4574765709027343
0.11468085106382979 0.44178620778344746 0.4587200781631655
0.1148936170212766 0.4325949802575397 0.45944214724612414
0.1151063829787234 0.4308268191452315 0.4619451225501674
0.11531914893617021 0.4331960235407127 0.4636052760136786
0.11553191489361703 0.43240755609527426 0.46394300763807117
0.11574468085106383 0.4330917674405843 0.4680399100643635
0.11595744680851064 0.4294324908222623 0.46072135682771953
0.11617021276595745 0.42487612375683853 0.46158071076402063
0.11638297872340425 0.41123174576306676 0.4608204501580666
0.11659574468085106 0.3997853775512327 0.4580725337214563
0.11680851063829788 0.38948289450467416 0.45714797312974864
0.11702127659574468 0.38106366317126006 0.45757412172096246
0.11723404255319149 0.38626840251519345 0.4558392086063181
0.1174468085106383 0.3932265490784767 0.4518990171083421
0.1176595744680851 0.40733578042264873 0.4469557233744424
0.11787234042553191 0.41723295811219596 0.4463689513941263
0.11808510638297873 0.4227089745962007 0.4497873615054113
0.11829787234042553 0.42279164612456105 0.4502709456132344
0.11851063829787234 0.4179636768132331 0.4562674790373804
0.11872340425531915 0.41078372299251226 0.4586068223255623
0.11893617021276595 0.40563330766413963 0.4613274247303431
0.11914893617021277 0.406416471728963 0.46119466652213614
0.11936170212765958 0.4101087017840575 0.45669067533629226
0.11957446808510638 0.40954785923515674 0.45201542466218503
0.11978723404255319 0.40794908854580064 0.44537223784091734
0.12 0.4061237138353663 0.4405798966508056
0.1202127659574468 0.4040058622374205 0.44075735137855876
0.12042553191489362 0.407897724780705 0.441133365901319
0.12063829787234043 0.4140615034789632 0.4425311671749613
0.12085106382978723 0.41795042157834666 0.44382747320808924
0.12106382978723404 0.42023030973336745 0.44328005763942274
0.12127659574468085 0.4156643070846541 0.4422622404007724
0.12148936170212765 0.4034999461246013 0.439513478228972
0.12170212765957447 0.39385685632228834 0.4382687393416774
0.12191489361702128 0.37886890817392804 0.43628364468536274
0.12212765957446808 0.3694884288847994 0.4402205360110226
0.12234042553191489 0.35959092005241156 0.4428573413554091
0.1225531914893617 0.35368195270301 0.4512621868484742
0.12276595744680852 0.3506166457774698 0.44786550306116335
0.12297872340425532 0.35357015081656035 0.45210536547154373
0.12319148936170213 0.3608182061075416 0.45477108330800997
0.12340425531914893 0.37137035119569484 0.46015558987049476
0.12361702127659574 0.3824887789185809 0.46160581957347985
0.12382978723404255 0.3931398681102825 0.4642688963585831
0.12404255319148937 0.4025110750105391 0.4699268053476177
0.12425531914893617 0.41080475058622135 0.4755413142256971
0.12446808510638298 0.4307253090587002 0.46877715606028086
0.12468085106382978 0.4464723356210485 0.47010057428876495
0.12489361702127659 0.4590912679412347 0.46943423440791177
0.1251063829787234 0.46796643071522387 0.47487675443377475
0.12531914893617022 0.4698550325518462 0.4718091116920515
0.125531914893617 0.467513434294089 0.4687527597387581
0.12574468085106383 0.4666447461316418 0.4656677065615391
0.12595744680851065 0.46829042620221634 0.4636052760136786
0.12617021276595744 0.4733816233435421 0.4620467740045846
0.12638297872340426 0.47176727486590303 0.45969711773326827
0.12659574468085105 0.4758393152506548 0.45821893161169797
0.12680851063829787 0.4793452453565075 0.45839256270989576
0.1270212765957447 0.48258262663656665 0.4573294398021242
0.12723404255319148 0.49056547226550345 0.45643319598082494
0.1274468085106383 0.5029347343957362 0.4546795609362964
0.1276595744680851 0.5155383451723506 0.4568159896707053
0.12787234042553192 0.5222788832254822 0.4561592820786396
0.1280851063829787 0.5315943554210485 0.4549499928897466
0.12829787234042553 0.5338640420002263 0.45570087639201917
0.12851063829787235 0.5330132008649424 0.4586057320412253
0.12872340425531914 0.5310211660461771 0.45676615871838033
0.12893617021276596 0.5301307795376634 0.45765622583605425
0.12914893617021275 0.530885774538038 0.45942665410782974
0.12936170212765957 0.535985594556578 0.45721482363035776
0.1295744680851064 0.5360664531426631 0.4543156271368316
0.12978723404255318 0.5335406005004559 0.4538348803126526
0.13 0.5284863339731801 0.4493461287948705
0.1302127659574468 0.5263856859913132 0.4465183187339698
0.13042553191489362 0.5211518736721031 0.4431706009928941
0.13063829787234044 0.5159979335379765 0.44211040547142155
0.13085106382978723 0.513234473535291 0.44328726559514386
0.13106382978723405 0.5097283407422052 0.4429729191009857
0.13127659574468084 0.5045979704071688 0.4401276812973374
0.13148936170212766 0.5001277874327282 0.4378067392372734
0.13170212765957448 0.4989575403792354 0.43606932820894234
0.13191489361702127 0.5017098192476794 0.43213302265308823
0.1321276595744681 0.5018954494721092 0.4273180701434068
0.13234042553191488 0.5027435850126497 0.4223427092898998
0.1325531914893617 0.5035080745512666 0.419284751135432
0.1327659574468085 0.5020896363852775 0.4186614557889594
0.13297872340425532 0.49959622774120777 0.4200253181126024
0.13319148936170214 0.4959740816538418 0.4243718934174417
0.13340425531914893 0.4927023660750665 0.4292415168375712
0.13361702127659575 0.4913626992214486 0.433269552256216
0.13382978723404254 0.49055824433702305 0.4376959663178713
0.13404255319148936 0.48745209523862904 0.4420833343392513
0.13425531914893618 0.4772730894200549 0.44569646408681773
0.13446808510638297 0.46166628858573516 0.44951014674680717
0.1346808510638298 0.44932300202552916 0.44923725055348973
0.13489361702127659 0.44102859097392566 0.45557940959807114
0.1351063829787234 0.4397099336747764 0.4538348803126526
0.13531914893617022 0.43354337795388603 0.4538348803126526
0.13553191489361702 0.4333170493404983 0.45193939872853284
0.13574468085106384 0.4284537768656667 0.45185887579676626
0.13595744680851063 0.4295437566109802 0.4507014632760064
0.13617021276595745 0.43182482280420703 0.4476262534391017
0.13638297872340424 0.4346082596285323 0.4448758069686866
0.13659574468085106 0.4311426674934417 0.4451659981458834
0.13680851063829788 0.4284929958285811 0.4491862993123409
0.13702127659574467 0.4208552143178609 0.4506124819328458
0.1372340425531915 0.4111265798747499 0.45425303993605115
0.13744680851063829 0.4020103316726193 0.4567798161644926
0.1376595744680851 0.38928496644164307 0.45856184329765426
0.13787234042553193 0.37862519396679756 0.4570618648102689
0.13808510638297872 0.3740857642686087 0.45676798629790893
0.13829787234042554 0.3714545122785568 0.44859073118299403
0.13851063829787233 0.3764304101358618 0.44451661370689705
0.13872340425531915 0.38559464355921413 0.44454029330053285
0.13893617021276597 0.3995941005542084 0.44682773552100064
0.13914893617021276 0.4114015093678081 0.4495543011277155
0.13936170212765958 0.41801655024965206 0.4505793725804628
0.13957446808510637 0.41824413301589974 0.4529953051170883
0.1397872340425532 0.4161887425147806 0.45308704346061457
0.13999999999999999 0.4085008881040046 0.4552676570674325
0.1402127659574468 0.3951831064873826 0.45746808437576436
0.14042553191489363 0.38173266114989335 0.457743038593063
0.14063829787234042 0.37215019210808564 0.457743038593063
0.14085106382978724 0.367122999095672 0.4568149271273904
0.14106382978723403 0.3630328495376646 0.45965013079985373
0.14127659574468085 0.36312635484283184 0.4606429263934268
0.14148936170212767 0.36790806042187246 0.4596883406868937
0.14170212765957446 0.3734420780304829 0.4587660044187918
0.14191489361702128 0.3783352962245773 0.46102890849333406
0.14212765957446807 0.3845746566590572 0.46364911034315387
0.1423404255319149 0.39070466035956364 0.4653900561946735
0.1425531914893617 0.3953952430120794 0.46480373336310904
0.1427659574468085 0.3985025595325268 0.4652503027266932
0.14297872340425533 0.40064917882804174 0.46632361237445064
0.14319148936170212 0.39760426044811326 0.46523496356936145
0.14340425531914894 0.3932756319679166 0.4636117278892878
0.14361702127659573 0.3956610366043486 0.4636052760136786
0.14382978723404255 0.39811235243464893 0.4628959506227188
0.14404255319148937 0.4006286269370374 0.46100874474592746
0.14425531914893616 0.4157134148211168 0.4592102901739703
0.14446808510638298 0.4242276378907282 0.45727523697854017
0.14468085106382977 0.4292876434308275 0.45676599902296044
0.1448936170212766 0.43179010953815167 0.45887226738490217
0.1451063829787234 0.4323400097703958 0.4625462902853233
0.1453191489361702 0.4338650682762996 0.46131768825482267
0.14553191489361703 0.4423327915307456 0.4590664167793418
0.14574468085106382 0.4577670057908117 0.4587200781631655
0.14595744680851064 0.4741979387221677 0.4569074755395532
0.14617021276595746 0.4829987939793672 0.4529314774607317
0.14638297872340425 0.49130161208762696 0.4575395017264175
0.14659574468085107 0.5013262326168475 0.4520503591550963
0.14680851063829786 0.5082253235192871 0.4534429202020574
0.14702127659574468 0.5119553635982274 0.45006727673471053
0.14723404255319147 0.5108230046725976 0.44645085337319773
0.1474468085106383 0.5175239696808425 0.4471717942226397
0.14765957446808511 0.5270053650369865 0.44345790949545855
0.1478723404255319 0.5341947521522926 0.43758588265515425
0.14808510638297873 0.5352952619042879 0.4325436572027231
0.14829787234042552 0.5401461927066348 0.43005410040523623
0.14851063829787234 0.5425207748570304 0.427005399249967
0.14872340425531916 0.5412646262844967 0.42600454811706673
0.14893617021276595 0.5380112311905073 0.4278122826991824
0.14914893617021277 0.5321131355062952 0.4262687407228246
0.14936170212765956 0.5205262766618897 0.42751798831544807
0.14957446808510638 0.5085608378232264 0.42727183127766916
0.1497872340425532 0.5005075191546347 0.4327905308162803
0.15 0.4956755070964791 0.4389080481429998
0.15021276595744681 0.4924263535905086 0.4435711956029865
0.1504255319148936 0.4977307504905803 0.44718120745898454
0.15063829787234043 0.5022964691361432 0.4495363323506034
0.15085106382978725 0.5122374126588353 0.45183683280045295
0.15106382978723404 0.5241840227095558 0.4521736837085266
0.15127659574468086 0.535898538495609 0.4548093646475349
0.15148936170212765 0.5403961638415112 0.45267127759299114
0.15170212765957447 0.5440976335950882 0.4551870327157528
0.15191489361702126 0.5412634377146068 0.45407089814406454
0.15212765957446808 0.5389809976742473 0.4538348803126526
0.1523404255319149 0.5331061691476063 0.4538348803126526
0.1525531914893617 0.5200881315477961 0.4470265099105732
0.15276595744680851 0.5137344564979084 0.4477470171716689
0.1529787234042553 0.5052834589726894 0.4449671867249737
0.15319148936170213 0.495898712927381 0.44318003588850263
0.15340425531914895 0.48564837904722064 0.44420506927651887
0.15361702127659574 0.47708907407367196 0.4458205478675007
0.15382978723404256 0.47058359454189314 0.4499450208765952
0.15404255319148935 0.4529323123837511 0.4540612646477521
0.15425531914893617 0.45029517936951424 0.4583888849771753
0.154468085106383 0.44850621398235613 0.4631594593429307
0.15468085106382978 0.4459903590676373 0.46392155430898124
0.1548936170212766 0.4430014672153505 0.45816512410333504
0.1551063829787234 0.43700735912135624 0.4521439263456683
0.15531914893617021 0.4282377538591745 0.4524667337404624
0.155531914893617 0.41057857773194295 0.45871543875964804
0.15574468085106383 0.3875234774122446 0.46147020843810177
0.15595744680851065 0.36584285227174973 0.4588513028543702
0.15617021276595744 0.35224011850714704 0.45878081536123844
0.15638297872340426 0.3543674126419693 0.46549583232729014
0.15659574468085105 0.35722383037455613 0.464698183085841
0.15680851063829787 0.3592691232255738 0.4655593551538837
0.1570212765957447 0.3691001747949688 0.4655593551538837
0.15723404255319148 0.3848198181217063 0.4642275682974436
0.1574468085106383 0.39215524430412046 0.46035898937100905
0.1576595744680851 0.4056021782635922 0.45859622287195184
0.15787234042553192 0.4176631280333913 0.4559346188730055
0.15808510638297874 0.4285916884680952 0.4552785274806771
0.15829787234042553 0.43469361462958195 0.45216166813666825
0.15851063829787235 0.42648089529898797 0.44894968246213973
0.15872340425531914 0.4172435798576105 0.4495709674109478
0.15893617021276596 0.41273113000554273 0.44520833119189424
0.15914893617021275 0.4125475660454118 0.44018589605284214
0.15936170212765957 0.42190008454623895 0.43462885367216636
0.1595744680851064 0.4300991025871963 0.4357065105023361
0.15978723404255318 0.431362970200293 0.43708786493292423
0.16 0.4226120576588471 0.44685121141649936
0.1602127659574468 0.4033348897718683 0.44449498865824694
0.16042553191489362 0.3883575728590789 0.44915135287884034
0.16063829787234044 0.3730830069834726 0.45348302683013597
0.16085106382978723 0.3664987363051932 0.4520799402730387
0.16106382978723405 0.3604379105234596 0.45370193733243414
0.16127659574468084 0.3619581064765471 0.4490373180782954
0.16148936170212766 0.36009835897087894 0.45188080117244755
0.16170212765957448 0.36289716616685846 0.4517347329199407
0.16191489361702127 0.36225390654871137 0.44966597620654025
0.1621276595744681 0.3643093550953429 0.4479726428920372
0.16234042553191488 0.366335175582061 0.4477557146027165
0.1625531914893617 0.3702666863734075 0.448335207894036
0.1627659574468085 0.3775949005628006 0.45156541907636333
0.16297872340425532 0.3821409560787336 0.4501720235755226
0.16319148936170214 0.39222958948580405 0.44894968246213973
0.16340425531914893 0.4056943687059493 0.44894968246213973
0.16361702127659575 0.4180481087173642 0.4479120274756192
0.16382978723404254 0.429839006380069 0.45157185986055015
0.16404255319148936 0.44245458939243876 0.44979007343239336
0.16425531914893618 0.4544858840761202 0.44427186486586695
0.16446808510638297 0.4650705502754989 0.441621942705037
0.1646808510638298 0.4733815323601684 0.4359987800934995
0.16489361702127658 0.4808660159084808 0.4356781551739937
0.1651063829787234 0.4923092131121592 0.4397724548571249
0.16531914893617022 0.49811318306328334 0.4471749691979037
0.16553191489361702 0.50282515172616 0.45056826293765495
0.16574468085106384 0.5071028856375951 0.4586414829141932
0.16595744680851063 0.5102987644563726 0.45969711773326827
0.16617021276595745 0.5076160276474928 0.4606595003103049
0.16638297872340424 0.5033223538731357 0.45868212877263786
0.16659574468085106 0.4946835896500695 0.45727565707583306
0.16680851063829788 0.4921831029949889 0.4530045127669035
0.16702127659574467 0.48682634322270885 0.4534332396314745
0.1672340425531915 0.481664056604699 0.4523857724133762
0.16744680851063828 0.4802149487054226 0.4559254049604181
0.1676595744680851 0.48256536605253375 0.46302457465048197
0.16787234042553192 0.49010785806318835 0.46675002620232703
0.16808510638297872 0.4961680036160822 0.4659918422735906
0.16829787234042554 0.5026503468948573 0.46508178894570984
0.16851063829787233 0.5129259840056801 0.4641406687474171
0.16872340425531915 0.5173424523693209 0.45870963547030974
0.16893617021276597 0.5192616251268618 0.4541721956302416
0.16914893617021276 0.5161346516613002 0.45176542060348834
0.16936170212765958 0.5084668601015282 0.4494176432129736
0.16957446808510637 0.4947385566916597 0.45132097454344633
0.1697872340425532 0.4784916846007854 0.45272128485656427
0.17 0.46316350009947854 0.45110540203247884
0.1702127659574468 0.4505216236167718 0.45183122604040343
0.17042553191489362 0.44895940970790127 0.4489438461146828
0.17063829787234042 0.45394376826263416 0.4460730077268227
0.17085106382978724 0.45700770742859864 0.44648779166537583
0.17106382978723403 0.4698504593346145 0.44148719879394804
0.17127659574468085 0.48449220185727604 0.4382022471910112
0.17148936170212767 0.500896444848978 0.43713824962671494
0.17170212765957446 0.5267072097503677 0.43429408891060084
0.17191489361702128 0.539230347692354 0.4331860410802395
0.17212765957446807 0.5442784335810155 0.431362970200293
0.1723404255319149 0.5366036545178461 0.431362970200293
0.1725531914893617 0.5158230594344916 0.431362970200293
0.1727659574468085 0.4907454683996846 0.431362970200293
0.17297872340425532 0.4715458224931398 0.4325188536952641
0.17319148936170212 0.46494473351745147 0.43454629261336275
0.17340425531914894 0.46921045262380656 0.4352711284807034
0.17361702127659576 0.4784012035356916 0.4373650117690611
0.17382978723404255 0.4841764935135841 0.4411867524290702
0.17404255319148937 0.4835008967078305 0.44291003039547405
0.17425531914893616 0.4797329206254627 0.4465005918317918
0.17446808510638298 0.4683569472796389 0.44880909696454807
0.17468085106382977 0.46270072220091446 0.44509951278760024
0.1748936170212766 0.4558295356142532 0.44593741142904136
0.1751063829787234 0.45667512016843614 0.4443371211751997
0.1753191489361702 0.45618752280475067 0.4476598755750891
0.17553191489361702 0.4585317827471688 0.45282227825243093
0.17574468085106382 0.4589365326268803 0.45819819186354116
0.17595744680851064 0.4632073775623659 0.4623386658841809
0.17617021276595746 0.4655885634924529 0.46198661284303055
0.17638297872340425 0.4671283271660208 0.4618580221874397
0.17659574468085107 0.46480469299204 0.4611070827363573
0.17680851063829786 0.4578037805186985 0.46213364246596106
0.17702127659574468 0.4470053100540789 0.46262823644357587
0.1772340425531915 0.4362879687744581 0.46029926176479047
0.1774468085106383 0.4272709444703439 0.4587200781631655
0.1776595744680851 0.41491959202640494 0.457348063708427
0.1778723404255319 0.40344407086129563 0.4538055716762232
0.17808510638297873 0.39473544797952514 0.45206542879910167
0.17829787234042552 0.3873242208429075 0.4544240323681837
0.17851063829787234 0.38374119107796817 0.45481191988275516
0.17872340425531916 0.3834880312652662 0.45292007915567756
0.17893617021276595 0.3835106725314537 0.44994936329842977
0.17914893617021277 0.38469994605197955 0.45106034508008536
0.17936170212765956 0.3876616532766326 0.45272510887707207
0.17957446808510638 0.38897341863888063 0.4516923761489469
0.1797872340425532 0.3869176988065961 0.4509037616023448
0.18 0.3860260282428213 0.44973592592764516
0.1802127659574468 0.38670809319940214 0.44630750697566
0.1804255319148936 0.3854421104054715 0.44464653132486837
0.18063829787234043 0.38588941396746984 0.44406448461162684
0.18085106382978725 0.3841549168633436 0.444970177856519
0.18106382978723404 0.37974867144601304 0.45048176544945223
0.18127659574468086 0.3776257938446508 0.4538322468965598
0.18148936170212765 0.3781596389705373 0.4550838719277667
0.18170212765957447 0.3780410647813771 0.4616754190266968
0.18191489361702126 0.3782242291501616 0.46398388027827037
0.18212765957446808 0.3792569366159829 0.4649134824161379
0.1823404255319149 0.37887257293060894 0.46838855537087143
0.1825531914893617 0.3786028334147533 0.46494765661663495
0.1827659574468085 0.38262754146760797 0.4628003344031075
0.1829787234042553 0.3858292489116681 0.460677221738241
0.18319148936170213 0.3886396700126155 0.4583352041541182
0.18340425531914895 0.3920567459193506 0.4543599420512271
0.18361702127659574 0.3979710038540847 0.4508381649334961
0.18382978723404256 0.4072788222755434 0.4484904983685357
0.18404255319148935 0.4152181127779161 0.4479726428920372
0.18425531914893617 0.4256849782329809 0.447156497293471
0.184468085106383 0.43861437868479375 0.44871245974730545
0.18468085106382978 0.45195765735518584 0.44894968246213973
0.1848936170212766 0.46023189125788155 0.4517149514053891
0.1851063829787234 0.47112942791278567 0.45188080117244755
0.1853191489361702 0.4764899029286948 0.45098223838963736
0.185531914893617 0.4834807741208038 0.45358385028384757
0.18574468085106383 0.48788709393473473 0.4509037616023448
0.18595744680851065 0.4948111065545496 0.45147215463368284
0.18617021276595744 0.50127156988999 0.4521837098968951
0.18638297872340426 0.4974035214211377 0.4467061533099489
0.18659574468085105 0.4974118133636001 0.44636028554527485
0.18680851063829787 0.4936861571563821 0.44660080828840804
0.1870212765957447 0.4901568564847155 0.4460185637518319
0.18723404255319148 0.4855343993353726 0.4475166833103544
0.1874468085106383 0.4820338547907569 0.45006189508711314
0.1876595744680851 0.48241874148670166 0.4496770083911684
0.18787234042553191 0.4864877574355109 0.44894968246213973
0.18808510638297873 0.4959424049060715 0.44751129343671636
0.18829787234042553 0.5065009606330109 0.44699560332193444
0.18851063829787235 0.5193003916992798 0.4461685805941743
0.18872340425531914 0.5308891584136713 0.44514233213692833
0.18893617021276596 0.5413631742873478 0.4441901488756851
0.18914893617021278 0.5498906689097538 0.4449576330763475
0.18936170212765957 0.550561797752809 0.4422024014621969
0.1895744680851064 0.5495609569404141 0.4420866042291292
0.18978723404255318 0.5482438451146281 0.4412061406009141
0.19 0.5434780746800955 0.4423548515534169
0.1902127659574468 0.540752894709131 0.4444030002492117
0.19042553191489361 0.5350080706462574 0.4460185637518319
0.19063829787234043 0.5295038689951699 0.44574143298231084
0.19085106382978723 0.5202180979096368 0.4453733677239849
0.19106382978723405 0.5105611547729711 0.4460185637518319
0.19127659574468084 0.5016160933266266 0.4468828050750778
0.19148936170212766 0.4978016609672691 0.4460442323434197
0.19170212765957448 0.4967305393959524 0.44299336304031006
0.19191489361702127 0.49820781451424007 0.44211040547142155
0.1921276595744681 0.5029829903335858 0.44533765569753303
0.19234042553191488 0.5018414789783537 0.44699560332193444
0.1925531914893617 0.49771137490098194 0.44472954973948836
0.19276595744680852 0.4879131529275895 0.4448746181088611
0.19297872340425531 0.47139945371046815 0.44676831623061986
0.19319148936170213 0.45391528987216884 0.4488252766821846
0.19340425531914893 0.4431766880902103 0.44507722140120387
0.19361702127659575 0.43904267833834687 0.444246629175316
0.19382978723404254 0.43634464383922855 0.4480691186804596
0.19404255319148936 0.4375251812983025 0.44879969562344285
0.19425531914893618 0.43795574169396195 0.4479726428920372
0.19446808510638297 0.43231519370174526 0.44897449853079024
0.1946808510638298 0.4302462693440587 0.4513225489831337
0.19489361702127658 0.4320066913435087 0.45092667731290326
0.1951063829787234 0.4336976838264029 0.45324695968023504
0.19531914893617022 0.4399023431699527 0.4542810695708266
0.19553191489361701 0.44509284940380134 0.4538092177016166
0.19574468085106383 0.44921420177372057 0.4550764391943362
0.19595744680851063 0.45333941968123065 0.456157084503239
0.19617021276595745 0.45481191988275516 0.4518489729455354
0.19638297872340427 0.4526900848179064 0.44992672203224227
0.19659574468085106 0.4442638191137373 0.44535653279701626
0.19680851063829788 0.43764040327462644 0.4418294835132292
0.19702127659574467 0.4316399597904924 0.4395972964812144
0.1972340425531915 0.42465400869113823 0.43917928676111373
0.19744680851063828 0.4209557316810856 0.4417702087195007
0.1976595744680851 0.4132807049182869 0.44761152797958004
0.19787234042553192 0.40254362691337764 0.4535666018674732
0.19808510638297872 0.39228607979509156 0.4606708726241393
0.19829787234042554 0.38000923471644527 0.4608110767629991
0.19851063829787233 0.3673287992256028 0.46350503344780364
0.19872340425531915 0.35362638376607025 0.46290346664163506
0.19893617021276597 0.3519701059665623 0.46496040893595536
0.19914893617021276 0.36026266911901556 0.465575893038935
0.19936170212765958 0.3659735017968729 0.4608914405004401
0.19957446808510637 0.3721380472003793 0.45609023384973707
0.1997872340425532 0.37586006100361125 0.45325807205706414
0.2 0.37674350204795615 0.4491391780089557
0.2002127659574468 0.37666208720799504 0.44699560332193444
0.20042553191489362 0.3787247148636557 0.44369884026491946
0.20063829787234042 0.38319914625374696 0.4417365781128008
0.20085106382978724 0.3873912856630396 0.4427601305572776
0.20106382978723403 0.38767587784010205 0.4430874450415241
0.20127659574468085 0.3851542035314356 0.44383477371293784
0.20148936170212767 0.38208398265061616 0.44485818067321103
0.20170212765957446 0.37561867978821384 0.4425064074659376
0.20191489361702128 0.3729125213574271 0.447456866802169
0.20212765957446807 0.36332780449842744 0.45079648034075015
0.2023404255319149 0.3540824392096445 0.45583616192912996
0.2025531914893617 0.34860262825702343 0.45850406202657773
0.2027659574468085 0.35257173542842213 0.4559052829216708
0.20297872340425532 0.3568844295191382 0.45624683528690635
0.20319148936170212 0.36809986124346494 0.4538348803126526
0.20340425531914894 0.38286057053316974 0.45241563460651385
0.20361702127659576 0.3997208137668344 0.44826943121997737
0.20382978723404255 0.4181209831824189 0.44660192804792337
0.20404255319148937 0.4349576963478044 0.44557721760901303
0.20425531914893616 0.453709378167458 0.44600601353731245
0.20446808510638298 0.47208051831471654 0.4443470901028601
0.20468085106382977 0.4838927764304125 0.44211040547142155
0.2048936170212766 0.49393075557086624 0.4439858227099831
0.2051063829787234 0.5017933113251483 0.4463720743010223
0.2053191489361702 0.5086658546355114 0.4512829943913288
0.20553191489361702 0.5143492832672253 0.45131939758710105
0.20574468085106382 0.5178605995933507 0.4509037616023448
0.20595744680851064 0.5183194919394236 0.45704081411662345
0.20617021276595746 0.5164620085660953 0.457743038593063
0.20638297872340425 0.5124493288724429 0.4616591225198385
0.20659574468085107 0.5112327679303531 0.4628138217073401
0.20680851063829786 0.5078050230557615 0.4655593551538837
0.20702127659574468 0.5080037495749375 0.4662359712576893
0.2072340425531915 0.49922015398768826 0.47033187097137324
0.2074468085106383 0.4941552292086192 0.47285221867118354
0.2076595744680851 0.4954901161458307 0.47111180563006466
0.2078723404255319 0.49970369745863724 0.4704445530043966
0.20808510638297872 0.505468675659794 0.46878907760078325
0.20829787234042554 0.5075330431812388 0.46559836864093995
0.20851063829787234 0.510114739077845 0.46197291085136893
0.20872340425531916 0.5109059042697152 0.45854849637528766
0.20893617021276595 0.5080150499244958 0.45338881904837547
0.20914893617021277 0.5079399411298241 0.44888637555489747
0.20936170212765956 0.5099948853386764 0.44580395924161903
0.20957446808510638 0.5128254041043061 0.4434933716979271
0.2097872340425532 0.5150906509482993 0.4488846940493848
0.21 0.5180278617155746 0.4437679155638386
0.2102127659574468 0.5145767234976463 0.44402313715196856
0.2104255319148936 0.5143814595195759 0.4459986476588737
0.21063829787234042 0.5114802149487054 0.4439348955827871
0.21085106382978724 0.5114802149487054 0.44211040547142155
0.21106382978723404 0.511140299907428 0.4419404479507829
0.21127659574468086 0.508878656764453 0.441133365901319
0.21148936170212765 0.5062799411166135 0.4418685431916701
0.21170212765957447 0.5049032807732621 0.4450807506594902
0.2119148936170213 0.5035302133134669 0.44810632796645494
0.21212765957446808 0.5021895833742928 0.44944695790562905
0.2123404255319149 0.5037724626034508 0.450958043710128
0.2125531914893617 0.5009105124135521 0.4507039348938131
0.2127659574468085 0.4924859883211988 0.4475421680964798
0.2129787234042553 0.48801962572620505 0.4427481857214455
0.21319148936170212 0.4829928898794652 0.43678947580805155
0.21340425531914894 0.47975101409148024 0.4330850820335272
0.21361702127659574 0.47670572484566726 0.43272879595028324
0.21382978723404256 0.46880186052617645 0.4351154351497109
0.21404255319148935 0.45921760443230963 0.44011564217822446
0.21425531914893617 0.44655184719545704 0.44830545998689525
0.214468085106383 0.434880106201311 0.4571081435174288
0.21468085106382978 0.4275675063962786 0.46350666834683213
0.2148936170212766 0.42029920785310204 0.4636052760136786
0.2151063829787234 0.4157584892793429 0.4651572784455662
0.2153191489361702 0.41215488861483296 0.4642601507070257
0.21553191489361703 0.41177069084486523 0.4562008630798667
0.21574468085106382 0.41556666293956596 0.4479726428920372
0.21595744680851064 0.4242979315556223 0.4479726428920372
0.21617021276595744 0.429772824519982 0.4449211487918197
0.21638297872340426 0.43373181184124643 0.4441312965946621
0.21659574468085105 0.4357926946770721 0.44692951049929996
0.21680851063829787 0.43209665996968316 0.45393627606294956
0.2170212765957447 0.4217962271525452 0.4582281230700903
0.21723404255319148 0.4109378237519306 0.4603330300260379
0.2174468085106383 0.4036923740904539 0.46364483501621634
0.2176595744680851 0.3980652230380029 0.4625890355541749
0.2178723404255319 0.3942310385962418 0.4636097039538315
0.21808510638297873 0.39534588725101305 0.46110321510924623
0.21829787234042553 0.39917735690294015 0.45895016492668306
0.21851063829787234 0.40169632992529736 0.45552282622659135
0.21872340425531914 0.4029034381261069 0.45310860982497225
0.21893617021276596 0.403028822667318 0.4492507038890783
0.21914893617021278 0.4077934430511719 0.44990260653891045
0.21936170212765957 0.4186614557889594 0.4479726428920372
0.2195744680851064 0.41880787442683415 0.44767980561628773
0.21978723404255318 0.4201639305467622 0.443725781324825
0.22 0.4155545822247283 0.440639311148165
0.2202127659574468 0.4081752420235439 0.4392602832125689
0.2204255319148936 0.3999314440359213 0.4438825721895094
0.22063829787234043 0.3920362403814629 0.44664691408181245
0.22085106382978723 0.38668091641359775 0.4490455525901554
0.22106382978723405 0.38425638064655426 0.4524847346142344
0.22127659574468084 0.38340274097827615 0.4539201705996427
0.22148936170212766 0.3840056857165803 0.45102030026739615
0.22170212765957448 0.38391539658680485 0.44766758649752375
0.22191489361702127 0.3837499460830115 0.44637612612801053
0.2221276595744681 0.381536268558262 0.44738549257669513
0.22234042553191488 0.3780757994682431 0.4487696802127028
0.2225531914893617 0.3792525451695204 0.45111868422863266
0.22276595744680852 0.3800364441280922 0.4535517986450384
0.2229787234042553 0.37831558640588525 0.4558462756079811
0.22319148936170213 0.3770168857991493 0.45707045304571114
0.22340425531914893 0.37600061238416305 0.4575785897532042
0.22361702127659575 0.377814501239495 0.457743038593063
0.22382978723404254 0.3817960123845485 0.4580528135504605
0.22404255319148936 0.3910182498126081 0.46035837290747544
0.22425531914893618 0.4039069268221683 0.45588717048090893
0.22446808510638297 0.418599770998061 0.4538348803126526
0.2246808510638298 0.4321093552961806 0.4513063262837841
0.22489361702127658 0.4444730782934835 0.44992672203224227
0.2251063829787234 0.4550950732684031 0.44762967703839296
0.22531914893617022 0.4680967805759415 0.44789390423438713
0.225531914893617 0.4781154429814733 0.4475954621002057
0.22574468085106383 0.49191389966645516 0.44626441888686996
0.22595744680851063 0.5005764219059409 0.4444422837255397
0.22617021276595745 0.5025525204970188 0.444907185860966
0.22638297872340427 0.5035744826486649 0.4459291480126121
0.22659574468085106 0.500840274381059 0.44884218775865753
0.22680851063829788 0.5017125468500936 0.44796991528962304
0.22702127659574467 0.5027938550893087 0.44699560332193444
0.2272340425531915 0.5046409379579873 0.44699560332193444
0.22744680851063828 0.5047948848532564 0.4466877095313961
0.2276595744680851 0.5058276363216873 0.44441254780093703
0.22787234042553192 0.5068566243221252 0.4431568343671524
0.22808510638297871 0.5091410156920744 0.44570477194707603
0.22829787234042553 0.5157594847998741 0.44577535313307737
0.22851063829787233 0.5245897890839759 0.4461608087133733
0.22872340425531915 0.5281308849812274 0.4422333974937557
0.22893617021276597 0.5242756393763679 0.43634207806713493
0.22914893617021276 0.5207847203186573 0.43145348801620254
0.22936170212765958 0.5217982910126693 0.42534297123864656
0.22957446808510637 0.5282167136278586 0.42437703218700173
0.2297872340425532 0.5471639053971992 0.42587113797072657
0.23 0.5655656357328193 0.42811261865379036
0.2302127659574468 0.5778172067087762 0.43572085087692775
0.23042553191489362 0.5808500244259893 0.44723098623512947
0.23063829787234041 0.5719946285170051 0.45556197397432313
0.23085106382978723 0.5555100139037049 0.46191631969983893
0.23106382978723405 0.5380037308832527 0.4690061363882258
0.23127659574468085 0.5252923015148558 0.46946751343429405
0.23148936170212767 0.4979513755483377 0.4761988784699208
0.23170212765957446 0.4759131531278395 0.4734339883513226
0.23191489361702128 0.4528640449856711 0.4768486710390512
0.23212765957446807 0.4321858884854536 0.47432702440398333
0.2323404255319149 0.41554606148863343 0.4719181102665516
0.2325531914893617 0.4034825921642775 0.4668727271377917
0.2327659574468085 0.3994641172982197 0.4607274764672044
0.23297872340425532 0.40593639017533206 0.45288139194484384
0.23319148936170211 0.41507363213257137 0.44464822234147594
0.23340425531914893 0.42429323418202103 0.4374044535312284
0.23361702127659575 0.43429408891060084 0.4331933045936756
0.23382978723404255 0.4337519937230027 0.42812208281135794
0.23404255319148937 0.4263891415106478 0.4247901108118838
0.23425531914893616 0.4194540472900333 0.427031116556866
0.23446808510638298 0.4191437214898177 0.42940889106008795
0.2346808510638298 0.4235795873938587 0.42940889106008795
0.2348936170212766 0.43601537463032153 0.42940889106008795
0.2351063829787234 0.4524854905934174 0.43102562277048434
0.2353191489361702 0.4693464122900648 0.43512768826204923
0.23553191489361702 0.4837381344238413 0.44021280663470347
0.23574468085106381 0.48846567471398494 0.4436300751638851
0.23595744680851063 0.48389831219739177 0.4458357502125631
0.23617021276595745 0.469627442562142 0.4476380780837892
0.23638297872340425 0.45177172984334985 0.44727655194084126
0.23659574468085107 0.4312363240772233 0.445494719584343
0.23680851063829786 0.41322785229693143 0.44724984419053754
0.23702127659574468 0.4020818773149754 0.44872921875569916
0.2372340425531915 0.3977381596449992 0.45288225631549156
0.2374468085106383 0.39963934167265996 0.4538348803126526
0.2376595744680851 0.40801875011733996 0.45735534527279914
0.2378723404255319 0.415411230526573 0.46146885027228557
0.23808510638297872 0.4216761906126212 0.4645739539724458
0.23829787234042554 0.4316944332999956 0.46327381291397607
0.23851063829787233 0.43811480048700846 0.457743038593063
0.23872340425531915 0.44570703682756313 0.45741028227014613
0.23893617021276595 0.44983737487011743 0.4571204980648244
0.23914893617021277 0.4503835883513972 0.45945186141467076
0.23936170212765956 0.4401475181375058 0.45481412193118287
0.23957446808510638 0.4254805091634636 0.45676599902296044
0.2397872340425532 0.40693812557942727 0.45633182280467594
0.24 0.3894013885987209 0.45627428424335675
0.2402127659574468 0.37619392894642756 0.45676599902296044
0.2404255319148936 0.36767221459394644 0.45676599902296044
0.24063829787234042 0.36619577182387597 0.45930898380407836
0.24085106382978724 0.37301487596206095 0.4640833336303367
0.24106382978723404 0.38443274472643335 0.47213012767037454
0.24127659574468086 0.4022250151544316 0.4704503887561872
0.24148936170212765 0.4184714768432991 0.4736380252561851
0.24170212765957447 0.4223807859860595 0.468174332585675
0.2419148936170213 0.4141640036537098 0.467513434294089
0.24212765957446808 0.3951255267444527 0.46262230603252735
0.2423404255319149 0.374461435336738 0.4612133907092742
0.2425531914893617 0.35379734392902595 0.45980447538602115
0.2427659574468085 0.3539381474662731 0.4579817352889785
0.2429787234042553 0.35595245221879407 0.457743038593063
0.24319148936170212 0.3625640364060797 0.4549859901200547
0.24340425531914894 0.36854498988548245 0.45016626188911296
0.24361702127659574 0.3783406084595661 0.4447404470799667
0.24382978723404256 0.39279488153206726 0.43789748062292816
0.24404255319148935 0.40716899598245226 0.43260608996160244
0.24425531914893617 0.4319774301715585 0.43330254615654484
0.244468085106383 0.45236486171780055 0.4334461321525924
0.24468085106382978 0.46759449294740635 0.43771356064710254
0.2448936170212766 0.47970851172139417 0.44340118009890683
0.2451063829787234 0.48604736157286377 0.447807501907873
0.2453191489361702 0.49267504712168714 0.4534095584238252
0.24553191489361703 0.49746554730340453 0.4555578215276664
0.24574468085106382 0.5038160598737378 0.45424731935477736
0.24595744680851064 0.5076035651987181 0.4531940234427253
0.24617021276595744 0.5091359730562055 0.4526643920557686
0.24638297872340426 0.5076627328485286 0.4495742165175412
0.24659574468085105 0.5041417672817325 0.44993524274520513
0.24680851063829787 0.5017098192476794 0.450267796383805
0.2470212765957447 0.4982095430811109 0.4524499586287083
0.24723404255319148 0.4939536893628905 0.45481191988275516
0.2474468085106383 0.49021204218419656 0.4554880251158952
0.2476595744680851 0.49263082501171623 0.456513463487932
0.2478723404255319 0.49928355841908123 0.4544559751377222
0.24808510638297873 0.5040115625919142 0.45301518458406836
0.24829787234042552 0.5081387781694072 0.45110892063684
0.24851063829787234 0.5085490962383976 0.4619947752067782
0.24872340425531914 0.507575710367071 0.4518881085699996
0.24893617021276596 0.5084975926160269 0.45373187306791113
0.24914893617021278 0.5046671775227182 0.4548053599915724
0.24936170212765957 0.5008266359966519 0.45490577620183015
0.2495744680851064 0.5036540061590293 0.45686271375708515
0.24978723404255318 0.5120126654851229 0.4580394312821863
0.25 0.5099201228168958 0.45950012422907044
0.2502127659574468 0.5112295514362012 0.458218751138157
0.25042553191489364 0.5105031753786029 0.45553887498705364
0.25063829787234043 0.5097865566806148 0.4521412220445619
0.2508510638297872 0.5069289750359028 0.44968867070047375
0.251063829787234 0.5041835141325087 0.44522809993916607
0.25127659574468086 0.5021261089438116 0.4410852125087062
0.25148936170212766 0.4984726440707993 0.43733115682274437
0.25170212765957445 0.49255205365556126 0.43282966119978605
0.2519148936170213 0.48932641079443434 0.42938616936425095
0.2521276595744681 0.48688906318184777 0.42701902372031997
0.2523404255319149 0.4890956468289567 0.4287416178769691
0.2525531914893617 0.49481749077318615 0.43101960651566706
0.2527659574468085 0.5086998652346653 0.4365038835633336
0.2529787234042553 0.5131983306909763 0.43992036293328224
0.2531914893617021 0.5077804974726005 0.44581012294752653
0.25340425531914895 0.49172932147083576 0.4441038787508427
0.25361702127659574 0.4745777726677512 0.4471236787113612
0.25382978723404254 0.4482486744601829 0.44883781262400246
0.2540425531914894 0.43279692616432597 0.44830253653422086
0.2542553191489362 0.4188493439414779 0.44992672203224227
0.25446808510638297 0.4117162527628793 0.45209265324317166
0.25468085106382976 0.405658961994137 0.4583894582118223
0.2548936170212766 0.3987475538686954 0.45969711773326827
0.2551063829787234 0.3981436248168051 0.4605439248013701
0.2553191489361702 0.39909619815413744 0.46165119687347334
0.25553191489361704 0.40061638732237553 0.46165119687347334
0.25574468085106383 0.4077641893154776 0.45719156634789687
0.2559574468085106 0.4225188722700682 0.4514049668372216
0.2561702127659574 0.4376775261699055 0.4479455060294022
0.25638297872340426 0.4485356114626535 0.4455677797683274
0.25659574468085106 0.453988563587729 0.4442703236853834
0.25680851063829785 0.45793275737435485 0.4448446939845267
0.2570212765957447 0.4579163554610268 0.4418266333731745
0.2572340425531915 0.46115440912064637 0.441133365901319
0.2574468085106383 0.4589430074459339 0.441133365901319
0.25765957446808513 0.45201184767756136 0.44209168454211956
0.2578723404255319 0.44262263324374423 0.4420746507177462
0.2580851063829787 0.4294653397690023 0.44125611134947745
0.2582978723404255 0.41426989280457127 0.443312128775998
0.25851063829787235 0.40139410834655914 0.4456954099100329
0.25872340425531914 0.3926143863766129 0.44894968246213973
0.25893617021276594 0.39112593547720814 0.4494821006096222
0.2591489361702128 0.3955165674217533 0.4505811701087075
0.2593617021276596 0.401614283175664 0.4506850116415692
0.25957446808510637 0.40572149527378865 0.45016516813607943
0.2597872340425532 0.4088646461955121 0.4479726428920372
0.26 0.4072231540238246 0.4474436537651948
0.2602127659574468 0.40089762040197363 0.44699560332193444
0.2604255319148936 0.39239522251705367 0.44955044878849065
0.26063829787234044 0.38106250788635737 0.45297570180222596
0.26085106382978723 0.36951838143064153 0.4538348803126526
0.261063829787234 0.36373249003447344 0.451475478908366
0.2612765957446809 0.3597011589556247 0.45335554260546024
0.26148936170212767 0.3564698971697117 0.45469892859364913
0.26170212765957446 0.358880883310305 0.4520619598748441
0.26191489361702125 0.3619710785671744 0.45285048002393846
0.2621276595744681 0.3630202628793978 0.452907903328836
0.2623404255319149 0.36459734292247115 0.4537265298027765
0.2625531914893617 0.3707947168163387 0.45269363415379865
0.26276595744680853 0.37742279577688015 0.45253745657461053
0.2629787234042553 0.38676058299414345 0.4545392072386821
0.2631914893617021 0.39815625127552673 0.45448904590577033
0.26340425531914896 0.4089957944397452 0.45617280039149827
0.26361702127659575 0.41887225210165135 0.4584978993852781
0.26382978723404255 0.42303170854227135 0.4587553119126987
0.26404255319148934 0.4287339779555801 0.4546608566499579
0.2642553191489362 0.43919815036625776 0.45114330559358456
0.264468085106383 0.45211233665898726 0.44806952540592826
0.26468085106382977 0.46210179285046377 0.44432770640818275
0.2648936170212766 0.4697057886241223 0.44500874743165203
0.2651063829787234 0.4769238691064351 0.4460185637518319
0.2653191489361702 0.4840816147769521 0.44532660580302735
0.265531914893617 0.486077186126038 0.4450415241817294
0.26574468085106384 0.48687948619442134 0.4442392241133462
0.26595744680851063 0.4879075634097053 0.44406448461162684
0.2661702127659574 0.48984781406056205 0.4476975822002645
0.2663829787234043 0.4919168283841825 0.4499041268697711
0.26659574468085107 0.4978016609672691 0.45205235008221223
0.26680851063829786 0.4978980059337788 0.4556926144863482
0.2670212765957447 0.4992236458247087 0.455405180265871
0.2672340425531915 0.502510678912334 0.45811943341467465
0.2674468085106383 0.5048533228407628 0.4560438443486336
0.2676595744680851 0.5033044031916009 0.45676599902296044
0.26787234042553193 0.5060868110378 0.45676599902296044
0.2680851063829787 0.511051660583356 0.4555147168504812
0.2682978723404255 0.5167741652680808 0.4533623139908391
0.26851063829787236 0.5203333755201728 0.4523394187372268
0.26872340425531915 0.5229308807960117 0.4507606210749272
0.26893617021276595 0.5235736580640787 0.4487105794403218
0.26914893617021274 0.5291610544217155 0.44664900630719734
0.2693617021276596 0.5341433100769484 0.4503090920640092
0.2695744680851064 0.533398591506176 0.4495849414849602
0.26978723404255317 0.5272451779303066 0.4505867989080413
0.27 0.5156993317585215 0.45438258718291913
0.2702127659574468 0.5061544069436109 0.45389448358104384
0.2704255319148936 0.49401676404242684 0.45093457694123684
0.27063829787234045 0.4839957841455364 0.44678339858810684
0.27085106382978724 0.48102511304933415 0.4414985296420547
0.27106382978723403 0.4791782635895971 0.4347267482896855
0.2712765957446808 0.4805836758222844 0.4332212152059466
0.2714893617021277 0.4835976393472007 0.4352711284807034
0.27170212765957447 0.4885922495374597 0.4377539854538295
0.27191489361702126 0.49677999051417937 0.44126019130190874
0.2721276595744681 0.5058581647641711 0.4415001630057519
0.2723404255319149 0.5121838801938838 0.4391400576122812
0.2725531914893617 0.5148649488956496 0.4360562649809026
0.2727659574468085 0.5161522321737284 0.4329795516468654
0.27297872340425533 0.5179952506836389 0.4290803340015547
0.2731914893617021 0.5183194919394236 0.4266907074390696
0.2734042553191489 0.5146311455673744 0.4310882053148415
0.27361702127659576 0.508532558001551 0.4333280748317294
0.27382978723404255 0.49632270022504515 0.4414679800160666
0.27404255319148935 0.4873130884804924 0.4470982000056132
0.2742553191489362 0.4798346633602226 0.44845740179035953
0.274468085106383 0.4663414344752577 0.4533905679329279
0.2746808510638298 0.4535885916402174 0.4581243274789922
0.27489361702127657 0.4288518841061111 0.4606741573033708
0.2751063829787234 0.4103327379636375 0.46044993181203386
0.2753191489361702 0.39697662302156755 0.4607655724860362
0.275531914893617 0.380640009111396 0.46423816982564975
0.27574468085106385 0.3721842491477992 0.46806978114042747
0.27595744680851064 0.36906890366514555 0.47280313398510876
0.27617021276595743 0.37303859085681335 0.47157401251239983
0.2763829787234042 0.37915599957802953 0.47046302339817525
0.2765957446808511 0.38579349568972965 0.4697803405772163
0.27680851063829787 0.3865783907315891 0.4660973560186047
0.27702127659574466 0.3873786447370984 0.4587727125889003
0.2772340425531915 0.398161202483508 0.4515941137238312
0.2774468085106383 0.4141439773501055 0.44765943560982535
0.2776595744680851 0.4233486143351226 0.4478047744814011
0.27787234042553194 0.4227954437987754 0.4497008923028366
0.27808510638297873 0.41892268513479564 0.4490149897985988
0.2782978723404255 0.4148089722774026 0.45087592421791806
0.2785106382978723 0.41299245763569137 0.44793399503856773
0.27872340425531916 0.41726418342769556 0.4469115567637022
0.27893617021276595 0.4126790217370211 0.4463791536458005
0.27914893617021275 0.41157983583889246 0.4494343683808373
0.2793617021276596 0.40934895184196124 0.45358464768505496
0.2795744680851064 0.4049317572967044 0.4597312140738142
0.2797872340425532 0.402118528085758 0.461606700214445
0.27999999999999997 0.39506012162227716 0.4651470276109425
0.2802127659574468 0.3917600272750821 0.46803479441519635
0.2804255319148936 0.39209284096191865 0.46533650132086435
0.2806382978723404 0.3959419650481692 0.4623859689925933
0.28085106382978725 0.40008756771777115 0.4575618214139772
0.28106382978723404 0.4016435229764823 0.4523623591583564
0.28127659574468084 0.39870125800358225 0.44894968246213973
0.2814893617021277 0.39060027649489204 0.44894968246213973
0.2817021276595745 0.3861959825615625 0.45101534530935067
0.28191489361702127 0.380044492548118 0.4528631519029477
0.28212765957446806 0.374757872938781 0.4538348803126526
0.2823404255319149 0.3725741402729511 0.4539181081732459
0.2825531914893617 0.3708184718129266 0.4548225715357532
0.2827659574468085 0.37371865700415174 0.45578921481283574
0.28297872340425534 0.3774370384058747 0.45671881016326643
0.28319148936170213 0.3811571568487309 0.4550003175209203
0.2834042553191489 0.3858048638950423 0.4565202845907477
0.2836170212765957 0.39449539066959327 0.4583812471617642
0.28382978723404256 0.4034593702962779 0.4554890449988642
0.28404255319148936 0.41584099154652726 0.4539766822105241
0.28425531914893615 0.43530658358757346 0.4520726635757811
0.284468085106383 0.4483075932590678 0.4463396083533679
0.2846808510638298 0.46064208685963226 0.4430954626524587
0.2848936170212766 0.4699359710518841 0.43845653816726743
0.2851063829787234 0.4790410270601086 0.4401125747589473
0.2853191489361702 0.4929773713071671 0.44011572087094253
0.285531914893617 0.4962777747044428 0.4382022471910112
0.2857446808510638 0.5017098192476794 0.4389473924934163
0.28595744680851065 0.5018789195796062 0.44507908660318735
0.28617021276595744 0.502043811915337 0.451641513772096
0.28638297872340424 0.49869298182720967 0.457743038593063
0.2865957446808511 0.49552895902968724 0.4606106437694539
0.2868085106382979 0.4948705422569615 0.4665363947239862
0.28702127659574467 0.494440795555337 0.46352816781261547
0.28723404255319146 0.4962683116035617 0.4592221559499276
0.2874468085106383 0.49877870053737183 0.4566488552761315
0.2876595744680851 0.501055247383583 0.45310450974809685
0.2878723404255319 0.5002006176179314 0.45561016297222356
0.28808510638297874 0.49945265666637173 0.4543732579480632
0.28829787234042553 0.49468675292380304 0.4557544048475051
0.2885106382978723 0.49137232730542596 0.4575380669286256
0.28872340425531917 0.4917849256867484 0.45938812201345774
0.28893617021276596 0.5032855936009182 0.4551586497115624
0.28914893617021276 0.5135698335972818 0.45228492109063284
0.28936170212765955 0.5195049264977641 0.44694093725006934
0.2895744680851064 0.5263665176618337 0.4425368799905719
0.2897872340425532 0.5371453337674015 0.4411983613171439
0.29 0.5436186753352165 0.4392139019034052
0.2902127659574468 0.5586371209220201 0.4362157922247573
0.2904255319148936 0.5665270616634958 0.4354374438752261
0.2906382978723404 0.5694832009244909 0.43685357468268676
0.2908510638297872 0.5630269509897123 0.4347995751370552
0.29106382978723405 0.548586653852839 0.43700691745201004
0.29127659574468084 0.529629648132906 0.4370430955255453
0.29148936170212764 0.5101046577678194 0.43917928676111373
0.2917021276595745 0.4929914821110707 0.4409877925193329
0.2919148936170213 0.47942130609614775 0.4453060717181543
0.29212765957446807 0.4720341681268229 0.4479230205851281
0.2923404255319149 0.46946751343429405 0.45151082205938686
0.2925531914893617 0.4683410659718032 0.4515819853876708
0.2927659574468085 0.4680585516893348 0.45156207421797984
0.2929787234042553 0.4690187988481645 0.45021621582268506
0.29319148936170214 0.46889979984810853 0.44683721571966606
0.29340425531914893 0.47033770640191497 0.4460185637518319
0.2936170212765957 0.4700851940508091 0.4460185637518319
0.29382978723404257 0.4647086434991061 0.4487379180005107
0.29404255319148936 0.45707186641283265 0.44992672203224227
0.29425531914893616 0.44962661169990165 0.45140823865591484
0.29446808510638295 0.43999472621274155 0.45267859284037704
0.2946808510638298 0.43226317410940357 0.4528578407425501
0.2948936170212766 0.4241840290599037 0.45106310545745265
0.2951063829787234 0.41877785558969716 0.45376504043221
0.29531914893617023 0.4166410407599552 0.45665543920829516
0.295531914893617 0.4140588587937803 0.4518101509586141
0.2957446808510638 0.41818904395677553 0.4506514477333855
0.29595744680851066 0.4222931633259428 0.44842424084213306
0.29617021276595745 0.4268525376278707 0.44579326294379973
0.29638297872340424 0.4330289131760232 0.4442085526938643
0.29659574468085104 0.43855290682818393 0.44177848066960274
0.2968085106382979 0.4418199109567676 0.44147663842904333
0.2970212765957447 0.44372619194134577 0.44338789927106487
0.29723404255319147 0.4465007741875432 0.4482074387605527
0.2974468085106383 0.44645084643912186 0.4506313831609386
0.2976595744680851 0.4416781826622113 0.4512984530943278
0.2978723404255319 0.43764029723940867 0.45584770358609883
0.29808510638297875 0.4288593824147831 0.45881166293738307
0.29829787234042554 0.4136249861757332 0.45911349023540116
0.29851063829787233 0.3973852665667502 0.4593568591218975
0.2987234042553191 0.38404479684992693 0.46106988282431194
0.298936170212766 0.3753941834172092 0.4623887296074375
0.29914893617021276 0.37450707774735387 0.46262823644357587
0.29936170212765956 0.3671110815581389 0.4617856149351088
0.2995744680851064 0.3632198203259174 0.4607573639809726
0.2997872340425532 0.35635550148331196 0.4597292003305423
0.3 0.3520952683344148 0.4597289919051604
0.3002127659574468 0.3440705589909667 0.46165119687347334
0.30042553191489363 0.3388385795821562 0.46121676985534105
0.3006382978723404 0.33278726645620316 0.4573659342297346
0.3008510638297872 0.32741998817390794 0.4529165618508966
0.30106382978723406 0.32420788338089135 0.44733411110827115
0.30127659574468085 0.32680169350874827 0.44208334143556977
0.30148936170212765 0.3234772635714165 0.43709669652957217
0.3017021276595745 0.33114347944140804 0.435660175084913
0.3019148936170213 0.34521867102355236 0.4363170120107895
0.3021276595744681 0.3643534445751724 0.43863637850189496
0.30234042553191487 0.38897789652632025 0.4415967418186249
0.3025531914893617 0.4152800641085334 0.44475300192849054
0.3027659574468085 0.4269922957419763 0.44736849406250917
0.3029787234042553 0.43722217513509626 0.449932028882414
0.30319148936170215 0.4345044065528208 0.45468812390139607
0.30340425531914894 0.43493077409076664 0.4587831549607958
0.30361702127659573 0.43722520762090866 0.4609740801738545
0.3038297872340425 0.4375188457237916 0.4575962195416215
0.3040425531914894 0.44378729726835486 0.4544231130900714
0.30425531914893617 0.45353577011650503 0.44992672203224227
0.30446808510638296 0.46645366269265504 0.4497565995677992
0.3046808510638298 0.47828161014378406 0.449318664873249
0.3048936170212766 0.49245678470800003 0.45055889989508735
0.3051063829787234 0.5057100636449037 0.44783623187490257
0.30531914893617024 0.5209453132259363 0.4466204859952898
0.30553191489361703 0.5331708603239917 0.44574521282360857
0.3057446808510638 0.5363368744592436 0.4479726428920372
0.3059574468085106 0.5319967931701888 0.44960173814813653
0.30617021276595746 0.5219729180500393 0.45247939615616783
0.30638297872340425 0.5123585865149773 0.45188080117244755
0.30659574468085105 0.507096613533265 0.44897583576218236
0.3068085106382979 0.5045581258655008 0.44654848958312643
0.3070212765957447 0.5002045281433894 0.4493018501515979
0.3072340425531915 0.495294035633256 0.4521575742693514
0.30744680851063827 0.4918538498418152 0.45625726215095613
0.3076595744680851 0.49385513213696475 0.46497490899409716
0.3078723404255319 0.49562279115959806 0.46826568319672557
0.3080851063829787 0.499849349127182 0.47169188770428594
0.30829787234042555 0.5100299117952135 0.4715534383157259
0.30851063829787234 0.5034836128559738 0.4731986152617729
0.30872340425531913 0.5008045782404436 0.46584654940535025
0.308936170212766 0.4981051218597815 0.4620558113968232
0.3091489361702128 0.49439683053914046 0.45484153601721605
0.30936170212765957 0.4897270144166508 0.45300158265861107
0.30957446808510636 0.4855535750176874 0.45026679337855624
0.3097872340425532 0.4805236167112217 0.44992672203224227
0.31 0.4811661927328788 0.4480242339773298
0.3102127659574468 0.48922214471573405 0.44603192874429365
0.31042553191489364 0.5058862017602541 0.44684617166566243
0.31063829787234043 0.5310079670533755 0.44375800463644416
0.3108510638297872 0.5496820112302161 0.4406599815503079
0.311063829787234 0.5639002744633728 0.4384121343092193
0.31127659574468086 0.5811545728703434 0.43944258093141153
0.31148936170212765 0.5957040863254321 0.43890449150793176
0.31170212765957445 0.5990369198791577 0.43624816805080613
0.3119148936170213 0.5788264689138937 0.43498601920022645
0.3121276595744681 0.5377125965603611 0.4328465589639033
0.3123404255319149 0.49386861662525333 0.4313128739187077
0.3125531914893617 0.46128888760074294 0.4303859306301905
0.3127659574468085 0.4444623602473599 0.429214766747466
0.3129787234042553 0.43954242624569156 0.429659651661035
0.3131914893617021 0.4425174686435871 0.4337241125126637
0.31340425531914895 0.44985325794268155 0.4396127084789945
0.31361702127659574 0.457323149911094 0.4450207578574951
0.31382978723404253 0.45955102569361334 0.4501733014040702
0.3140425531914894 0.4588129220223011 0.4509037616023448
0.3142553191489362 0.4549731424025573 0.4509037616023448
0.31446808510638297 0.4498185310478347 0.4489226347160378
0.31468085106382976 0.44138450752448605 0.4468636218770371
0.3148936170212766 0.4305166287262793 0.4450415241817294
0.3151063829787234 0.42182603687543174 0.445562028217486
0.3153191489361702 0.4132259011760205 0.45158212320707397
0.31553191489361704 0.4051047646728633 0.4553005583704389
0.31574468085106383 0.39782340936835026 0.4557889594528579
0.3159574468085106 0.38880394226535514 0.46136405477375597
0.31617021276595747 0.38354484034173114 0.4626168746282829
0.31638297872340426 0.3685923536494295 0.4666164227454188
0.31659574468085105 0.3628247231835004 0.4687086895286087
0.31680851063829785 0.3620586229624712 0.47165325964329147
0.3170212765957447 0.3708640626974211 0.47307436159653554
0.3172340425531915 0.37966662475719465 0.4708557418590031
0.3174468085106383 0.39573245020514736 0.4674120167363922
0.3176595744680851 0.41105140103890087 0.46151368899963197
0.3178723404255319 0.42339052129774263 0.45360027765529415
0.3180851063829787 0.43426375563699937 0.4460488970254334
0.3182978723404255 0.4420373828938672 0.43868356921610174
0.31851063829787235 0.4482922629169568 0.43345216914860346
0.31872340425531914 0.45242117537279464 0.431362970200293
0.31893617021276593 0.4538348803126526 0.431362970200293
0.3191489361702128 0.4526190385776974 0.4344025745376813
0.3193617021276596 0.4440373805074202 0.43298007610704464
0.31957446808510637 0.42819463746314934 0.4341774852280735
0.3197872340425532 0.40930574003761383 0.4352711284807034
0.32 0.39220903823983116 0.4392629608456073
0.3202127659574468 0.3783533869414124 0.4410022403115602
0.3204255319148936 0.37575288960528114 0.44650855391692057
0.32063829787234044 0.371909067841381 0.4516989119007652
0.32085106382978723 0.36814889000287454 0.45730280080418834
0.321063829787234 0.3678553981436248 0.457743038593063
0.32127659574468087 0.3727327776447802 0.45774929327254893
0.32148936170212766 0.3677447053970491 0.4615405041268977
0.32170212765957445 0.36568429565206456 0.4600226527603009
0.32191489361702125 0.3639472398632144 0.4631023994923721
0.3221276595744681 0.36332336507749374 0.4663911882015112
0.3223404255319149 0.3592229339398465 0.4715168702492199
0.3225531914893617 0.35146558000065486 0.478187584715626
0.3227659574468085 0.34573180231634565 0.480563262990503
0.3229787234042553 0.349927210318959 0.48198458443498987
0.3231914893617021 0.3613608602346748 0.48270271195127434
0.32340425531914896 0.3776162019352536 0.4797290933396482
0.32361702127659575 0.39497687757330474 0.4751443980956821
0.32382978723404254 0.4124186802224388 0.4710719167979881
0.32404255319148934 0.42703502075331495 0.46576925073716763
0.3242553191489362 0.4340257942110368 0.46227386400830667
0.324468085106383 0.43954409042941606 0.46022687622390257
0.32468085106382977 0.4495544595249853 0.45280713204117756
0.3248936170212766 0.464737034689376 0.44636626741989954
0.3251063829787234 0.47946196724857326 0.44190681178619173
0.3253191489361702 0.49626592255235913 0.4378164494997352
0.325531914893617 0.5093092181589066 0.43634766448578083
0.32574468085106384 0.5222597053260033 0.430822077305852
0.32595744680851063 0.527473573768786 0.4295321538344206
0.3261702127659574 0.5280898876404494 0.42605912325279366
0.32638297872340427 0.5228066063166363 0.4237396390050731
0.32659574468085106 0.512956512085672 0.4254008812663048
0.32680851063829786 0.5036492900503607 0.42648872860292314
0.3270212765957447 0.49932615807274433 0.42940889106008795
0.3272340425531915 0.4913089827624815 0.4298291849162027
0.3274468085106383 0.4859278722804091 0.43406361856864273
0.3276595744680851 0.4852980759934887 0.4382022471910112
0.3278723404255319 0.48632368947633464 0.4394347639424942
0.3280851063829787 0.4879390265235632 0.4430874450415241
0.3282978723404255 0.49306128366725976 0.44479630018641936
0.32851063829787236 0.502685341650964 0.4491446352261148
0.32872340425531915 0.5155869094596264 0.45310307823397883
0.32893617021276594 0.5294085291014423 0.4553533928077409
0.32914893617021274 0.542148130254695 0.45689256190056354
0.3293617021276596 0.5538072131544483 0.45830622541828
0.3295744680851064 0.5610075364398713 0.45934204309177773
0.32978723404255317 0.5648003646317775 0.46165119687347334
0.33 0.563407218968357 0.4628579784308007
0.3302127659574468 0.560980563667146 0.4694809661847015
0.3304255319148936 0.5553888106510325 0.4646304591687696
0.33063829787234045 0.5506141733170336 0.4591837027482592
0.33085106382978724 0.5467109166355297 0.45583805416411316
0.33106382978723403 0.5457290397448948 0.45393975999785
0.3312765957446808 0.5456765999022961 0.450077903074081
0.33148936170212767 0.545643472996324 0.44408932979110594
0.33170212765957446 0.5413748568088755 0.4466894818007043
0.33191489361702126 0.5316115999042746 0.43996154267597537
0.3321276595744681 0.5169992890941338 0.4385085461797302
0.3323404255319149 0.5015368133400069 0.4405702096136138
0.3325531914893617 0.4886950485419383 0.4436587605088337
0.3327659574468085 0.4826631065104946 0.4488865329090775
0.33297872340425533 0.4765744113019291 0.452677308335309
0.3331914893617021 0.47125936875610913 0.45660303587261797
0.3334042553191489 0.4591460126000167 0.457743038593063
0.33361702127659576 0.4427031564353404 0.4572331694410015
0.33382978723404255 0.4224289842174855 0.4556359890521875
0.33404255319148934 0.4069755196230675 0.4529571730694701
0.3342553191489362 0.3990139503357 0.4512116557838444
0.334468085106383 0.39572445317247434 0.4509037616023448
0.3346808510638298 0.39676179606813455 0.45322769654480066
0.33489361702127657 0.39716658524670256 0.4546618189931849
0.3351063829787234 0.3989312164445107 0.45657655108056344
0.3353191489361702 0.39724598448644366 0.4586406789234244
0.335531914893617 0.39920917557969 0.4606741573033708
0.33574468085106385 0.4073745163087884 0.4607288492235033
0.33595744680851064 0.4154747988261171 0.4614450536398825
0.33617021276595743 0.422214665761282 0.45938607210226085
0.3363829787234042 0.42488263509672924 0.4575370060320802
0.33659574468085107 0.4204718214450628 0.4551926545547302
0.33680851063829786 0.4112533248499864 0.4503204328259177
0.33702127659574466 0.40189769284247584 0.4472529877248765
0.3372340425531915 0.398865855057657 0.4420682077245215
0.3374468085106383 0.3979956273966614 0.4390312893409701
0.3376595744680851 0.3963652954116429 0.43722520762090866
0.33787234042553194 0.3989395765689168 0.43722520762090866
0.33808510638297873 0.4052526164481741 0.4370470998765153
0.3382978723404255 0.41243947696109046 0.43624816805080613
0.3385106382978723 0.4201940986948816 0.43624816805080613
0.33872340425531916 0.42875018328702197 0.43494964751523935
0.33893617021276595 0.4336863343066269 0.43270929473652436
0.33914893617021274 0.43429408891060084 0.43414371108212074
0.3393617021276596 0.435221796886703 0.4357349824687545
0.3395744680851064 0.43521807188513323 0.43727826421647886
0.3397872340425532 0.4314513994998862 0.44161347448386884
0.34 0.426929179747611 0.447164123752223
0.3402127659574468 0.4215050230088631 0.45294539223295405
0.3404255319148936 0.4175069585112226 0.4576539690132078
0.3406382978723404 0.4083466661828175 0.4587200781631655
0.34085106382978725 0.3940100407910006 0.4587200781631655
0.34106382978723404 0.37944652585133387 0.4587200781631655
0.34127659574468083 0.3704310870145316 0.4569214014556358
0.3414893617021277 0.3624418903675923 0.4549241022939009
0.3417021276595745 0.3581236872189438 0.4528771831307225
0.34191489361702126 0.35511221175889135 0.45001006597904186
0.34212765957446806 0.35434758870508204 0.45171005662955416
0.3423404255319149 0.3567291016221076 0.4498807083153412
0.3425531914893617 0.3688324377137273 0.44894968246213973
0.3427659574468085 0.3688324377137273 0.44894968246213973
0.34297872340425534 0.3705502941883816 0.44980861069946676
0.34319148936170213 0.3716782262217701 0.45349355950359244
0.3434042553191489 0.380228642656538 0.4594782711343213
0.34361702127659577 0.3941698782564324 0.46261418181215536
0.34382978723404256 0.407793139022248 0.46446556675543754
0.34404255319148935 0.429354678077159 0.46137434889732126
0.34425531914893615 0.4497792112335974 0.4553135467313947
0.344468085106383 0.4694224209811987 0.45047085766376294
0.3446808510638298 0.48889939030368673 0.4478158537710567
0.3448936170212766 0.5038992950527431 0.44699560332193444
0.3451063829787234 0.515688403947193 0.4468455879628959
0.3453191489361702 0.5216503946220583 0.444464268583954
0.345531914893617 0.5269766177337968 0.44812413029234177
0.3457446808510638 0.5401492785079157 0.4493579368042076
0.34595744680851065 0.5569969095696955 0.4509037616023448
0.34617021276595744 0.5742774370122448 0.4520965752758831
0.34638297872340423 0.585811034940542 0.4554885504841702
0.3465957446808511 0.5855950072261583 0.45676599902296044
0.3468085106382979 0.5630657013052666 0.4575991697587771
0.34702127659574467 0.5188122879711521 0.45825158523151793
0.3472340425531915 0.4705252409727588 0.45875904997193695
0.3474468085106383 0.4344471999264547 0.4602342467160714
0.3476595744680851 0.4157069315097666 0.46181793772997126
0.3478723404255319 0.41332632327125046 0.46138764442202007
0.34808510638297874 0.4234941534398893 0.4593294102370107
0.34829787234042553 0.43682995888058535 0.4579989130123423
0.3485106382978723 0.44788494014337804 0.4585158999742791
0.34872340425531917 0.45819382829253663 0.4578933675371361
0.34893617021276596 0.46849226589380105 0.45614392074569343
0.34914893617021275 0.47955834273323006 0.4533033804359033
0.34936170212765955 0.48905324262177585 0.4502374226271331
0.3495744680851064 0.49922093854370253 0.447156043791066
0.3497872340425532 0.5084704173936234 0.4440907108932182
0.35 0.5125907114272769 0.4410443946290064
0.3502127659574468 0.5155858261092601 0.4390805603210416
0.3504255319148936 0.5177600647577664 0.4384806554499749
0.3506382978723404 0.5202735710796287 0.44000827423310407
0.35085106382978726 0.5194752027106895 0.43917928676111373
0.35106382978723405 0.5163654127992183 0.43942906114530006
0.35127659574468084 0.5154595599480778 0.4407602282319768
0.35148936170212763 0.5134342940889105 0.4438762085644223
0.3517021276595745 0.5138398056316379 0.4465900917792071
0.3519148936170213 0.51350439284101 0.4464720341608335
0.35212765957446807 0.5114584952799472 0.4494925014190866
0.3523404255319149 0.5049999037664846 0.4507801468500239
0.3525531914893617 0.49833115273533646 0.44812550182556193
0.3527659574468085 0.48902038274857856 0.44374383721835614
0.3529787234042553 0.4804480755874737 0.4387874976368061
0.35319148936170214 0.47339663022449047 0.43236096828018167
0.35340425531914893 0.46622241537600645 0.43187140982975997
0.3536170212765957 0.46219699507901596 0.43552043711008265
0.35382978723404257 0.45994755115886893 0.4413591051946196
0.35404255319148936 0.45969711773326827 0.4516377598289432
0.35425531914893615 0.46150941433721654 0.4673562135741373
0.354468085106383 0.4578232896334763 0.46561954343419365
0.3546808510638298 0.4437894938825262 0.4714465917316903
0.3548936170212766 0.4323720062763907 0.4723259365242859
0.3551063829787234 0.41972942282453496 0.4709152428004252
0.3553191489361702 0.4130618488179965 0.46679902517363897
0.355531914893617 0.40986809965803617 0.462688517812877
0.3557446808510638 0.41041886374388326 0.4591463536474211
0.35595744680851066 0.41182217879824123 0.45643397789410745
0.35617021276595745 0.4137132002970562 0.4530784717131267
0.35638297872340424 0.41881544281259336 0.45230241440521535
0.35659574468085103 0.4188224612955928 0.4542428973443873
0.3568085106382979 0.4131560384402864 0.4552740997251848
0.3570212765957447 0.41198078248099096 0.45537974150918137
0.35723404255319147 0.41155942759123915 0.45454916867575307
0.3574468085106383 0.4048019790908044 0.4531634180751711
0.3576595744680851 0.39627965825424727 0.449250262715695
0.3578723404255319 0.38343069717006795 0.44565733517068146
0.35808510638297875 0.3706798409656723 0.44339534558351495
0.35829787234042554 0.36444772136778725 0.4430874450415241
0.35851063829787233 0.36766693624084934 0.4477370655135679
0.3587234042553191 0.36791679914388187 0.44992672203224227
0.35893617021276597 0.3791763139316466 0.44999044208967487
0.35914893617021276 0.3883641209749258 0.4511457444596571
0.35936170212765955 0.3962293298054468 0.45214606415328545
0.3595744680851064 0.40223723586769844 0.4479405299097093
0.3597872340425532 0.406005120012836 0.4460185637518319
0.36 0.40693698094772834 0.4460185637518319
0.3602127659574468 0.40528484182354624 0.4465692767932259
0.3604255319148936 0.40043282997100205 0.44878211945514374
0.3606382978723404 0.39621451797533375 0.4518558288737136
0.3608510638297872 0.39118034484020114 0.4548739213756982
0.36106382978723406 0.38863749459120156 0.4557889594528579
0.36127659574468085 0.38607650852145897 0.457320106515738
0.36148936170212764 0.3862556840016801 0.45367517061201984
0.3617021276595745 0.3941936101636503 0.4537216696523363
0.3619148936170213 0.3988868098172298 0.45291630438496955
0.3621276595744681 0.40300795599545897 0.4548014865468257
0.36234042553191487 0.40400079107017267 0.45675585668846475
0.3625531914893617 0.39914410499609837 0.46648951350560475
0.3627659574468085 0.39045578258841407 0.4674991593682635
0.3629787234042553 0.38018041019988835 0.4721256606832235
0.36319148936170215 0.3759765758747392 0.473299456422131
0.36340425531914894 0.3756717147044455 0.4717194796527885
0.36361702127659573 0.3756717147044455 0.46903941004404137
0.3638297872340425 0.38323712217900635 0.4677339331167355
0.36404255319148937 0.39366475479614477 0.4668282139281994
0.36425531914893616 0.4044237388220108 0.45867447835073566
0.36446808510638296 0.4186395293386783 0.45091033953742926
0.3646808510638298 0.43417793221889095 0.44749380283129503
0.3648936170212766 0.4481078079780574 0.44633297985136444
0.3651063829787234 0.4625659406684959 0.44417629832147876
0.36531914893617023 0.4772203057948129 0.44164968364452756
0.365531914893617 0.4859952751267488 0.4422894311855842
0.3657446808510638 0.49517207671022406 0.4421149327345662
0.3659574468085106 0.5064942444123862 0.4401563263312165
0.36617021276595746 0.5160031739506377 0.4401563263312165
0.36638297872340425 0.5278490328412373 0.4375062601676736
0.36659574468085104 0.5400030076804014 0.4414313924170045
0.3668085106382979 0.546308134374387 0.43984055909517084
0.3670212765957447 0.5413601605956658 0.44231454598453157
0.3672340425531915 0.5334871686701831 0.4451577632794499
0.36744680851063827 0.5265522739609172 0.4485126300516443
0.3676595744680851 0.5217763858828167 0.45042766029997156
0.3678723404255319 0.5217939852018474 0.44992672203224227
0.3680851063829787 0.5270921352114548 0.44992672203224227
0.36829787234042555 0.5288397577889669 0.451733035519774
0.36851063829787234 0.5229041466589637 0.4522096231198644
0.36872340425531913 0.5100447023651729 0.45188080117244755
0.368936170212766 0.5030071133483274 0.4525335172173881
0.36914893617021277 0.5003721727686008 0.45218901750301077
0.36936170212765956 0.5004740572494231 0.4490075326046527
0.36957446808510636 0.5084036843028913 0.44873973335456857
0.3697872340425532 0.5113233223957198 0.4415683593080874
0.37 0.5123333546106975 0.4461283039651613
0.3702127659574468 0.512457254518808 0.4406821656842165
0.37042553191489364 0.5143519911073088 0.43541948485996457
0.3706382978723404 0.5212916875346046 0.43822963178092683
0.3708510638297872 0.5240517341102752 0.44009132870633455
0.371063829787234 0.5213107252294847 0.4392939023849074
0.37127659574468086 0.5131595736409483 0.4401563263312165
0.37148936170212765 0.5055494542219122 0.4409927766322407
0.37170212765957444 0.5011906453116723 0.4430261367396126
0.3719148936170213 0.4978807460282057 0.44109382337085073
0.3721276595744681 0.49461715563423875 0.4434492715152141
0.3723404255319149 0.49462533129031555 0.4448793183027924
0.3725531914893617 0.49200007925726036 0.4451021798923361
0.3727659574468085 0.4919693827187909 0.44507148335386665
0.3729787234042553 0.4918183354744916 0.4471166913940966
0.3731914893617021 0.4891601528835899 0.45037561768265216
0.37340425531914895 0.485428623638724 0.4551341032068466
0.37361702127659574 0.4793811717735314 0.46015309560317574
0.37382978723404253 0.46945872591961557 0.46093982377570075
0.3740425531914894 0.4566571408491298 0.4614340999091289
0.37425531914893617 0.4440742944571343 0.4592110504095937
0.37446808510638296 0.43348966975278697 0.46216837245061937
0.37468085106382976 0.42071284714361806 0.4599450450681658
0.3748936170212766 0.41305392015301523 0.45781581053154047
0.3751063829787234 0.4099040319277159 0.457743038593063
0.3753191489361702 0.41331591738629886 0.45780762597030733
0.37553191489361704 0.42161756645382753 0.4584974044910182
0.37574468085106383 0.42940889106008795 0.45692694996611566
0.3759574468085106 0.42759303022527606 0.4575412762780839
0.37617021276595747 0.4196785505380823 0.45606326072964865
0.37638297872340426 0.41586111532686765 0.4532707060980615
0.37659574468085105 0.4137762579384465 0.4512114451331169
0.37680851063829784 0.41238679358589353 0.4471477933271363
0.3770212765957447 0.4092177139139509 0.44080963398325107
0.3772340425531915 0.4071573230480867 0.4370672009863949
0.3774468085106383 0.40553061597835954 0.4361297792792361
0.3776595744680851 0.4040188216179797 0.4367431675261369
0.3778723404255319 0.4019572204977659 0.43946297455946254
0.3780851063829787 0.40048617771746364 0.4426989712810707
0.37829787234042556 0.40201222220592947 0.443725617791164
0.37851063829787235 0.40646101648701344 0.4468102396673832
0.37872340425531914 0.4116124017911097 0.4472329666373813
0.37893617021276593 0.41206226925922795 0.44846950154016635
0.3791489361702128 0.40721002661063216 0.450487066524676
0.3793617021276596 0.4002386642177248 0.4484517856766731
0.37957446808510636 0.3947779660560859 0.4488411825582015
0.3797872340425532 0.3886844284621701 0.44894968246213973
0.38 0.3834901092104197 0.4548094263485709
0.3802127659574468 0.3803006099214754 0.4578455596464562
0.3804255319148936 0.3756717147044455 0.46002050572417125
0.38063829787234044 0.3758906064538075 0.46393361363772156
0.38085106382978723 0.3770212261662394 0.4666875366435891
0.381063829787234 0.3739757404192251 0.4676424867215813
0.38127659574468087 0.3761608637127466 0.46829481426087105
0.38148936170212766 0.38051529939016493 0.4665530399899036
0.38170212765957445 0.3834367926467014 0.4629365446093075
0.3819148936170213 0.38686257989927264 0.45877418599678876
0.3821276595744681 0.39010516973454357 0.45453079103842164
0.3823404255319149 0.39246493146092154 0.4506467999117199
0.3825531914893617 0.39609175392362006 0.4455692484639423
0.3827659574468085 0.3967415010932617 0.44576482122539
0.3829787234042553 0.396461560253681 0.4482446574691184
0.3831914893617021 0.3996118606108902 0.45139495782632744
0.38340425531914896 0.40532382615899487 0.4504972392803935
0.38361702127659575 0.4134725224616626 0.4471716600467868
0.38382978723404254 0.4250204734946005 0.4460185637518319
0.38404255319148933 0.44087028218757646 0.4460185637518319
0.3842553191489362 0.45480995740877866 0.446694522883293
0.384468085106383 0.4669240131307892 0.44876955188160067
0.38468085106382977 0.4779338754110909 0.4481026519752324
0.3848936170212766 0.4859689081144867 0.4497096585159115
0.3851063829787234 0.48560979797637466 0.4520933636118913
0.3853191489361702 0.4798937085821318 0.4535086454892755
0.38553191489361704 0.47375103520808504 0.45560127770616754
0.38574468085106384 0.4687948680935131 0.45886737860774934
0.38595744680851063 0.46556204344172886 0.46164850858562817
0.3861702127659574 0.4662349766086925 0.4638677322122594
0.38638297872340427 0.4692398103601671 0.4650597974899
0.38659574468085106 0.47148636030404867 0.46371322222959416
0.38680851063829785 0.47401316128668297 0.4679245572006515
0.3870212765957447 0.48283199740120475 0.46386540870979265
0.3872340425531915 0.4835738817040032 0.4595757067397111
0.3874468085106383 0.4902605548636583 0.45713908095251493
0.3876595744680851 0.5025596991733887 0.45758294330194005
0.3878723404255319 0.5154903876693743 0.45523931942889667
0.3880851063829787 0.5222671355985422 0.44824567557712675
0.3882978723404255 0.5290803431720142 0.4455266899764151
0.38851063829787236 0.5392305062750162 0.44025264922591156
0.38872340425531915 0.5504574792592707 0.4349889146629769
0.38893617021276594 0.5623723099901747 0.4316236877782935
0.3891489361702128 0.5714803881535235 0.4318138784039911
0.3893617021276596 0.5745881336195471 0.43571496965545803
0.3895744680851064 0.5698605219561116 0.43917928676111373
0.38978723404255317 0.5589783443290741 0.43917928676111373
0.39 0.5507777904726077 0.43917928676111373
0.3902127659574468 0.5426074542221757 0.43758841805498716
0.3904255319148936 0.5362842661259857 0.43722520762090866
0.39063829787234045 0.5261471419450244 0.43722520762090866
0.39085106382978724 0.5119847020144667 0.4384569723285392
0.39106382978723403 0.4961743755670552 0.44153120247109146
0.3912765957446808 0.48144729711036516 0.4449138697643094
0.39148936170212767 0.47179311434500376 0.44974096114698997
0.39170212765957446 0.46337875971650827 0.4522568179840751
0.39191489361702125 0.4566894898499203 0.45741174640363635
0.3921276595744681 0.45290500878241463 0.45695467118241856
0.3923404255319149 0.45226062751120133 0.45209818806504243
0.3925531914893617 0.45303774731498053 0.45018413531262297
0.39276595744680853 0.45357131668209943 0.4480498578441473
0.3929787234042553 0.4532168822868889 0.4476136013476983
0.3931914893617021 0.45199563113985125 0.448834852494736
0.3934042553191489 0.45042863403799566 0.44894968246213973
0.39361702127659576 0.4432796581508264 0.450158239531488
0.39382978723404255 0.43553871010301864 0.45194392636180064
0.39404255319148934 0.4290747181673586 0.4528578407425501
0.3942553191489362 0.4228553825147159 0.453298732453377
0.394468085106383 0.4188803523856869 0.4538348803126526
0.3946808510638298 0.4174083305489213 0.4538348803126526
0.39489361702127657 0.4164984745708488 0.4540437823905581
0.3951063829787234 0.41586094299639603 0.4545507080472663
0.3953191489361702 0.4166571525483639 0.45295828894333096
0.395531914893617 0.41670737664875435 0.4545497308331439
0.39574468085106385 0.4242236804866961 0.4564822096245201
0.39595744680851064 0.42141028354591803 0.45922026856321624
0.39617021276595743 0.4213993132820272 0.4636160094975807
0.3963829787234043 0.42403236899129193 0.4629557859224313
0.39659574468085107 0.4236625886801011 0.4617671319141021
0.39680851063829786 0.4244609830054609 0.45982253814149654
0.39702127659574465 0.42693258128407 0.4605000804247666
0.3972340425531915 0.4290286409564036 0.46303490085815213
0.3974468085106383 0.42940889106008795 0.4612320488196666
0.3976595744680851 0.42940889106008795 0.4585574958107251
0.39787234042553193 0.4276184651317752 0.4547589953792085
0.3980851063829787 0.4259860964324832 0.4508911370733622
0.3982978723404255 0.4245979190039011 0.44669264802269865
0.3985106382978723 0.42158689102833324 0.44161478134770293
0.39872340425531916 0.423376143842692 0.43864533697773805
0.39893617021276595 0.4253214372417856 0.4370459120830167
0.39914893617021274 0.42327639553745017 0.4381191145589932
0.3993617021276596 0.41851206323613316 0.4412080621777321
0.3995744680851064 0.4109179828006315 0.44428142816446764
0.3997872340425532 0.398846530568152 0.44890480476626066
0.4 0.38550503120029667 0.45157049349013517
0.4002127659574468 0.3703627945222491 0.4553808643039188
0.4004255319148936 0.3624085658712784 0.45762435140784324
0.4006382978723404 0.3600608583402305 0.457743038593063
0.40085106382978725 0.36090950664896315 0.45600218846074475
0.40106382978723404 0.363689899883436 0.4557889594528579
0.40127659574468083 0.3714735381304838 0.45484817216944906
0.4014893617021277 0.3806685067530813 0.44991875101809065
0.40170212765957447 0.39479470080525747 0.4487819121814809
0.40191489361702126 0.40467265114500084 0.4460185637518319
0.40212765957446805 0.41127815781049026 0.4458742242243814
0.4023404255319149 0.41416385900582314 0.444266322046976
0.4025531914893617 0.4152388437519196 0.44088761923795305
0.4027659574468085 0.41292481308427237 0.4395886964284337
0.40297872340425533 0.41116642547581433 0.4382022471910112
0.4031914893617021 0.4121906548509408 0.4382022471910112
0.4034042553191489 0.4152972100468182 0.4386185791374235
0.40361702127659577 0.42141584331430104 0.44193367428645536
0.40382978723404256 0.4316801598451491 0.4465750527464953
0.40404255319148935 0.44500822361772097 0.4474054781898113
0.40425531914893614 0.4554291205222815 0.4506638689819607
0.404468085106383 0.46466464505876676 0.45682088533961746
0.4046808510638298 0.47321634345312863 0.4558686235836457
0.4048936170212766 0.47390796931482826 0.4562337014228366
0.4051063829787234 0.47264108059094123 0.45676599902296044
0.4053191489361702 0.4708718886023976 0.45829274256516456
0.405531914893617 0.47124312973032184 0.45951865488909077
0.4057446808510638 0.46806365352413676 0.45969711773326827
0.40595744680851065 0.4657370417966161 0.45880892148453173
0.40617021276595744 0.4683680406789947 0.45684762114642496
0.40638297872340423 0.467513434294089 0.45677972939363465
0.4065957446808511 0.46778382151038106 0.457743038593063
0.40680851063829787 0.4716647967491042 0.4581078448549703
0.40702127659574466 0.4737294593857045 0.4601434757968707
0.4072340425531915 0.47781299204882055 0.4575172893936165
0.4074468085106383 0.4869144763892437 0.45676599902296044
0.4076595744680851 0.49190595976746315 0.45612207570493435
0.4078723404255319 0.5003064501273671 0.45481191988275516
0.40808510638297874 0.5086965412460055 0.45481191988275516
0.4082978723404255 0.5171823418568015 0.4561974239816493
0.4085106382978723 0.525949583504943 0.4592910419817851
0.40872340425531917 0.5377728726018782 0.46179946834522423
0.40893617021276596 0.546983032375496 0.46141750753400235
0.40914893617021275 0.5452851898991641 0.4619026053843828
0.40936170212765954 0.5341403911830975 0.46148089110905716
0.4095744680851064 0.5208774693861599 0.4606741573033708
0.4097872340425532 0.5099192002699292 0.45767940171064814
0.41 0.5018689002400021 0.4526695900038479
0.4102127659574468 0.49644389599397093 0.44681785365139337
0.4104255319148936 0.496771854180561 0.44152940204682734
0.4106382978723404 0.5012217068523298 0.4401563263312165
0.41085106382978726 0.5078427966915512 0.43941976377782077
0.41106382978723405 0.5157230521859282 0.43763005766675683
0.41127659574468084 0.523111612922896 0.43722520762090866
0.41148936170212763 0.518929589931656 0.4354744944781142
0.4117021276595745 0.5118229188831239 0.43341496475033214
0.41191489361702127 0.5027113663768809 0.43136841632453715
0.41212765957446806 0.49852874119442747 0.4296088585344434
0.4123404255319149 0.4941860305713691 0.43321954004566154
0.4125531914893617 0.4962176020584191 0.432036500101022
0.4127659574468085 0.49102284012438724 0.43057529292942737
0.4129787234042553 0.48230181470952244 0.431362970200293
0.41319148936170214 0.4769875790047942 0.4324240456673123
0.41340425531914893 0.4681551952874381 0.4370438124615243
0.4136170212765957 0.45341276823412674 0.4400938042489775
0.41382978723404257 0.44502306585674667 0.4431059033665068
0.41404255319148936 0.4386931987740107 0.4468724601265266
0.41425531914893615 0.4292894281046041 0.45158555570879344
0.414468085106383 0.4232181519753937 0.455231860473104
0.4146808510638298 0.417577335041978 0.45676599902296044
0.4148936170212766 0.4094788307411116 0.4550610427490858
0.4151063829787234 0.40560519393455624 0.45819092520188376
0.4153191489361702 0.4019098714528154 0.4586491223409656
0.415531914893617 0.4066308684724126 0.458468945761441
0.4157446808510638 0.4127643155314884 0.4571707759857437
0.41595744680851066 0.4178837669989415 0.45840900264715834
0.41617021276595745 0.42039658457556367 0.4595876425564677
0.41638297872340424 0.4151141160563339 0.4578633114423246
0.4165957446808511 0.4137828436844631 0.4625953077134929
0.4168085106382979 0.4098202680111313 0.46155553357966356
0.41702127659574467 0.4079131798644084 0.45969711773326827
0.41723404255319146 0.3992683145558027 0.4592541672265831
0.4174468085106383 0.39875380444766156 0.45619004209038244
0.4176595744680851 0.39374998138871925 0.4533433258902256
0.4178723404255319 0.39760928630478626 0.4503828135485169
0.41808510638297874 0.408661765889215 0.4459394264678288
0.41829787234042554 0.4235645130657963 0.4420215440796114
0.41851063829787233 0.43548169947537024 0.4401057901875101
0.4187234042553191 0.4416490822621924 0.4401019331795722
0.41893617021276597 0.440980470991462 0.4420041229610129
0.41914893617021276 0.4346373419708314 0.44406448461162684
0.41936170212765955 0.4234565635509144 0.44538221905318987
0.4195744680851064 0.41184511021613834 0.4495610115440699
0.4197872340425532 0.40432309107254 0.4531877461100416
0.42 0.4005762848897168 0.4562874180902538
0.42021276595744683 0.3939990142484078 0.45937972318379017
0.4204255319148936 0.39140815541044083 0.45877198195534247
0.4206382978723404 0.3844606213799012 0.4567726732061617
0.4208510638297872 0.3825780527392841 0.4595965261670876
0.42106382978723406 0.3796440821741849 0.45723976671528643
0.42127659574468085 0.37667127502642384 0.4546916463029198
0.42148936170212764 0.3768564273706227 0.4514654549802984
0.4217021276595745 0.38048573421143866 0.4493547339588847
0.4219148936170213 0.3843509407203316 0.44833636612041716
0.4221276595744681 0.3894369414940596 0.44863844807346853
0.42234042553191486 0.39274685577358476 0.453998460278382
0.4225531914893617 0.3940310802199995 0.45501630619915046
0.4227659574468085 0.3992113227714301 0.4639343229803203
0.4229787234042553 0.3983379560466835 0.4611599853780668
0.42319148936170214 0.3916187531548122 0.4606741573033708
0.42340425531914894 0.38637451535566136 0.46065630345540576
0.42361702127659573 0.3816629965877635 0.458913644857219
0.4238297872340426 0.3852884617049114 0.46093102469761527
0.42404255319148937 0.4011184347523577 0.4549140153541659
0.42425531914893616 0.41752382366634205 0.45275077904087346
0.42446808510638295 0.42962188103041876 0.4570051097919081
0.4246808510638298 0.44026448770405774 0.4518447473815004
0.4248936170212766 0.4505699200780662 0.4484096032568308
0.4251063829787234 0.46266336580403994 0.4464285910194133
0.42531914893617023 0.4722342634833836 0.4488401033546608
0.425531914893617 0.4845651513497533 0.45346915062869037
0.4257446808510638 0.4963139017637306 0.4569214390018493
0.4259574468085106 0.5062092442999977 0.4589814625535007
0.42617021276595746 0.5192216257470357 0.46170906781829113
0.42638297872340425 0.5311637450218751 0.46769308977299134
0.42659574468085104 0.5355058557918274 0.4609219944151005
0.4268085106382979 0.5400414684930018 0.45623891958812657
0.4270212765957447 0.5434298532320784 0.45666844317962296
0.4272340425531915 0.5400098599602555 0.45026884261974864
0.4274468085106383 0.5407776464023784 0.4469543363737206
0.4276595744680851 0.5382581080923834 0.4407858370098023
0.4278723404255319 0.5281854927189753 0.4351609491692563
0.4280851063829787 0.5207673749581516 0.4333276175274416
0.42829787234042555 0.5159558318758384 0.4280020951147881
0.42851063829787234 0.5059470564995273 0.4264777723497801
0.42872340425531913 0.4996491227020621 0.4282440836745951
0.428936170212766 0.49405048501745863 0.43192998115064435
0.42914893617021277 0.49099212196632785 0.4304007996250788
0.42936170212765956 0.48700733776526156 0.4333170493404983
0.42957446808510635 0.48412310698583294 0.4334903169130779
0.4297872340425532 0.48447130177247966 0.4375734024075554
0.43 0.4886777310798568 0.4413919522267644
0.4302127659574468 0.49346414568567953 0.4434525667541397
0.43042553191489363 0.4986005802521139 0.445500357252571
0.4306382978723404 0.5142227461690834 0.44588715507180304
0.4308510638297872 0.5363037098061134 0.4437089395656837
0.43106382978723407 0.5517057050189165 0.44538110967976396
0.43127659574468086 0.5605110861615047 0.44678918527034694
0.43148936170212765 0.556178834065726 0.4466639060645413
0.43170212765957444 0.5359320059817531 0.4484542160438815
0.4319148936170213 0.5049843532213568 0.45188080117244755
0.4321276595744681 0.4736995150835094 0.45362571145704805
0.4323404255319149 0.4493093829757945 0.4567146132352954
0.4325531914893617 0.4345240486558413 0.457743038593063
0.4327659574468085 0.4268902688062234 0.4547612376636832
0.4329787234042553 0.4262817048841122 0.4499300197904792
0.4331914893617021 0.4314227359748224 0.4456530400454449
0.43340425531914895 0.43850007033432464 0.44240149822575975
0.43361702127659574 0.43917928676111373 0.441183491226157
0.43382978723404253 0.4480204172624942 0.4420924900825002
0.4340425531914894 0.45668315138581633 0.4392985123521749
0.43425531914893617 0.47109404733627946 0.4414117206149831
0.43446808510638296 0.47728382999511476 0.44419368533130826
0.4346808510638298 0.4763626623609836 0.4450415241817294
0.4348936170212766 0.4697586726438049 0.44528152049998365
0.4351063829787234 0.4569995622696393 0.4460185637518319
0.4353191489361702 0.4422184130154772 0.4463640320005914
0.43553191489361703 0.4324579919200042 0.44820123327651984
0.4357446808510638 0.4252275570880062 0.44992672203224227
0.4359574468085106 0.4200663081957294 0.44992672203224227
0.43617021276595747 0.42312802387451987 0.44936840102154724
0.43638297872340426 0.42708469324236875 0.45137736603249434
0.43659574468085105 0.4307369755408891 0.45088854256994626
0.43680851063829784 0.43507066009277956 0.45197470977403015
0.4370212765957447 0.4319472719941232 0.45644192078978574
0.4372340425531915 0.42579341897457534 0.4569776199837938
0.4374468085106383 0.4122786160058369 0.4543169835822128
0.4376595744680851 0.40376178079003944 0.4573242053800793
0.4378723404255319 0.39103356249876503 0.457743038593063
0.4380851063829787 0.38445948553458736 0.45676153078233533
0.43829787234042555 0.37957987298485585 0.452950977324342
0.43851063829787235 0.3798430174635637 0.45481191988275516
0.43872340425531914 0.3838689295009558 0.4550835074439136
0.43893617021276593 0.3934682415705592 0.4572110693383491
0.4391489361702128 0.4012949669200093 0.4602957492147678
0.43936170212765957 0.40745311765267 0.46262823644357587
0.43957446808510636 0.41182217879824123 0.46262823644357587
