0.0 0.38935026868588185 0.45188080117244755
0.0002127659574468085 0.38893421620733104 0.4517421170129306
0.000425531914893617 0.38851816372878023 0.45160343285341364
0.0006382978723404255 0.3881021112502294 0.4514647486938967
0.000851063829787234 0.3876860587716786 0.45132606453437973
0.0010638297872340426 0.3872700062931278 0.4511873803748628
0.001276595744680851 0.38685395381457705 0.4510486962153458
0.0014893617021276596 0.38643790133602623 0.45091001205582887
0.001702127659574468 0.39061533318222036 0.4523024893378937
0.0019148936170212765 0.3942763425278766 0.4552517869005745
0.002127659574468085 0.39730130754859205 0.4593263285216684
0.002340425531914894 0.3986415399006999 0.4653573741061539
0.002553191489361702 0.3965284230075169 0.4680318825699671
0.0027659574468085106 0.39346303017262346 0.4688766920460771
0.0029787234042553193 0.3913635350143675 0.4682437102585314
0.0031914893617021275 0.38816763422958256 0.46295755935002536
0.003404255319148936 0.3843386963682126 0.4534218007440379
0.003617021276595745 0.3837119076107709 0.44652712441217873
0.003829787234042553 0.3823838843644449 0.4401999704587522
0.004042553191489362 0.3833580318412002 0.4344890880467
0.00425531914893617 0.38427630126967705 0.431362970200293
0.004468085106382979 0.38413762942781304 0.4352669007586515
0.004680851063829788 0.388706037053436 0.4442881385903036
0.004893617021276595 0.39339566736050785 0.44858696637178613
0.005106382978723404 0.3980852976675798 0.45288579415326874
0.005319148936170213 0.40116619137507475 0.4579259342889868
0.005531914893617021 0.4072768952370184 0.4611900069160691
0.00574468085106383 0.4151621537420665 0.46344293791751145
0.005957446808510639 0.4204241809329056 0.4640319890913381
0.006170212765957446 0.42548250974885776 0.4644918371655155
0.006382978723404255 0.43165400851133057 0.47123747636291735
0.006595744680851064 0.4374783163648303 0.47684339423498107
0.006808510638297872 0.44092719435406347 0.4785521874973756
0.007021276595744681 0.44343593786797136 0.4789703114163603
0.00723404255319149 0.4453336336578529 0.4789457996591965
0.007446808510638298 0.4460185637518319 0.4782608695652173
0.007659574468085106 0.44579877659218775 0.47848065672486145
0.007872340425531916 0.44406448461162684 0.4803039023148039
0.008085106382978723 0.44406448461162684 0.48213848155481864
0.008297872340425531 0.44035580782156736 0.49236788901829126
0.00851063829787234 0.435082176006544 0.49714492172064983
0.008723404255319148 0.4280494111517621 0.4991893671359
0.008936170212765958 0.4255007327796776 0.49975574010747437
0.009148936170212766 0.42668155823294784 0.498102584472896
0.009361702127659575 0.4295956900598139 0.4940227999152834
0.009574468085106383 0.4373418164143974 0.4844700303787907
0.00978723404255319 0.44673959722663326 0.4730584393925044
0.01 0.4557890202143951 0.4620698543359364
0.010212765957446808 0.46708838187377644 0.45428665583390787
0.010425531914893617 0.47865427914331 0.4474825020132036
0.010638297872340425 0.4890149363916411 0.4410070912329966
0.010851063829787235 0.49673119876852484 0.4365171894156297
0.011063829787234043 0.5034570054094107 0.4332725042611631
0.01127659574468085 0.5085490962383976 0.431362970200293
0.01148936170212766 0.5085490962383976 0.43280051652939744
0.011702127659574468 0.509131838148824 0.43722520762090866
0.011914893617021277 0.5087541262216884 0.44037349610335474
0.012127659574468085 0.5030348589820097 0.4489245721161719
0.012340425531914893 0.4979626042946721 0.4549728632101582
0.012553191489361702 0.4987737766408626 0.45578403555634867
0.01276595744680851 0.4969183164918116 0.4529983833845177
0.01297872340425532 0.49499878038191564 0.4482932382044227
0.013191489361702127 0.4957727851851696 0.44255918532278793
0.013404255319148937 0.49852179283369813 0.4385447907959094
0.013617021276595745 0.4996270271331576 0.4356572674036537
0.013829787234042552 0.4989412654837062 0.4369000777282398
0.014042553191489362 0.5023889727301151 0.43939137093655467
0.01425531914893617 0.5016399426040321 0.44285493404301995
0.01446808510638298 0.5013897439715109 0.44406448461162684
0.014680851063829787 0.5017098192476794 0.4434061509480049
0.014893617021276596 0.5028057579344061 0.44363541438488746
0.015106382978723404 0.5036638983878847 0.44406448461162684
0.015319148936170212 0.5044018931285519 0.44590947146329485
0.015531914893617021 0.5056179775280898 0.4472086632130915
0.01574468085106383 0.5070604995802132 0.4426219625595035
0.015957446808510637 0.5087644576072226 0.4397754872305776
0.016170212765957447 0.5075720566682951 0.4375942906180002
0.016382978723404256 0.5075720566682951 0.4344648756038517
0.016595744680851062 0.5059158413444942 0.4329029955095481
0.01680851063829787 0.5040623478359922 0.4275586163931054
0.01702127659574468 0.5038647144460042 0.4202274231731731
0.01723404255319149 0.5005697151611961 0.41921506662774477
0.017446808510638297 0.49700185661199164 0.4174617492560432
0.017659574468085106 0.4941846180770715 0.4150651515786546
0.017872340425531916 0.49026488389365863 0.4134972579052895
0.018085106382978722 0.4880233112241158 0.4126006288374724
0.01829787234042553 0.4853584530282894 0.4120018620726784
0.01851063829787234 0.47990539595755327 0.4133651263403625
0.01872340425531915 0.47609801803830304 0.4150739688545951
0.018936170212765956 0.4724922568803004 0.41722270196882333
0.019148936170212766 0.46518578267088695 0.4214848119243144
0.019361702127659575 0.45635245682724423 0.42599222596850117
0.01957446808510638 0.4469674950426946 0.43117083543292806
0.01978723404255319 0.43975835358464255 0.4373673407446851
0.02 0.4303027811696794 0.4407443308928861
0.02021276595744681 0.42235981220293706 0.4441693855448431
0.020425531914893616 0.415846726863783 0.4468726533526528
0.020638297872340425 0.411134251345772 0.4461994425643656
0.020851063829787235 0.40740777037288 0.4460185637518319
0.02106382978723404 0.4049829018075233 0.4460185637518319
0.02127659574468085 0.40505936284840116 0.44596758972458
0.02148936170212766 0.4086635335991012 0.44356480922411323
0.02170212765957447 0.41245936183580334 0.4418798022417552
0.021914893617021276 0.41654911057142835 0.4412955524223802
0.022127659574468085 0.4201248411025625 0.4421095358548012
0.022340425531914895 0.4232664948191806 0.4430874450415241
0.0225531914893617 0.4257933841585999 0.4430874450415241
0.02276595744680851 0.4283575235079246 0.4430874450415241
0.02297872340425532 0.4318944803761175 0.44655007392765617
0.023191489361702126 0.42814142665857297 0.4504944225817868
0.023404255319148935 0.4235257158317454 0.4538488388511374
0.023617021276595745 0.4206155349291647 0.4557889594528579
0.023829787234042554 0.41880125309301514 0.4559099115752679
0.02404255319148936 0.40594432082635923 0.45677771443641035
0.02425531914893617 0.4025257354352607 0.4593416534797343
0.02446808510638298 0.39556134359802586 0.461644249583025
0.024680851063829785 0.3897385378622696 0.46474727772184254
0.024893617021276595 0.3848161645556192 0.4680477627674072
0.025106382978723404 0.3787174109640633 0.4700806806312591
0.025319148936170214 0.37304781491152084 0.4750225319375265
0.02553191489361702 0.36747211262375523 0.47962657344674064
0.02574468085106383 0.36189743938699753 0.48121933722867144
0.02595744680851064 0.35632276615023983 0.48281210101060223
0.026170212765957445 0.3498430633620716 0.4836771494527523
0.026382978723404255 0.34312325086968143 0.4843491307019913
0.026595744680851064 0.33640343837729125 0.4850211119512303
0.026808510638297874 0.3332812928078646 0.4851001465559355
0.02702127659574468 0.33067925651487995 0.4850758275735122
0.02723404255319149 0.32923848165515157 0.4843554401436481
0.0274468085106383 0.3278122715035772 0.4826807912319169
0.027659574468085105 0.32774078178849875 0.4814990034719193
0.027872340425531914 0.3308040383633306 0.4825200889968634
0.028085106382978724 0.33359748265748534 0.4825357280573612
0.028297872340425533 0.33642293058204276 0.4811919882755251
0.02851063829787234 0.34189168822404453 0.4811919882755251
0.02872340425531915 0.34963947458275757 0.47903585669698506
0.02893617021276596 0.3621676582737651 0.4782608695652173
0.029148936170212764 0.37889799974465405 0.476962509213671
0.029361702127659574 0.3981432796554926 0.4740668495066245
0.029574468085106383 0.4250888016939563 0.4661803552514644
0.029787234042553193 0.45124475076226894 0.4605253049723719
0.03 0.47655584953734276 0.4566497714372062
0.03021276595744681 0.4907740665385936 0.4500146035032891
0.030425531914893618 0.5109443736612351 0.4468191240088816
0.030638297872340424 0.5212847529703387 0.4429750914981119
0.030851063829787233 0.529993532469828 0.4422262311288311
0.031063829787234043 0.5370609697512114 0.4430874450415241
0.03127659574468085 0.5390536858751519 0.443844715414033
0.03148936170212766 0.5402417233424509 0.4501099482686863
0.03170212765957447 0.5355545514691384 0.4516723388931239
0.031914893617021274 0.5370392077516555 0.4561008874134232
0.03212765957446809 0.5397360042487613 0.4571177982906343
0.03234042553191489 0.5426225042032705 0.45676599902296044
0.0325531914893617 0.5431460699386096 0.4573424498464417
0.03276595744680851 0.5422212223826802 0.458267297402371
0.03297872340425532 0.53936493812381 0.4583194942468196
0.033191489361702124 0.5342425784647857 0.4573271321589419
0.03340425531914894 0.5280724762177131 0.45582378229833054
0.03361702127659574 0.5271143149175128 0.4577401048987311
0.033829787234042556 0.5251689560055656 0.45283237305399027
0.03404255319148936 0.526841078360441 0.4486520671668018
0.03425531914893617 0.5302547141569878 0.44325984376207583
0.03446808510638298 0.5314651613163833 0.4381130107807862
0.03468085106382979 0.5319980459208598 0.43315835946863984
0.03489361702127659 0.5319980459208598 0.42965445983302375
0.035106382978723406 0.5308617259869947 0.4284318514899854
0.03531914893617021 0.5269551946357531 0.4258578747025674
0.03553191489361702 0.5211411363581834 0.42303988813916305
0.03574468085106383 0.5168809542665718 0.4201720512812835
0.03595744680851064 0.5136643036840144 0.4163913640600308
0.036170212765957444 0.5107271775497886 0.41249418531179877
0.036382978723404256 0.5091961026072238 0.40724089408155184
0.03659574468085106 0.5082381798997725 0.40276219688292003
0.03680851063829787 0.5067153776844554 0.39952658463445045
0.03702127659574468 0.5033612118078523 0.3983264428382529
0.03723404255319149 0.4981378334145736 0.3990726397515784
0.0374468085106383 0.49633235950120463 0.3998553151199398
0.03765957446808511 0.49388640292289016 0.4033663354639666
0.03787234042553191 0.48987332203229944 0.40650447234975157
0.038085106382978726 0.485608870997932 0.40972071389059195
0.03829787234042553 0.47971846251836014 0.41183245801267543
0.03851063829787234 0.46948289216271044 0.40894550227133836
0.03872340425531915 0.45924732180706035 0.4060585465300011
0.03893617021276596 0.4490117514514106 0.403171590788664
0.03914893617021276 0.44014933505753706 0.4035966849259077
0.039361702127659576 0.4321570598881278 0.4061205612951948
0.03957446808510638 0.4229048851671083 0.408679639199832
0.03978723404255319 0.4114233155905376 0.4123930298531709
0.04 0.4044071934713582 0.4215095474515986
0.04021276595744681 0.4008232823605697 0.4334715850198403
0.04042553191489362 0.39859621466756573 0.44302138489094994
0.040638297872340426 0.39470998281891867 0.45701181954607933
0.04085106382978723 0.39367334578098695 0.4643412857172441
0.041063829787234045 0.392954119281611 0.4712292430263218
0.04127659574468085 0.3944660581825043 0.47728382999511476
0.04148936170212766 0.4043138597098171 0.47728382999511476
0.04170212765957447 0.4147196842930105 0.4745464103340571
0.041914893617021276 0.4248826332589888 0.4715212831420095
0.04212765957446808 0.4343764371011943 0.4689896021174213
0.042340425531914895 0.4438702409434001 0.46645792109283307
0.0425531914893617 0.4529642077337837 0.4643533771247324
0.04276595744680851 0.46091511010648767 0.4634699435277652
0.04297872340425532 0.46872418325578963 0.4629621070030017
0.043191489361702126 0.47367227775781223 0.47003081343446257
0.04340425531914894 0.47794759765694683 0.47108970874358325
0.043617021276595745 0.47664807406886717 0.4736818468374628
0.04382978723404255 0.47470998197738984 0.47904836412002816
0.044042553191489364 0.47125473220549474 0.48274097781518127
0.04425531914893617 0.46591372780162893 0.4876661328218565
0.044468085106382976 0.4601991015242619 0.4949384073682627
0.04468085106382979 0.45508784215800424 0.49566858727772806
0.044893617021276595 0.44574499703873327 0.49632345731376515
0.0451063829787234 0.43424257005329775 0.4969737532755471
0.045319148936170214 0.4196947720433011 0.49770114317604686
0.04553191489361702 0.4050431933896657 0.49464135525997127
0.045744680851063826 0.39318480274419215 0.49315458765744014
0.04595744680851064 0.38702315864990305 0.4899794412446839
0.046170212765957445 0.38257886689184795 0.4860289596819682
0.04638297872340425 0.37473979133952495 0.48374131439882834
0.046595744680851064 0.37176355642403514 0.47932240416173616
0.04680851063829787 0.37012217298760314 0.47564244655868276
0.047021276595744683 0.3697142496697866 0.4734708993287477
0.04723404255319149 0.36838088831568916 0.47119581787548015
0.047446808510638296 0.3644918628017376 0.46946751343429405
0.04765957446808511 0.3634776451320426 0.47228508182132506
0.047872340425531915 0.3640063296055613 0.4763658801673591
0.04808510638297872 0.36492427943331696 0.4801147338875966
0.048297872340425534 0.3672511011393149 0.4839141441251261
0.04851063829787234 0.3727927247210716 0.4856659018426989
0.048723404255319146 0.3751131151189908 0.48551858654058333
0.04893617021276596 0.37857101259003517 0.4834388590749245
0.049148936170212765 0.38472500229413886 0.48057350276108884
0.04936170212765957 0.3899553794219674 0.47667871925902905
0.049574468085106384 0.39981214100037493 0.47105800658297586
0.04978723404255319 0.41548807507626023 0.46224452677518163
0.05 0.4333705619578406 0.45088592406323086
0.05021276595744681 0.4568197674283747 0.4430695222397194
0.050425531914893615 0.46640568916616587 0.4335784604561391
0.05063829787234043 0.4780352932308352 0.4241592404084339
0.050851063829787234 0.4889350599856281 0.4159500716308051
0.05106382978723404 0.491252382196734 0.40977143358464185
0.05127659574468085 0.493471647066695 0.4090316786279882
0.05148936170212766 0.4950706012926885 0.40947960939084843
0.051702127659574465 0.4943866179177964 0.4095028586807193
0.05191489361702128 0.49179542394642534 0.40946705848884696
0.052127659574468084 0.4911421935974368 0.41207997988480116
0.05234042553191489 0.4906450704280657 0.416606980950169
0.0525531914893617 0.4902072382257315 0.42186096737817935
0.05276595744680851 0.48976940602339725 0.4271149538061896
0.05297872340425532 0.489331573821063 0.43236894023419997
0.05319148936170213 0.48803268715727427 0.4368985798368538
0.053404255319148934 0.484304118372727 0.43938429235988535
0.05361702127659575 0.4805755495881796 0.44187000488291694
0.05382978723404255 0.47728382999511476 0.4446705880498035
0.05404255319148936 0.47728382999511476 0.449843765438832
0.05425531914893617 0.47728382999511476 0.4550169428278607
0.05446808510638298 0.47728382999511476 0.4601901202168892
0.054680851063829784 0.47728382999511476 0.46536329760591777
0.0548936170212766 0.47957999003504187 0.4617144586401393
0.0551063829787234 0.4825495412428956 0.4554784011036466
0.05531914893617021 0.4855190924507493 0.4492423435671539
0.05553191489361702 0.4889026278180617 0.44301491030371043
0.05574468085106383 0.492729214557346 0.4367967068523735
0.055957446808510634 0.4971935765239185 0.4302196703178889
0.05617021276595745 0.502468309910062 0.4231866924696976
0.05638297872340425 0.5083579178186665 0.4184632282120793
0.056595744680851066 0.5148937748488671 0.4145120769136221
0.05680851063829787 0.5223635007424121 0.4107869175756052
0.05702127659574468 0.52830889640025 0.4082388908651031
0.05723404255319149 0.5290669272105519 0.40856296544043313
0.0574468085106383 0.5283134443585756 0.4081375772359572
0.057659574468085104 0.5264981734739288 0.40681404602844473
0.05787234042553192 0.5208838866526637 0.4056911886641918
0.05808510638297872 0.51602869428205 0.4049829018075233
0.05829787234042553 0.5124704022276191 0.4049829018075233
0.05851063829787234 0.5032695175854707 0.4054960703927254
0.05872340425531915 0.49384557979851684 0.4056739410878334
0.058936170212765954 0.48810250146531575 0.40588870517855336
0.05914893617021277 0.4814598659533849 0.4109748470329345
0.05936170212765957 0.4670364738787075 0.41462883219586755
0.059574468085106386 0.4494154829185976 0.4271580068024482
0.05978723404255319 0.4322042592233857 0.4373609581679186
0.06 0.41471433782532624 0.4506641268079271
0.06021276595744681 0.3981973629404422 0.45754725409304653
0.06042553191489362 0.3860631798681278 0.46858134461642764
0.06063829787234042 0.38272979731953366 0.477444141343611
0.060851063829787236 0.3790902867069148 0.48339299354048043
0.06106382978723404 0.3776257938446508 0.48705422569614076
0.06127659574468085 0.37872390671020884 0.4859561128305826
0.06148936170212766 0.3831063152606032 0.48284840563301057
0.06170212765957447 0.38988961840753195 0.4772257386390018
0.06191489361702127 0.3966684410712987 0.4720969164253269
0.062127659574468086 0.4032542208508284 0.47075590690778457
0.06234042553191489 0.40939690299514897 0.47105087195516976
0.0625531914893617 0.4153719921209105 0.4717757330003976
0.0627659574468085 0.42273514521098543 0.4728595634060505
0.06297872340425532 0.4284468859464621 0.47534478531138635
0.06319148936170213 0.43105070718444866 0.47728382999511476
0.06340425531914894 0.43284138829927093 0.4817190842920484
0.06361702127659574 0.4333170493404983 0.4823337300568719
0.06382978723404255 0.4359791955225369 0.48660593814902536
0.06404255319148935 0.44008365647508246 0.4860953535900715
0.06425531914893617 0.44749896537657075 0.48289438638841226
0.06446808510638298 0.4575547064423677 0.4772468171688366
0.06468085106382979 0.4644077025390238 0.46866508690894887
0.06489361702127659 0.47075229185790946 0.46191017911871246
0.0651063829787234 0.4732451750189373 0.4552669726697896
0.06531914893617022 0.4718179633125659 0.45071946350837566
0.06553191489361702 0.4667699855083261 0.4446697997888479
0.06574468085106383 0.4545425517033726 0.4397588149600135
0.06595744680851064 0.4409373030154164 0.43893529977353907
0.06617021276595744 0.42954105424658007 0.4423801194067014
0.06638297872340425 0.4163886099102661 0.44633733049032
0.06659574468085107 0.4046404269705233 0.4563852601830988
0.06680851063829787 0.39308178559015167 0.4646471780995013
0.06702127659574468 0.3867745121947266 0.4717283836550945
0.06723404255319149 0.37957987298485585 0.47901747523465654
0.06744680851063829 0.3750311705805924 0.48223632693487767
0.06765957446808511 0.36771041390703774 0.4843405833407136
0.06787234042553192 0.3659013190034197 0.48763940809414735
0.06808510638297872 0.36398477416960684 0.4918643549338689
0.06829787234042553 0.36507528843819187 0.4988053750253787
0.06851063829787234 0.36818899656675896 0.5045455756164758
0.06872340425531914 0.3721735784469044 0.5097944034445613
0.06893617021276596 0.3791472631497426 0.5123336517087757
0.06914893617021277 0.3894852649646529 0.5164704099049291
0.06936170212765957 0.39899863523502027 0.5233471915263057
0.06957446808510638 0.4112722439123044 0.5251587689301416
0.06978723404255319 0.42867551249238617 0.5251587689301416
0.06999999999999999 0.4446512860890634 0.5250414086346543
0.07021276595744681 0.45961795586824233 0.5214679075463075
0.07042553191489362 0.4729240020401599 0.5105241361978305
0.07063829787234042 0.48396522460880703 0.5010485444316286
0.07085106382978723 0.4928855625068596 0.483635241642259
0.07106382978723404 0.5001407526588484 0.47017030178253366
0.07127659574468086 0.503835884575449 0.45751617485021523
0.07148936170212766 0.5041358919813813 0.44910304830111464
0.07170212765957447 0.5007035782640683 0.4391500853476052
0.07191489361702127 0.49601429020756116 0.4320298037222816
0.07212765957446808 0.4915275416822538 0.4264996688985377
0.07234042553191489 0.4863591113052842 0.4232711941650655
0.0725531914893617 0.4857376188233985 0.4171302686270258
0.07276595744680851 0.4875056790647344 0.4140390510392009
0.07297872340425532 0.48882382639704874 0.41456881906925197
0.07319148936170213 0.4907535788931131 0.41300802345178195
0.07340425531914893 0.49286325386935875 0.41089834847553613
0.07361702127659574 0.4997006693354043 0.41372118716637646
0.07382978723404256 0.4990191916141377 0.4125587272915781
0.07404255319148936 0.5006114849044537 0.41114837616094657
0.07425531914893617 0.49961456724520287 0.4136406703090739
0.07446808510638298 0.49865065492040556 0.4161144739295503
0.07468085106382978 0.49785804279599444 0.41849231030278333
0.0748936170212766 0.4978016609672691 0.42056702593708106
0.07510638297872341 0.49869215812767426 0.42341684002492597
0.07531914893617021 0.49703183569171083 0.42030471348734827
0.07553191489361702 0.49860103135010037 0.41750674703158547
0.07574468085106383 0.5001068280633127 0.41619511729407793
0.07595744680851063 0.504933808798937 0.4130920892092936
0.07617021276595745 0.5021042140205376 0.4090793101123199
0.07638297872340426 0.5017899081160758 0.40701706981612457
0.07659574468085106 0.5012508270848172 0.40492384656314506
0.07680851063829787 0.49992293385563774 0.4046014907014346
0.07702127659574468 0.4974281037574387 0.40093111146772387
0.0772340425531915 0.49457166019679744 0.39761869025332836
0.0774468085106383 0.4914315677424653 0.39716658524670256
0.07765957446808511 0.4909623839765511 0.4007491867838567
0.07787234042553191 0.4880473099843081 0.41079165683458935
0.07808510638297872 0.4908077378566105 0.4163980844088732
0.07829787234042553 0.4899696524217042 0.4226951499473231
0.07851063829787235 0.48892033145952646 0.43082579751428723
0.07872340425531915 0.4867261574020747 0.4364130978618509
0.07893617021276596 0.4794874967210886 0.44211040547142155
0.07914893617021276 0.4728694023396942 0.44337167051582743
0.07936170212765957 0.45865085484120266 0.4467807823937513
0.07957446808510638 0.4459162035663563 0.4497863003596694
0.0797872340425532 0.43376874531980053 0.45294539800768346
0.08 0.42239398462879507 0.4538348803126526
0.08021276595744681 0.4159484445463975 0.4558696387445741
0.08042553191489361 0.41249063764883653 0.45902865888267297
0.08063829787234042 0.4084979717735306 0.46052816948944586
0.08085106382978724 0.4079140205178309 0.4650600431496752
0.08106382978723405 0.4060178282126275 0.46271506669607837
0.08127659574468085 0.40419669704716393 0.45750449508088376
0.08148936170212766 0.4084215665702401 0.45184274863773166
0.08170212765957446 0.412657358233332 0.44274478073522977
0.08191489361702127 0.41742272512832557 0.43203757151103556
0.08212765957446809 0.423316449574533 0.424064347244408
0.0823404255319149 0.42688483265329397 0.416789073234465
0.0825531914893617 0.42883336619817686 0.41188018218281447
0.08276595744680851 0.42985804576904385 0.41031725436699207
0.08297872340425531 0.4312166666585977 0.41348365085505556
0.08319148936170212 0.431015084513072 0.42235496336527
0.08340425531914894 0.4303859306301905 0.4328145109878922
0.08361702127659575 0.42798717845681744 0.4424673850008225
0.08382978723404255 0.42483515382779347 0.45192345888789476
0.08404255319148936 0.41829161562212314 0.45998021512820936
0.08425531914893616 0.4110283063775302 0.4644776486412717
0.08446808510638298 0.40583711469838746 0.4676362609733271
0.08468085106382979 0.38500935671815595 0.48798318152320824
0.0848936170212766 0.38130650884737544 0.4875717539820104
0.0851063829787234 0.3776036609765949 0.48716032644081264
0.08531914893617021 0.37313185604221005 0.49057112392847874
0.08553191489361701 0.3683272718294933 0.49468845122228716
0.08574468085106383 0.36305460825945324 0.49839674870310996
0.08595744680851064 0.3610161211529066 0.4990492778067076
0.08617021276595745 0.3610161211529066 0.4979221343421613
0.08638297872340425 0.36179701936730446 0.49623986453847374
0.08659574468085106 0.362722252375483 0.49511849017459036
0.08680851063829788 0.3629702002931119 0.4941541912126481
0.08702127659574468 0.364321219372512 0.48984044544865823
0.08723404255319149 0.36604922422921676 0.4869063204703435
0.0874468085106383 0.36687835857352225 0.4830353457682296
0.0876595744680851 0.36722276621526134 0.47854909385184174
0.08787234042553191 0.3684239463918588 0.47728382999511476
0.08808510638297873 0.37024818771215423 0.477722540423439
0.08829787234042553 0.37247319450136424 0.4794744551610964
0.08851063829787234 0.37438888943194304 0.48388437713422205
0.08872340425531915 0.37499673858674276 0.4939859883826574
0.08893617021276595 0.37854560894874034 0.49966418096185367
0.08914893617021276 0.3828023780992756 0.5014355579812831
0.08936170212765958 0.38917108685914864 0.5008979541628391
0.08957446808510638 0.3999545808362743 0.4951168706724078
0.08978723404255319 0.4218630448511521 0.4717048895224496
0.09 0.4385198252167523 0.45850835947933816
0.0902127659574468 0.4531944449176243 0.4485120970345433
0.09042553191489362 0.46239515128863806 0.4365511787522253
0.09063829787234043 0.46985504555396823 0.4254079543852176
0.09085106382978723 0.4787796684311165 0.4192195288471169
0.09106382978723404 0.48662684482508817 0.4149669879440753
0.09127659574468085 0.4942566285730017 0.41180813653720055
0.09148936170212765 0.49933086316983905 0.41209826011447503
0.09170212765957447 0.5049123776998645 0.4139933892318547
0.09191489361702128 0.5087536179180056 0.4171164200079702
0.09212765957446808 0.5131779188263864 0.4212698722303067
0.09234042553191489 0.5181332614476224 0.4235466536394723
0.0925531914893617 0.5231485479632066 0.4239262411021674
0.0927659574468085 0.5342749637238289 0.42615152425429187
0.09297872340425532 0.5425784155479909 0.4264777723497801
0.09319148936170213 0.5548968857788399 0.4254532961412753
0.09340425531914893 0.5651553441812984 0.424839031879101
0.09361702127659574 0.569441712571406 0.4254691164810128
0.09382978723404255 0.5756209342921048 0.42485119430894297
0.09404255319148937 0.579689041972291 0.42610988658258897
0.09425531914893617 0.5803135927038 0.429504714934364
0.09446808510638298 0.5785895448026341 0.4338720121861454
0.09468085106382979 0.576731889401044 0.4422783868670495
0.09489361702127659 0.5730023908156457 0.445261985735368
0.0951063829787234 0.5696019575042413 0.45031430763577496
0.09531914893617022 0.5655838483934235 0.45337077306679646
0.09553191489361702 0.5607938966481435 0.4533409972094528
0.09574468085106383 0.5530071428397104 0.45232074359515817
0.09595744680851064 0.5443839571297331 0.45188080117244755
0.09617021276595744 0.5349902895544435 0.45120298596570324
0.09638297872340426 0.5279024132470663 0.4509037616023448
0.09659574468085107 0.5208498342593347 0.4525196121038974
0.09680851063829787 0.513706890976444 0.45565266100909113
0.09702127659574468 0.5101524623386147 0.458093751633051
0.09723404255319149 0.5073542414706319 0.4579961133838761
0.09744680851063829 0.5034305657671251 0.4537874744292287
0.09765957446808511 0.49834900142587063 0.44678484039387406
0.09787234042553192 0.4949719876339458 0.4413024415296262
0.09808510638297872 0.4905210181442374 0.43591393696605013
0.09829787234042553 0.49363325611454073 0.431623216772611
0.09851063829787234 0.4899912683494816 0.4274607358629159
0.09872340425531914 0.48900830483634583 0.42582306837812084
0.09893617021276596 0.48766480778665605 0.4176844162188569
0.09914893617021277 0.4775088239653076 0.418135437008876
0.09936170212765957 0.4645362058899797 0.42115936765683576
0.09957446808510638 0.4484475160522238 0.4264556519992156
0.09978723404255319 0.4316463281008427 0.43173342419344873
0.1 0.4190195061162229 0.43645449779841905
0.10021276595744681 0.4094724154234221 0.4394319164810182
0.10042553191489362 0.4013908374198792 0.4387697904492541
0.10063829787234042 0.3975727510604995 0.43665433386460306
0.10085106382978723 0.39716658524670256 0.4336927379817195
0.10106382978723404 0.4008813087073863 0.4323883684753274
0.10127659574468086 0.4051509683748688 0.425437707816923
0.10148936170212766 0.41347606564049866 0.4217960743297644
0.10170212765957447 0.4203450714082841 0.414400009483938
0.10191489361702127 0.42514718968705517 0.41211327434795136
0.10212765957446808 0.43075824623749087 0.4094957840507358
0.10234042553191489 0.43284471687516796 0.4079140205178309
0.1025531914893617 0.436887422218804 0.4079140205178309
0.10276595744680851 0.4379486311976942 0.4093608676714022
0.10297872340425532 0.4382022471910112 0.4121561265179436
0.10319148936170212 0.4364580783823768 0.4190087643643497
0.10340425531914893 0.4323537451624353 0.4293814202760086
0.10361702127659575 0.4267186054780892 0.4408971017919652
0.10382978723404256 0.4195195211345564 0.45769496526020864
0.10404255319148936 0.41442391067725465 0.47770668445801334
0.10425531914893617 0.4100926313826157 0.49487298351511605
0.10446808510638297 0.4071545535444689 0.5025119858942978
0.10468085106382978 0.40322073293842153 0.5124659986261005
0.1048936170212766 0.3986046353910158 0.5240062424946148
0.1051063829787234 0.39237161410003124 0.5330296926348332
0.10531914893617021 0.386274816875337 0.5393046476315261
0.10553191489361702 0.38127082680169616 0.5370301066889621
0.10574468085106382 0.3765552054780935 0.53414959132738
0.10595744680851064 0.37532950308982066 0.5239354047584391
0.10617021276595745 0.3741038007015479 0.5137212181894989
0.10638297872340426 0.3705903132519304 0.5077233333232163
0.10659574468085106 0.36602450462022307 0.5036648367616987
0.10680851063829787 0.3616852957656387 0.49566906087114576
0.10702127659574467 0.3581703763761962 0.48790479125460273
0.1072340425531915 0.3561309233023937 0.4830570419946236
0.1074468085106383 0.3561309233023937 0.4823077574314005
0.1076595744680851 0.35356180259864967 0.4795999071418836
0.10787234042553191 0.35222276502198335 0.4787241192061124
0.10808510638297872 0.35424331907843293 0.4780833068173489
0.10829787234042552 0.3584473951919471 0.4747151040341553
0.10851063829787234 0.3539552822992314 0.47022299114143956
0.10872340425531915 0.35442588939125796 0.46701534383595
0.10893617021276596 0.355604858501757 0.46375545607602037
0.10914893617021276 0.3588146794915019 0.46241798435607573
0.10936170212765957 0.3646955396507278 0.45980952942692355
0.10957446808510639 0.3720903868006326 0.4502516938766991
0.1097872340425532 0.3859550023549243 0.44099295683175493
0.11 0.4020574351574557 0.42967330110275576
0.1102127659574468 0.41995749856515974 0.4231641871363179
0.11042553191489361 0.43710410343114103 0.41946730828299506
0.11063829787234042 0.4544100341918046 0.4170850254731445
0.11085106382978724 0.4719728814375765 0.41583053638416073
0.11106382978723404 0.48685578792749135 0.4177523545105697
0.11127659574468085 0.5001805778856675 0.4186614557889594
0.11148936170212766 0.5101550091712056 0.42044145182546594
0.11170212765957446 0.5149835330167803 0.4234279131060205
0.11191489361702127 0.5163349789163288 0.4254550819553433
0.11212765957446809 0.5163654127992183 0.431179072571389
0.1123404255319149 0.5139267573782728 0.4331528949107109
0.1125531914893617 0.5125876722125722 0.43755015872219033
0.1127659574468085 0.516064946714725 0.4418099393869282
0.11297872340425531 0.5163654127992183 0.4430614086015826
0.11319148936170213 0.5145295059788779 0.44311107950549705
0.11340425531914894 0.5193926389030834 0.44406448461162684
0.11361702127659574 0.5212225832238049 0.44406448461162684
0.11382978723404255 0.5279603802312479 0.44406448461162684
0.11404255319148936 0.5312042712757997 0.4479574641558146
0.11425531914893616 0.5326535773988973 0.44632755654998946
0.11446808510638298 0.5335900995147702 0.4468865662531527
0.11468085106382979 0.5327191321596932 0.4455066570892937
0.1148936170212766 0.5289180548274564 0.4428324881742654
0.1151063829787234 0.5276425712863229 0.4442292983353257
0.11531914893617021 0.5245760423975394 0.44328557300734633
0.11553191489361703 0.5209638590325119 0.43846471782269136
0.11574468085106383 0.5256197806013516 0.43605465758872136
0.11595744680851064 0.5193853761966979 0.4337167559369762
0.11617021276595745 0.5197640411915013 0.4362061478446539
0.11638297872340425 0.5197373786514471 0.44205093947454305
0.11659574468085106 0.51890055444738 0.4489883917179275
0.11680851063829788 0.5179537892550288 0.4560891306605615
0.11702127659574468 0.5164374558251519 0.46248415039170887
0.11723404255319149 0.5142356120032247 0.4667121163797748
0.1174468085106383 0.5134866081494426 0.46756574835462106
0.1176595744680851 0.5144059260501215 0.46848506625529973
0.11787234042553191 0.5144113336590133 0.45920305988193755
0.11808510638297873 0.5092342303392747 0.4522486990134924
0.11829787234042553 0.5077139933909033 0.4452197614864368
0.11851063829787234 0.5095261358085001 0.4373691121791735
0.11872340425531915 0.5094982066730661 0.426380020375761
0.11893617021276595 0.5078215866783213 0.42051185039415406
0.11914893617021277 0.503591125669273 0.41486137816023544
0.11936170212765958 0.49622282807982293 0.41090335538824246
0.11957446808510638 0.4845311793015906 0.4118743118120222
0.11978723404255319 0.4708098151839652 0.41844229848121833
0.12 0.45898947761260783 0.41860626652596006
0.1202127659574468 0.4481828541548515 0.41851530366545525
0.12042553191489362 0.43826639525834765 0.4235038882612481
0.12063829787234043 0.43039181503997775 0.4289859566659102
0.12085106382978723 0.41947480034194434 0.4326251934172008
0.12106382978723404 0.410142613387612 0.4355053037608791
0.12127659574468085 0.40716878016510366 0.4399743698144423
0.12148936170212765 0.4029369660059073 0.4419333688896832
0.12170212765957447 0.4037736416345808 0.4403885469340562
0.12191489361702128 0.4040058622374205 0.4426994897908339
0.12212765957446808 0.4024888790248576 0.4476383946792132
0.12234042553191489 0.40205178309721545 0.44740765939607624
0.1225531914893617 0.3995711497911859 0.446168725553258
0.12276595744680852 0.39912066438690763 0.4460185637518319
0.12297872340425532 0.3981864386538008 0.4450843380187251
0.12319148936170213 0.3971351339080422 0.4400619723152355
0.12340425531914893 0.395289385686044 0.43383281143332053
0.12361702127659574 0.39671873612739184 0.4282995538772874
0.12382978723404255 0.40065867883042044 0.42801578679329294
0.12404255319148937 0.40183178646929574 0.43110415234900384
0.12425531914893617 0.39843446993812526 0.43593465543237986
0.12446808510638298 0.39912066438690763 0.4434448727300739
0.12468085106382978 0.40022139172308513 0.44858692753624596
0.12489361702127659 0.4008952736739035 0.4582548847180057
0.1251063829787234 0.39693157437782206 0.4726658467494259
0.12531914893617022 0.3912753024916045 0.48810871949152973
0.125531914893617 0.3845261713363888 0.5007937989719945
0.12574468085106383 0.3784838214775793 0.5101311731234544
0.12595744680851065 0.3747151323241925 0.5192351599399776
0.12617021276595744 0.37082756034560876 0.5251177254384655
0.12638297872340426 0.366579589256704 0.529928908641626
0.12659574468085105 0.3630181094202096 0.5319980459208598
0.12680851063829787 0.3584551322223453 0.5256295946196647
0.1270212765957447 0.35241416918641916 0.5177285971561797
0.12723404255319148 0.34867687613649356 0.5086588648530568
0.1274468085106383 0.34551117022123917 0.4972927894270712
0.1276595744680851 0.347241004495811 0.490817539963062
0.12787234042553192 0.34333866889494796 0.4849186665637112
0.1280851063829787 0.3414753297508548 0.480121825642208
0.12829787234042553 0.3422372191704106 0.471827215079935
0.12851063829787235 0.3453834880312652 0.46946751343429405
0.12872340425531914 0.34639898062083513 0.470483006023864
0.12893617021276596 0.3499930869378112 0.4711397719974232
0.12914893617021275 0.35521846715641964 0.4679696623670759
0.12936170212765957 0.3627034498290615 0.4676910065706019
0.1295744680851064 0.37566832056878674 0.46588594011342693
0.12978723404255318 0.3907195309834899 0.4595010063695154
0.13 0.40841966857607864 0.4514389487976479
0.1302127659574468 0.42897980073950776 0.4413479110616091
0.13042553191489362 0.4518065597985935 0.4345808018953163
0.13063829787234044 0.4641200514957725 0.4214209826719026
0.13085106382978723 0.48251916456848193 0.4150157036901364
0.13106382978723405 0.4962039039007558 0.4081801674067345
0.13127659574468084 0.5111045814361243 0.403980776399094
0.13148936170212766 0.5248376729005261 0.40041879998662594
0.13170212765957448 0.5289828919140552 0.39912066438690763
0.13191489361702127 0.535400398372378 0.4010609146920401
0.1321276595744681 0.5395562759355461 0.40585547699076924
0.13234042553191488 0.5427136912092213 0.40855478357031044
0.1325531914893617 0.5472873223143123 0.41245586164015513
0.1327659574468085 0.5525159811520447 0.42159278301732805
0.13297872340425532 0.5577838539568782 0.42612121613572923
0.13319148936170214 0.5574429876783125 0.4311534055263665
0.13340425531914893 0.5611813785167328 0.4363440589312097
0.13361702127659575 0.5573003472283854 0.4393807417913974
0.13382978723404254 0.5559211152843486 0.441133365901319
0.13404255319148936 0.5520669788070408 0.441846334729357
0.13425531914893618 0.5438710848873696 0.44658910848023786
0.13446808510638297 0.5354901246499324 0.45425095986399033
0.1346808510638298 0.5249863924926503 0.45904194341621013
0.13489361702127659 0.5164479010460871 0.45819031425468
0.1351063829787234 0.51234025366708 0.46133817836601404
0.13531914893617022 0.507123979177093 0.46076127825574204
0.13553191489361702 0.5025747305179808 0.4576309102932619
0.13574468085106384 0.5009482998404393 0.4521968825795195
0.13595744680851063 0.5007327796775769 0.44760213452985154
0.13617021276595745 0.5016330472257028 0.44069373048505317
0.13638297872340424 0.4987794321769264 0.4362459731321425
0.13659574468085106 0.5009703042987813 0.4303067557564557
0.13680851063829788 0.5038226407561455 0.4290914063235665
0.13702127659574467 0.5054268713959226 0.42812846915239866
0.1372340425531915 0.5089394811148817 0.4311392774829351
0.13744680851063829 0.5101543489072002 0.43384739575710035
0.1376595744680851 0.5071347741421282 0.43554100700267123
0.13787234042553193 0.5072854635200249 0.43719589258958563
0.13808510638297872 0.5029802103053439 0.4381828501695278
0.13829787234042554 0.49734002561340535 0.43705340621549577
0.13851063829787233 0.4948507039785771 0.4372450458992929
0.13872340425531915 0.4915071720126087 0.4373332705044199
0.13893617021276597 0.48502562225016765 0.43940450439744155
0.13914893617021276 0.4784325929027507 0.43880961932750795
0.13936170212765958 0.4680324322312928 0.4404588903347529
0.13957446808510637 0.45308792107314766 0.44362765271746624
0.1397872340425532 0.4445592608205176 0.446783556375267
0.13999999999999999 0.43133076267963805 0.44700276054874666
0.1402127659574468 0.42241588777288486 0.4488728193138973
0.14042553191489363 0.41955079974579856 0.44766843283964686
0.14063829787234042 0.41331640375860684 0.44739812629135084
0.14085106382978724 0.409701611991446 0.45127492494193455
0.14106382978723403 0.4042360231504292 0.4484329647180542
0.14127659574468085 0.4034765456555457 0.44467539478714874
0.14148936170212767 0.4061036530540431 0.4399407588165902
0.14170212765957446 0.40972149601030494 0.4342127484667853
0.14191489361702128 0.4139140287063818 0.42927112029215253
0.14212765957446807 0.41637948212880865 0.4294022470703536
0.1423404255319149 0.42179367181403915 0.4303859306301905
0.1425531914893617 0.42192709539989287 0.43443482622913926
0.1427659574468085 0.42374116465454953 0.4388521120728406
0.14297872340425533 0.42452369320957506 0.4452547469000595
0.14319148936170212 0.42452369320957506 0.4534644116250356
0.14340425531914894 0.42719487224856884 0.46371585001273496
0.14361702127659573 0.42551720463041753 0.46942633380744425
0.14382978723404255 0.4317374870887401 0.4733756717147044
0.14404255319148937 0.439130097516059 0.4733756717147044
0.14425531914893616 0.44525174798082656 0.474006343111996
0.14446808510638298 0.4468958761145892 0.47513704060800255
0.14468085106382977 0.4482062824787472 0.4697967322027282
0.1448936170212766 0.44564863722672265 0.4655593551538837
0.1451063829787234 0.44088695585389465 0.46397059077501757
0.1453191489361702 0.43461280405485264 0.4608335148754967
0.14553191489361703 0.4296641321952522 0.45902814833948224
0.14574468085106382 0.4209385893447922 0.4564720995196077
0.14595744680851064 0.4135805124957004 0.4572406575366461
0.14617021276595746 0.40425569604267414 0.4524465006641659
0.14638297872340425 0.3995811029038502 0.4509037616023448
0.14659574468085107 0.39552918852505603 0.4491080236714191
0.14680851063829786 0.38542762218645416 0.4499315514385814
0.14702127659574468 0.37910084388552984 0.45180096298922656
0.14723404255319147 0.37285817037725966 0.45076051740451467
0.1474468085106383 0.3669874754820042 0.4501437026976474
0.14765957446808511 0.364238538693593 0.4509037616023448
0.1478723404255319 0.364206963436157 0.4512624196009249
0.14808510638297873 0.3642704454851091 0.4531810463644447
0.14829787234042552 0.3674265515934897 0.4588792067896086
0.14851063829787234 0.36942231401975123 0.47383588625802886
0.14872340425531916 0.37148919028530675 0.483991509944653
0.14893617021276595 0.3741374090511677 0.48840520788775477
0.14914893617021277 0.3780890518724315 0.49217105256054405
0.14936170212765956 0.38270325680797546 0.4923344297763062
0.14957446808510638 0.3886885237241277 0.48681775473987915
0.1497872340425532 0.398698102715771 0.4784325755324368
0.15 0.40833279251386334 0.46820352693128336
0.15021276595744681 0.4245569437050905 0.45274687562660226
0.1504255319148936 0.43745369028614056 0.43948659175603066
0.15063829787234043 0.4543388739050261 0.43049203454437435
0.15085106382978725 0.47258635711685987 0.43421899892169763
0.15106382978723404 0.48166431776069585 0.4305878146641632
0.15127659574468086 0.4879922955206868 0.4395367798338548
0.15148936170212765 0.49636786059622345 0.45339929216778185
0.15170212765957447 0.5018002637724153 0.46938420899035443
0.15191489361702126 0.5050873174064872 0.48520107795102924
0.15212765957446808 0.5017189336933452 0.49738897046963054
0.1523404255319149 0.49689060765948895 0.5035979121255623
0.1525531914893617 0.4935627397794797 0.5054025519738486
0.15276595744680851 0.4936567365923527 0.5033971571013002
0.1529787234042553 0.4931891566449742 0.49705209048270577
0.15319148936170213 0.4977402477501748 0.4874493351286251
0.15340425531914895 0.5045421663586767 0.4769848449616991
0.15361702127659574 0.5072479931385983 0.4731563967075652
0.15382978723404256 0.5097107457192266 0.47025994309367036
0.15404255319148935 0.5132520047726571 0.46671868404023986
0.15425531914893617 0.5167133818430286 0.4592287226478415
0.154468085106383 0.5178047824479821 0.44966482496834154
0.15468085106382978 0.5192599692958308 0.44072711109708196
0.1548936170212766 0.5212506106497312 0.4315172567367676
0.1551063829787234 0.5215992307459009 0.42271177201032073
0.15531914893617021 0.5224229145048034 0.4161223019391015
0.155531914893617 0.5231837710087075 0.40976350575189086
0.15574468085106383 0.5219912008843804 0.40491534485453656
0.15595744680851065 0.5151626493355379 0.4028030987737401
0.15617021276595744 0.5094826255811092 0.3972753608151798
0.15638297872340426 0.5072602272844391 0.4018249980907747
0.15659574468085105 0.4966446370194427 0.3946854274807043
0.15680851063829787 0.49413386756909417 0.3992259036280315
0.1570212765957447 0.4880312652662433 0.40048599191581863
0.15723404255319148 0.48749176556542767 0.4032086559009232
0.1574468085106383 0.48409499237519493 0.40501101641816106
0.1576595744680851 0.48150393214493825 0.4091617959954835
0.15787234042553192 0.48310611589970837 0.41369635490640266
0.15808510638297874 0.4848742522317125 0.41926567648841795
0.15829787234042553 0.4852060861889207 0.42641890681497857
0.15851063829787235 0.4890236778853493 0.43202457861303034
0.15872340425531914 0.49214119094526587 0.4348887919654514
0.15893617021276596 0.49345269442317563 0.43766601588459175
0.15914893617021275 0.49338536553541995 0.4414845641216578
0.15936170212765957 0.49071799316331344 0.44821703370527466
0.1595744680851064 0.4862191801423497 0.45211181835160724
0.15978723404255318 0.4803528875022907 0.45692691993138834
0.16 0.47451899340018167 0.46171357909519406
0.1602127659574468 0.46603253573662173 0.46181233244601116
0.16042553191489362 0.46020182188706693 0.469536085527559
0.16063829787234044 0.4549385232749562 0.47520314746270864
0.16085106382978723 0.449484592627822 0.48143761572242527
0.16106382978723405 0.4407557789540654 0.48595132381028683
0.16127659574468084 0.4377962851591475 0.48428822249220793
0.16148936170212766 0.4370814933515287 0.4778586870726346
0.16170212765957448 0.43917928676111373 0.4656077459656015
0.16191489361702127 0.44038989101664483 0.45387766114104117
0.1621276595744681 0.44211040547142155 0.4429794548223671
0.16234042553191488 0.44160384234645755 0.4331366159413709
0.1625531914893617 0.43999506138896816 0.4255860902091083
0.1627659574468085 0.43273168923907784 0.42805997190489753
0.16297872340425532 0.4279743459034397 0.42249593226862564
0.16319148936170214 0.42666959301079715 0.41963849535906195
0.16340425531914893 0.42133503221114 0.4162100019333018
0.16361702127659575 0.4215441653690965 0.41387307619878794
0.16382978723404254 0.4187130971911125 0.41578197848080467
0.16404255319148936 0.4200115191829046 0.4178857548009436
0.16425531914893618 0.4140507565715791 0.4231512000439117
0.16446808510638297 0.41034889319408996 0.4379386716759919
0.1646808510638298 0.40824448531197954 0.43494066368655493
0.16489361702127658 0.40338477785920673 0.4390109926752118
0.1651063829787234 0.3958044252869312 0.4458944844773728
0.16531914893617022 0.39108052808543853 0.4516720560632068
0.16553191489361702 0.3874937186059639 0.45445373033929193
0.16574468085106384 0.3822727024159965 0.4575762182558068
0.16595744680851063 0.3805569125549584 0.46375928904614455
0.16617021276595745 0.3782350579583316 0.4624635490250478
0.16638297872340424 0.3776257938446508 0.46165119687347334
0.16659574468085106 0.3768567867700665 0.46318921102264166
0.16680851063829788 0.3750440191727324 0.46617285217658366
0.16702127659574467 0.3729403120995653 0.4695387834936511
0.1672340425531915 0.36974395973017854 0.47263335059081324
0.16744680851063828 0.36687835857352225 0.4762858816555386
0.1676595744680851 0.3664292063246182 0.48058536588203227
0.16787234042553192 0.3653806922649758 0.4884165487069531
0.16808510638297872 0.36669971682292407 0.4938935026868587
0.16829787234042554 0.36852419598309 0.49991268324204613
0.16851063829787233 0.37033170014772665 0.5026868588177822
0.16872340425531915 0.3707865168539326 0.504334274394671
0.16893617021276597 0.3753018585974896 0.5055440063066986
0.16914893617021276 0.3815509098176347 0.5056111944510604
0.16936170212765958 0.3872174068564745 0.5037437240759748
0.16957446808510637 0.3969913792007819 0.5031976376144596
0.1697872340425532 0.40540774419014913 0.49447926582821045
0.17 0.4234303364075954 0.4887213973902706
0.1702127659574468 0.4395160330587318 0.48202841470409374
0.17042553191489362 0.45573523665244126 0.4708699277317438
0.17063829787234042 0.4693194235046946 0.4614075269786724
0.17085106382978724 0.47986466821144025 0.4521125908455136
0.17106382978723403 0.4894528845794939 0.4397117465880683
0.17127659574468085 0.4970895250915349 0.4314359015950921
0.17148936170212767 0.49877870053737183 0.4258574626383082
0.17170212765957446 0.497208594409831 0.4260937993371157
0.17191489361702128 0.4951037894922935 0.43077985211196296
0.17212765957446807 0.4911083710850033 0.4434019179505587
0.1723404255319149 0.48651415231376327 0.44977255699608254
0.1725531914893617 0.4830472524723652 0.45911533793662573
0.1727659574468085 0.48354370810739244 0.45919153578916416
0.17297872340425532 0.4847957903780221 0.4550523050243061
0.17319148936170212 0.4819815061059461 0.4488450555926695
0.17340425531914894 0.4842044044128586 0.44088926355655705
0.17361702127659576 0.4860381808042009 0.43570114028299894
0.17382978723404255 0.4862785855315164 0.4323300239512993
0.17404255319148937 0.4880312652662433 0.4280526850691279
0.17425531914893616 0.48808569721519257 0.423274493894726
0.17446808510638298 0.4890308755538013 0.41863888507150393
0.17468085106382977 0.49179222406753 0.41587753655777526
0.1748936170212766 0.4943356737810485 0.4117365866879937
0.1751063829787234 0.49797469129739175 0.40836181999579446
0.1753191489361702 0.5006868872623753 0.4066265985627614
0.17553191489361702 0.5023876772695396 0.40605966856037334
0.17574468085106382 0.49991955038825425 0.40549872330603787
0.17595744680851064 0.4966602560515476 0.40514726715314214
0.17617021276595746 0.49456224465537546 0.4072452785493142
0.17638297872340425 0.4909568281022434 0.4103612493383438
0.17659574468085107 0.48827575199240747 0.41524408562998605
0.17680851063829786 0.48898209426891226 0.4226220352042369
0.17702127659574468 0.48827766445734777 0.424030894827366
0.1772340425531915 0.4880312652662433 0.42772040567645053
0.1774468085106383 0.4872482823417132 0.4303859306301905
0.1776595744680851 0.48637443322659346 0.4309804248313014
0.1778723404255319 0.4873941092959753 0.43267989337023033
0.17808510638297873 0.48861198697743957 0.4338977710516946
0.17829787234042552 0.49178402805705734 0.43706981213131235
0.17851063829787234 0.49484975320136293 0.4387011615038617
0.17872340425531916 0.49729808062826725 0.4391692463918134
0.17893617021276595 0.5011713526083527 0.4391992655028241
0.17914893617021277 0.503163089332522 0.4377014381356484
0.17936170212765956 0.49928322911727824 0.43949429408791124
0.17957446808510638 0.4885303644111295 0.44304742520578916
0.1797872340425532 0.474855690589559 0.449767510086257
0.18 0.45879184616523894 0.4574063152264988
0.1802127659574468 0.4419836395173193 0.4569944131712233
0.1804255319148936 0.4269514600794773 0.4614820226842958
0.18063829787234043 0.40953860686006227 0.47055987548368744
0.18085106382978725 0.3978639461789171 0.4746460067220883
0.18106382978723404 0.38778038213807636 0.4791940245835458
0.18127659574468086 0.38149703272855884 0.4833995571573816
0.18148936170212765 0.3799820156332423 0.48504256179815897
0.18170212765957447 0.38552239956710194 0.4873968680272034
0.18191489361702126 0.3897585964578575 0.48482792804128505
0.18212765957446808 0.39190981403698283 0.4833937829885348
0.1823404255319149 0.3983715814977623 0.4762945990514608
0.1825531914893617 0.40009770395701016 0.4705559014124435
0.1827659574468085 0.4066330934149181 0.4629321239763861
0.1829787234042553 0.4105889281926022 0.45362647384915966
0.18319148936170213 0.4147037458454177 0.4518931890882304
0.18340425531914895 0.418821879334745 0.43880496515428064
0.18361702127659574 0.42238128182267265 0.4308940463441525
0.18382978723404256 0.4289297375008018 0.42122384310403743
0.18404255319148935 0.43727812668394506 0.41738062238041507
0.18425531914893617 0.4462235840929128 0.41053152532299986
0.184468085106383 0.4561011872869617 0.411309587011108
0.18468085106382978 0.46330117434582024 0.41674621738867096
0.1848936170212766 0.46629956887551577 0.42517469840254496
0.1851063829787234 0.46539697950625536 0.4344536788738968
0.1853191489361702 0.46381699029784584 0.44551360333276374
0.185531914893617 0.4551780130097813 0.4547205944088404
0.18574468085106383 0.4440794698021557 0.46554436996335485
0.18595744680851065 0.43303411043927814 0.4765897293262324
0.18617021276595744 0.42303372114272286 0.48659011862278767
0.18638297872340426 0.41537711586153137 0.4902508915662912
0.18659574468085105 0.4081601999629643 0.4923663984704216
0.18680851063829787 0.407711245947405 0.494083999496609
0.1870212765957447 0.4035992622853681 0.49527760362638956
0.18723404255319148 0.3940386099538664 0.49495135860925843
0.1874468085106383 0.3855013248065947 0.49139415646456197
0.1876595744680851 0.37822779476058 0.4894030649578539
0.18787234042553191 0.3717845410931918 0.488167844537807
0.18808510638297873 0.36757359120572625 0.4887694088074449
0.18829787234042553 0.3645523549941198 0.4879965818293709
0.18851063829787235 0.36231480436830976 0.4863184188600133
0.18872340425531914 0.3603900779501472 0.4864779568192536
0.18893617021276596 0.35851786865286217 0.48694600914357494
0.18914893617021278 0.3630909917434922 0.48455123104569414
0.18936170212765957 0.3696024759030002 0.48129548896594004
0.1895744680851064 0.3818716216754883 0.4649544862098312
0.18978723404255318 0.39432981450323346 0.44818384201863576
0.19 0.41385304950745255 0.44193273968216884
0.1902127659574468 0.43391503037544954 0.43648380660691044
0.19042553191489361 0.45397701124344914 0.43103487353165126
0.19063829787234043 0.4740389921114488 0.42558594045639214
0.19085106382978723 0.4869083473424098 0.42420187387716696
0.19106382978723405 0.4996634411460116 0.42288238141472534
0.19127659574468084 0.5039632438223536 0.42448419157622685
0.19148936170212766 0.5056361735666521 0.4269935861926748
0.19170212765957448 0.5051297916673686 0.4307343485955659
0.19191489361702127 0.5016971260290559 0.43612853745577135
0.1921276595744681 0.49746482044575624 0.4410120224904882
0.19234042553191488 0.4921915232133964 0.44523066027637603
0.1925531914893617 0.48998534440644836 0.4473668165939993
0.19276595744680852 0.4899601366216948 0.4480230584615444
0.19297872340425531 0.48946359586617594 0.4490161399725821
0.19319148936170213 0.48938834889299926 0.4497638460079622
0.19340425531914893 0.4939631032669946 0.44780323699053565
0.19361702127659575 0.49821712794738165 0.4473905276753208
0.19382978723404254 0.5028814436269075 0.4478052679807189
0.19404255319148936 0.5116781025768098 0.44654860241644706
0.19425531914893618 0.5195534027735129 0.4437046584493891
0.19446808510638297 0.5258399126460946 0.44085700202030975
0.1946808510638298 0.530571830353466 0.44045796265853726
0.19489361702127658 0.5362048446455576 0.44367682796830393
0.1951063829787234 0.5361554585552594 0.4411533437471736
0.19531914893617022 0.5380947100784167 0.43796782045406996
0.19553191489361701 0.5388769339249102 0.4353107394940359
0.19574468085106383 0.5366854546438669 0.43311926021299246
0.19595744680851063 0.5319381092372842 0.42840188314819766
0.19617021276595745 0.5298865084050356 0.42745481191988266
0.19638297872340427 0.52820516840959 0.42745481191988266
0.19659574468085106 0.5287366016491823 0.4276199747005675
0.19680851063829788 0.5266868128882721 0.42885788667206015
0.19702127659574467 0.5260933002262169 0.4287505008620586
0.1972340425531915 0.5303809501809529 0.4237656574678725
0.19744680851063828 0.5349291646311676 0.42413440261518875
0.1976595744680851 0.5351236646458672 0.4221806140399703
0.19787234042553192 0.5347471782540505 0.4206155349291647
0.19808510638297872 0.5288013149364471 0.4206155349291647
0.19829787234042554 0.5210705450928691 0.4174249246802645
0.19851063829787233 0.5142827215641879 0.41660454588011825
0.19872340425531915 0.5060808449216162 0.4171316249117335
0.19893617021276597 0.4940094340051471 0.415515060015698
0.19914893617021276 0.4874988930348188 0.413887424773116
0.19936170212765958 0.4745739940236572 0.41876835060743994
0.19957446808510637 0.4624841636350857 0.42578363338176994
0.1997872340425532 0.45184921452514093 0.4346460909733906
0.2 0.44063720557729796 0.4375207045514834
0.2002127659574468 0.42929786248535967 0.4390740392216119
0.20042553191489362 0.4179585193934199 0.44062737389174067
0.20063829787234042 0.4066191763014816 0.4421807085618692
0.20085106382978724 0.3952798332095418 0.4437340432319979
0.20106382978723403 0.3839404901176035 0.4452873779021264
0.20127659574468085 0.38055497528001797 0.44528651055235763
0.20148936170212767 0.3842432730249012 0.44390339889802644
0.20170212765957446 0.3875301466119118 0.4427171128294115
0.20191489361702128 0.3908832007945263 0.44211040547142155
0.20212765957446807 0.3956292253129474 0.4414158734606713
0.2023404255319149 0.40125400053536525 0.4323528138424138
0.2025531914893617 0.40522833096225724 0.4326366945871918
0.2027659574468085 0.40920266138914874 0.43292057533196976
0.20297872340425532 0.4131769918160408 0.43320445607674773
0.20319148936170212 0.4125610752018525 0.4349612160705208
0.20340425531914894 0.4108451392281387 0.43930109716836
0.20361702127659576 0.41054953355194174 0.44545229045109985
0.20382978723404255 0.40986809965803617 0.45227253476158513
0.20404255319148937 0.41004337692575754 0.459495811270277
0.20425531914893616 0.4113204824375977 0.46893946392246605
0.20446808510638298 0.41456640222584257 0.4786772232872004
0.20468085106382977 0.41752047218122246 0.48822799811140466
0.2048936170212766 0.41335999458155503 0.4932205712310055
0.2051063829787234 0.40588071336125914 0.49562312893863003
0.2053191489361702 0.3985477070682723 0.49860552242960016
0.20553191489361702 0.386556764052391 0.5026409874588432
0.20574468085106382 0.38315272137009065 0.497843574704166
0.20595744680851064 0.376245609369405 0.4987069637042519
0.20617021276595746 0.3756717147044455 0.5006659504520559
0.20638297872340425 0.3746008654767595 0.49882560536616355
0.20659574468085107 0.37060869953970743 0.5007327796775769
0.20680851063829786 0.3682032417111561 0.49994628467436286
0.20702127659574468 0.3635716802398685 0.4944949826336156
0.2072340425531915 0.3570278569452612 0.4879511593390081
0.2074468085106383 0.34975408416944304 0.4813827239496301
0.2076595744680851 0.34370006237170997 0.47489401824610683
0.2078723404255319 0.3409860164142732 0.46848729965806984
0.20808510638297872 0.33885637562741666 0.4637998704684269
0.20829787234042554 0.33933449807938443 0.4604729791341801
0.20851063829787234 0.34369177535479195 0.46033581476807617
0.20872340425531916 0.3503232294437043 0.46420254402654154
0.20893617021276595 0.35377239914345104 0.45626155042507793
0.20914893617021277 0.3625583498054284 0.4538348803126526
0.20936170212765956 0.3739322432267904 0.4492962424201182
0.20957446808510638 0.3785932207379286 0.44310186405676116
0.2097872340425532 0.3912423147680756 0.4364322019770963
0.21 0.40743484971719696 0.42305252446377084
0.2102127659574468 0.427566328777109 0.4117253469915673
0.2104255319148936 0.4451131315342963 0.4054445688353619
0.21063829787234042 0.4618590137862142 0.40043811668170615
0.21085106382978724 0.4774320757013675 0.3987334764210026
0.21106382978723404 0.4922516210378749 0.3976966576616839
0.21127659574468086 0.5077907704747646 0.4006955806452963
0.21148936170212765 0.5212539403946629 0.4079973828332162
0.21170212765957447 0.5337609624927271 0.41656400472250077
0.2119148936170213 0.5413651938264858 0.4231434058440726
0.21212765957446808 0.5458268208534801 0.42991603761718555
0.2123404255319149 0.5474936263856053 0.4355629047663265
0.2125531914893617 0.5458227442896783 0.44619180919133256
0.2127659574468085 0.5414379668718338 0.45292968956458163
0.2129787234042553 0.5342900627710739 0.4622866213775744
0.21319148936170212 0.528124437706441 0.4679379601970425
0.21340425531914894 0.5230292001931954 0.47040339770345163
0.21361702127659574 0.5179339626799505 0.47286883520986045
0.21382978723404256 0.5128387251667049 0.4753342727162696
0.21404255319148935 0.50774348765346 0.4777997102226785
0.21425531914893617 0.5026482501402143 0.4802651477290876
0.214468085106383 0.5017618088159332 0.48256402712666685
0.21468085106382978 0.5034107182437394 0.4847625730304083
0.2148936170212766 0.505146407035249 0.490288926821711
0.2151063829787234 0.5108401447593688 0.4964155668877498
0.2153191489361702 0.5209816273662643 0.4962517749950044
0.21553191489361703 0.5313932081617139 0.4983041373385973
0.21574468085106382 0.5442949245375234 0.4970371868379008
0.21595744680851064 0.5530658230722418 0.4866644395384912
0.21617021276595744 0.5534929164631168 0.48115030434408057
0.21638297872340426 0.553301663749707 0.47377895314457746
0.21659574468085105 0.5502502182332841 0.46504005595467557
0.21680851063829787 0.546319620056405 0.46034639255684673
0.2170212765957447 0.537776949393483 0.45826731969912166
0.21723404255319148 0.5293197427648262 0.45619891116098343
0.2174468085106383 0.5215185962930494 0.45315729595680415
0.2176595744680851 0.512091327522998 0.4476067158962271
0.2178723404255319 0.5054874477848881 0.4431459900755739
0.21808510638297873 0.49851996055648334 0.44102986990896365
0.21829787234042553 0.4935332539441186 0.43881903801837363
0.21851063829787234 0.48940854400415573 0.4345501279778376
0.21872340425531914 0.4862792740000998 0.42917340338582005
0.21893617021276596 0.4875646439197337 0.4229924385387962
0.21914893617021278 0.4872387393465599 0.4177766730440664
0.21936170212765957 0.48173663391259763 0.416435053830218
0.2195744680851064 0.4759286200469091 0.4180980773549082
0.21978723404255318 0.46712104196298815 0.4220063284868014
0.22 0.4566652658628575 0.4260428210142883
0.2202127659574468 0.4506712079560515 0.42829216217437416
0.2204255319148936 0.43859488620552817 0.4307420482161719
0.22063829787234043 0.42964843227775545 0.4372327575006816
0.22085106382978723 0.4236154696505215 0.44239020798742296
0.22106382978723405 0.41648369286265907 0.44482627967201294
0.22127659574468084 0.40823593016368454 0.4459783250461002
0.22148936170212766 0.40500234713638766 0.4499364446966745
0.22170212765957448 0.40901672491477453 0.45188080117244755
0.22191489361702127 0.41118648653158224 0.4517670187379664
0.2221276595744681 0.4143365664290146 0.4509037616023448
0.22234042553191488 0.420909257570513 0.45046317764032234
0.2225531914893617 0.4227879431611085 0.44731765561682085
0.22276595744680852 0.42325962885491963 0.4436064002589658
0.2229787234042553 0.4215061102105435 0.43944732375866563
0.22319148936170213 0.42006072879727535 0.44031341438207794
0.22340425531914893 0.4176595649016468 0.44160946002776524
0.22361702127659575 0.4136346748980408 0.4395970150259622
0.22382978723404254 0.41217642731976906 0.43980207780968866
0.22404255319148936 0.40905359388592455 0.4408484725592956
0.22425531914893618 0.41017733372031845 0.4433966791038066
0.22446808510638297 0.4083841669037404 0.4460332624711455
0.2246808510638298 0.40616834195814727 0.44859784463360153
0.22489361702127658 0.40660700414325096 0.45189369201577706
0.2251063829787234 0.40418820069650757 0.4591501023560076
0.22531914893617022 0.4000586386992286 0.47103073593390227
0.225531914893617 0.3953342559327774 0.47978781066015497
0.22574468085106383 0.38952929386219914 0.4845661105868406
0.22595744680851063 0.3845529424793992 0.48668098419690575
0.22617021276595745 0.3800283072771589 0.4853243637020869
0.22638297872340427 0.37674023168655074 0.481909201590583
0.22659574468085106 0.37313001849442945 0.474662855957291
0.22680851063829788 0.37021861223594094 0.4664692206784549
0.22702127659574467 0.3673018881670854 0.45859009778018933
0.2272340425531915 0.36323111793038115 0.45311875837981935
0.22744680851063828 0.3627081673633139 0.44830576797092453
0.2276595744680851 0.3629702002931119 0.4446551564530314
0.22787234042553192 0.35962059145153535 0.44406448461162684
0.22808510638297871 0.35995384800836044 0.44406448461162684
0.22829787234042553 0.36003908158280407 0.44982082639162013
0.22851063829787233 0.3650107609966091 0.45405108422088303
0.22872340425531915 0.367090568185776 0.4594628118060538
0.22893617021276597 0.3696689382265308 0.46572665525644436
0.22914893617021276 0.37508498744921726 0.46767585462813366
0.22936170212765958 0.3819671148546966 0.47142159257449934
0.22957446808510637 0.3892066802111045 0.47033529817524256
0.2297872340425532 0.40039286475222224 0.4650141264258918
0.23 0.4169457478610664 0.45894320328004595
0.2302127659574468 0.42817928134415356 0.4585853345393687
0.23042553191489362 0.4405321651835212 0.4553784495443233
0.23063829787234041 0.45499047636234874 0.4530357277464553
0.23085106382978723 0.46874683628331903 0.45540322316690907
0.23106382978723405 0.4759922743884938 0.45709726078975255
0.23127659574468085 0.4808743767112729 0.45630681990659977
0.23148936170212767 0.48216902784562765 0.45424929756383703
0.23170212765957446 0.48133466609043024 0.45049743329186276
0.23191489361702128 0.47672862224696794 0.44457068279797374
0.23212765957446807 0.47913262155881603 0.4384128223440193
0.2323404255319149 0.4742752340278989 0.441133365901319
0.2325531914893617 0.47142159257449934 0.44164078150096986
0.2327659574468085 0.4719926916872626 0.4472811528783161
0.23297872340425532 0.4755320221288111 0.44996103883164695
0.23319148936170211 0.4765637433134176 0.454091833201058
0.23340425531914893 0.47886525187124357 0.45481191988275516
0.23361702127659575 0.4843771036387592 0.4559159577793209
0.23382978723404255 0.4884466598347398 0.457743038593063
0.23404255319148937 0.489917436366267 0.4568339070631419
0.23425531914893616 0.4909623839765511 0.4568096209476422
0.23446808510638298 0.4923284899125769 0.4572876699477211
0.2346808510638298 0.494801313023612 0.45646339557737603
0.2348936170212766 0.4960232977526666 0.4556286947239579
0.2351063829787234 0.49207547267650587 0.45460784618797684
0.2353191489361702 0.4939629069844729 0.4518981522468511
0.23553191489361702 0.4978016609672691 0.4525410113418507
0.23574468085106381 0.49856625842112595 0.4477541864766495
0.23595744680851063 0.505869393891607 0.444965601523015
0.23617021276595745 0.512206922025134 0.4391873835626451
0.23638297872340425 0.5165714860229222 0.4359395748559619
0.23659574468085107 0.5208749578223747 0.4318902530344942
0.23680851063829786 0.5207165827729456 0.4247057255765123
0.23702127659574468 0.5197174599189729 0.42001436285143917
0.2372340425531915 0.5188989559710891 0.41536656009219447
0.2374468085106383 0.517350810779554 0.4124791107851318
0.2376595744680851 0.5149328817296057 0.413254709867854
0.2378723404255319 0.508600357973865 0.4108707700958724
0.23808510638297872 0.5065950170981925 0.4091083473074163
0.23829787234042554 0.5025240065617427 0.40726265587335364
0.23851063829787233 0.5008643530847384 0.40270965013302285
0.23872340425531915 0.4899058433014246 0.39754055960715207
0.23893617021276595 0.4836758823475287 0.3959816024714098
0.23914893617021277 0.47818832684086693 0.39440185736067507
0.23936170212765956 0.4712186206116764 0.39554238821253285
0.23957446808510638 0.4613165827025799 0.4023194744339302
0.2397872340425532 0.45150640778236123 0.40946633553802525
0.24 0.443466420414229 0.4176158934125661
0.2402127659574468 0.4389932813281242 0.42703578864874897
0.2404255319148936 0.4382022471910112 0.43176081664447186
0.24063829787234042 0.44162805322079435 0.43919162182996213
0.24085106382978724 0.4384181375096974 0.44477166128337164
0.24106382978723404 0.4391709266844301 0.45279096012908104
0.24127659574468086 0.4401226367090917 0.4597981865996427
0.24148936170212765 0.4393577709572329 0.462182025953278
0.24170212765957447 0.44152522752627843 0.4567633845306641
0.2419148936170213 0.44334312803807924 0.45209079175288475
0.24212765957446808 0.4464682812534267 0.44905261416249687
0.2423404255319149 0.4556342778786581 0.44574444441986427
0.2425531914893617 0.4597622033293646 0.4440319418135786
0.2427659574468085 0.4648036976712789 0.4417109315855548
0.2429787234042553 0.4698049548580518 0.44019949157730026
0.24319148936170212 0.4723205495266156 0.4402344089492026
0.24340425531914894 0.4667494528986956 0.43938131352289256
0.24361702127659574 0.4590725786348137 0.43690719079704987
0.24382978723404256 0.45041053569464806 0.43201119249859776
0.24404255319148935 0.44436616563499637 0.42461556701892533
0.24425531914893617 0.43846212401254675 0.42102784039304403
0.244468085106383 0.4388981502928909 0.42145200626515583
0.24468085106382978 0.4373779567332856 0.4197912444714389
0.2448936170212766 0.43121268022063164 0.425651022759339
0.2451063829787234 0.42472414059356595 0.43213956238640483
0.2453191489361702 0.41823560096649937 0.4386281020134714
0.24553191489361703 0.4121864591896462 0.44693770251987874
0.24574468085106382 0.406482190739197 0.4566985398699207
0.24595744680851064 0.40165655763252855 0.4638797290206365
0.24617021276595744 0.39832678184379755 0.4650707343224277
0.24638297872340426 0.401025006396535 0.4726224492322026
0.24659574468085105 0.39914353357007726 0.48153502602306913
0.24680851063829787 0.4000972944126707 0.4958414386619727
0.2470212765957447 0.402021245118535 0.49745053279500134
0.24723404255319148 0.4039456126023144 0.4990541723648174
0.2474468085106383 0.405869980086094 0.5006578119346337
0.2476595744680851 0.41181845785033494 0.4998958487529042
0.2478723404255319 0.41446768505600384 0.5039269068266242
0.24808510638297873 0.40945224525479157 0.5046409379579873
0.24829787234042552 0.4041465113184436 0.5093854867274771
0.24851063829787234 0.40103142611722314 0.5145846032985724
0.24872340425531914 0.39884697564007204 0.5228662572957836
0.24893617021276596 0.3966765449311917 0.5295539264651438
0.24914893617021278 0.39976179926411554 0.5337077389267475
0.24936170212765957 0.4030034022710242 0.5412417912423936
0.2495744680851064 0.40716802032992505 0.5456765999022961
0.24978723404255318 0.4129638664538906 0.5447478698635397
0.25 0.4227284359272669 0.5415570425119095
0.2502127659574468 0.43536793689436054 0.5367592189327609
0.25042553191489364 0.4454926773577659 0.5315468927448233
0.25063829787234043 0.4544973810018844 0.524619761359633
0.2508510638297872 0.4650576657948777 0.519302384653506
0.251063829787234 0.4738844977173368 0.5079563607678551
0.25127659574468086 0.4791175310581933 0.4946204428006486
0.25148936170212766 0.48425263812920766 0.4835599533662783
0.25170212765957445 0.48536091049064006 0.4766335705284327
0.2519148936170213 0.48432415453017913 0.46989780667461484
0.2521276595744681 0.48158074216729224 0.46086337940856953
0.2523404255319149 0.48031652076575376 0.45356884516486834
0.2525531914893617 0.48758378597399293 0.4473312127911222
0.2527659574468085 0.484145120302116 0.4411260281292247
0.2529787234042553 0.48727496941867215 0.4399355826086851
0.2531914893617021 0.48998534440644836 0.43596726385755524
0.25340425531914895 0.4901919438927729 0.42801865251733645
0.25361702127659574 0.4909623839765511 0.42592744183275316
0.25382978723404254 0.4909623839765511 0.42452369320957506
0.2540425531914894 0.4909623839765511 0.42452369320957506
0.2542553191489362 0.4909623839765511 0.4232496691407858
0.25446808510638297 0.490479758427306 0.4225578255977572
0.25468085106382976 0.4910863993202583 0.42409718109637734
0.2548936170212766 0.492550546628778 0.42330144704532624
0.2551063829787234 0.4935886823784313 0.42256961406936977
0.2553191489361702 0.5005606971322114 0.4092352251786647
0.25553191489361704 0.5018649007525304 0.40480024445968954
0.25574468085106383 0.5008034939923471 0.4045643762907599
0.2559574468085106 0.49974208723216385 0.4043285081218303
0.2561702127659574 0.49868068047198055 0.4040926399529007
0.25638297872340426 0.497619273711797 0.40385677178397095
0.25659574468085106 0.4965578669516137 0.4036209036150413
0.25680851063829785 0.4954964601914304 0.4033850354461117
0.2570212765957447 0.49443505343124683 0.40314916727718203
0.2572340425531915 0.493435169893138 0.40119549149243505
0.2574468085106383 0.49249937707572733 0.39745232022279203
0.25765957446808513 0.4925527055691482 0.39582578812899183
0.2578723404255319 0.4940797010949126 0.39735278365475624
0.2580851063829787 0.4956066966206771 0.3988797791805207
0.2582978723404255 0.4971336921464415 0.4004067747062851
0.25851063829787235 0.4986606876722063 0.4019337702320499
0.25872340425531914 0.5001876831979707 0.40346076575781437
0.25893617021276594 0.49506300028246397 0.405314272867062
0.2591489361702128 0.486106594910078 0.40767723877702267
0.2593617021276596 0.47660250525365583 0.41133265787564655
0.25957446808510637 0.46543714679983567 0.414460206546261
0.2597872340425532 0.45354871644902744 0.4162784479136011
0.26 0.4413268377529126 0.41721859242868686
0.2602127659574468 0.42910495905679774 0.4181587369437726
0.2604255319148936 0.4168830803606829 0.4190988814588584
0.26063829787234044 0.4071858083172525 0.4215160992976105
0.26085106382978723 0.4008898064682049 0.42592330059194383
0.261063829787234 0.39300061399587527 0.4264777723497801
0.2612765957446809 0.389466989428081 0.4274159050058163
0.26148936170212767 0.3854978045622945 0.4343497830674239
0.26170212765957446 0.38783852394320817 0.4366020355688314
0.26191489361702125 0.3919642526778104 0.44121344205914675
0.2621276595744681 0.3897525670084851 0.4485857276235647
0.2623404255319149 0.3969815765680349 0.4448391834441403
0.2625531914893617 0.4008528738358713 0.4476768166370484
0.26276595744680853 0.40786934911523964 0.45088461671552
0.2629787234042553 0.4186010793432599 0.458780454608865
0.2631914893617021 0.41833767963728485 0.4612649499374954
0.26340425531914896 0.42337659695039953 0.4728338126163014
0.26361702127659575 0.4280843068325846 0.48093842703655804
0.26382978723404255 0.43332696070677107 0.49197906901174465
0.26404255319148934 0.4372206302900632 0.4985860390218585
0.2642553191489362 0.4424352908013453 0.4986477929732696
0.264468085106383 0.4481985199523338 0.49968044775404213
0.26468085106382977 0.4580528498253686 0.49997021524120905
0.2648936170212766 0.46462256063451896 0.4987384554866338
0.2651063829787234 0.471444939268527 0.4941231708956171
0.2653191489361702 0.4693462366469725 0.48808114103547795
0.265531914893617 0.4597482875375923 0.4879284443288006
0.26574468085106384 0.4502439740939361 0.48520589724316676
0.26595744680851063 0.4332788941820982 0.4811824494859251
0.2661702127659574 0.4222758855312329 0.4784316973232087
0.2663829787234043 0.4060674216302307 0.4799858865506659
0.26659574468085107 0.39498061172005183 0.4785739940659009
0.26680851063829786 0.3838625050423848 0.4821758370335122
0.2670212765957447 0.37766473234652076 0.48237222346002223
0.2672340425531915 0.37174624590106203 0.48462028203237073
0.2674468085106383 0.36990687051029914 0.48773908558683615
0.2676595744680851 0.3660358694848383 0.4870878633164954
0.26787234042553193 0.37256561540748634 0.49007283469977403
0.2680851063829787 0.366971134022329 0.49328756491198317
0.2682978723404255 0.3678553981436248 0.49682462139716654
0.26851063829787236 0.3678553981436248 0.49753947073999705
0.26872340425531915 0.3678553981436248 0.500810393328278
0.26893617021276595 0.3674588650546497 0.5058591235295828
0.26914893617021274 0.366492931795491 0.5089614682664778
0.2693617021276596 0.3672209268780307 0.5070348863897295
0.2695744680851064 0.3703334026705451 0.5050704484069322
0.26978723404255317 0.37807734691980466 0.496001668881085
0.27 0.38997373385071926 0.4840998310965979
0.2702127659574468 0.4032685302132897 0.47579058336999147
0.2704255319148936 0.41215034235107006 0.4626605595670105
0.27063829787234045 0.4222784147591437 0.4582225513704181
0.27085106382978724 0.43252898832927544 0.45451489710037046
0.27106382978723403 0.44277956189940726 0.4508072428303228
0.2712765957446808 0.4530301354695391 0.44709958856027515
0.2714893617021277 0.46328070903967355 0.4433919342902265
0.27170212765957447 0.4735312826098053 0.43968428002017884
0.27191489361702126 0.48378185617993713 0.4359766257501312
0.2721276595744681 0.4940324297500716 0.43226897148008253
0.2723404255319149 0.5042830033202034 0.4285613172100349
0.2725531914893617 0.5047932670832778 0.4278225349888234
0.2727659574468085 0.5049511077682903 0.42719117224877295
0.27297872340425533 0.505108948453303 0.42655980950872235
0.2731914893617021 0.5052667891383156 0.4259284467686719
0.2734042553191489 0.5054246298233281 0.4252970840286215
0.27361702127659576 0.5055824705083408 0.4246657212885709
0.27382978723404255 0.4872446320514798 0.42436392498803926
0.27404255319148935 0.4635384721015485 0.4241577844667355
0.2742553191489362 0.4398323121516111 0.42395164394543167
0.274468085106383 0.4161261522016798 0.42374550342412787
0.2746808510638298 0.3930941667998913 0.42350185541227203
0.27489361702127657 0.3884498245385828 0.4222352166137334
0.2751063829787234 0.38380548227727307 0.42096857781519453
0.2753191489361702 0.38784862158611555 0.41735364999580515
0.275531914893617 0.3952488835832969 0.4128312676641943
0.27574468085106385 0.40384183171171534 0.4099972075116467
0.27595744680851064 0.4147013889443256 0.41037167500242633
0.27617021276595743 0.4255609461769359 0.41074614249320596
0.2763829787234042 0.43679697887790375 0.40694141311377674
0.2765957446808511 0.44700437533838816 0.4040058622374205
0.27680851063829787 0.4577643448902208 0.4045752374359147
0.27702127659574466 0.47102349211133504 0.40585838071537744
0.2772340425531915 0.48349289882924923 0.40720175514445267
0.2774468085106383 0.49179783111364317 0.4088627416013315
0.2776595744680851 0.5012240727365149 0.4147994732087542
0.27787234042553194 0.5121995720180108 0.41636451795866697
0.27808510638297873 0.5202852485534849 0.417968575013396
0.2782978723404255 0.5284268809437623 0.41888935096193436
0.2785106382978723 0.5423426779681246 0.4165350126580497
0.27872340425531916 0.5522174019558139 0.4154206142818154
0.27893617021276595 0.5691971325349374 0.41317571760634914
0.27914893617021275 0.5837467530179564 0.41036235112947755
0.2793617021276596 0.5955561112721643 0.4106800272909
0.2795744680851064 0.5995125057731934 0.4168775894048387
0.2797872340425532 0.5916688039941767 0.42224969173673543
0.27999999999999997 0.582092954416014 0.4291873157101527
0.2802127659574468 0.5686077306306507 0.43587060947020634
0.2804255319148936 0.5529394934505675 0.4407302497997108
0.2806382978723404 0.5363890320197038 0.444370520973111
0.28085106382978725 0.524715805098568 0.44293979043099957
0.28106382978723404 0.5184216056538661 0.44363282329780873
0.28127659574468084 0.5132136658549661 0.4457159992173687
0.2814893617021277 0.5097943968615963 0.44424332531369093
0.2817021276595745 0.5114095503132966 0.4431227773592285
0.28191489361702127 0.5123655484975803 0.44220211149264915
0.28212765957446806 0.5152063234413934 0.44211040547142155
0.2823404255319149 0.5095553603596344 0.4411382366598414
0.2825531914893617 0.5073380486901755 0.4423444134495411
0.2827659574468085 0.5040241189714406 0.445538269640424
0.28297872340425534 0.5058510838642636 0.44211040547142155
0.28319148936170213 0.4972974560581775 0.44211040547142155
0.2834042553191489 0.47894854741380244 0.4424324535146041
0.2836170212765957 0.47049364797337495 0.4430874450415241
0.28382978723404256 0.4612284932519539 0.44174067196106664
0.28404255319148936 0.4507411496480757 0.44170319166350486
0.28425531914893615 0.44451190469023094 0.4425106553412231
0.284468085106383 0.440194887547625 0.4440259233952181
0.2846808510638298 0.4335603920712505 0.44433916234549653
0.2848936170212766 0.4282861259450326 0.44791053993070223
0.2851063829787234 0.41653756087589106 0.45650777933874925
0.2853191489361702 0.4047741563985747 0.46681498505667607
0.285531914893617 0.3922777074926084 0.4724029811215613
0.2857446808510638 0.3813617384760197 0.48540483224270115
0.28595744680851065 0.3750288413077022 0.49660918877126276
0.28617021276595744 0.3687615502897487 0.507678387804263
0.28638297872340424 0.3654725839867487 0.512611837258763
0.2865957446808511 0.3634356263601775 0.5172962649333496
0.2868085106382979 0.3653817292016251 0.5211884706162447
0.28702127659574467 0.3665765709132629 0.5229029021296772
0.28723404255319146 0.36825526531079256 0.5245815965272068
0.2874468085106383 0.36957986550385347 0.5229164855597637
0.2876595744680851 0.3690257809871704 0.519092865033196
0.2878723404255319 0.3696744187951351 0.5149515676137931
0.28808510638297874 0.3670772513727966 0.5080361398666019
0.28829787234042553 0.3658965201886547 0.5007247816529686
0.2885106382978723 0.3625490492620605 0.4954264307960126
0.28872340425531917 0.35697597761709443 0.4901173296618502
0.28893617021276596 0.35535519032666923 0.49135025046441333
0.28914893617021276 0.35248610996118773 0.4926531181775518
0.28936170212765955 0.3548640347986489 0.49293796167059145
0.2895744680851064 0.36167951196816917 0.4944711523096758
0.2897872340425532 0.3729434714730731 0.4906276726640237
0.29 0.3852659072700806 0.4848672894325927
0.2902127659574468 0.3972741725145484 0.47756030312098874
0.2904255319148936 0.4112383393509094 0.4655295663631646
0.2906382978723404 0.4237487901553455 0.4551185168035208
0.2908510638297872 0.4341335267257243 0.44691258893732766
0.29106382978723405 0.4438947993005525 0.44090195566188156
0.29127659574468084 0.4518867742739583 0.4356855932239539
0.29148936170212764 0.4576620260820153 0.435824947218346
0.2917021276595745 0.4628458848433956 0.4395488133949901
0.2919148936170213 0.4671506265568986 0.43926998869541134
0.29212765957446807 0.47134535525660537 0.44684312868614645
0.2923404255319149 0.47567151317132006 0.44890085927408113
0.2925531914893617 0.48260143833387675 0.4475402324037881
0.2927659574468085 0.4873440694591217 0.44406448461162684
0.2929787234042553 0.49452597710795326 0.4433055153063134
0.29319148936170214 0.5008681679492588 0.4376323924423147
0.29340425531914893 0.5113252702658018 0.4345000708561456
0.2936170212765957 0.5192953205097722 0.4307122832645324
0.29382978723404257 0.5278847400868593 0.42706538746892303
0.29404255319148936 0.5333449648801533 0.426028799363349
0.29425531914893616 0.5364674072733469 0.42601348032707065
0.29446808510638295 0.5372787438210156 0.42473315378840115
0.2946808510638298 0.535579399321054 0.4255024203149503
0.2948936170212766 0.5305985901786602 0.4264777723497801
0.2951063829787234 0.5275009408834872 0.42412879285918287
0.29531914893617023 0.5262635834241599 0.42269738899328535
0.295531914893617 0.5224677458122399 0.4179845357093643
0.2957446808510638 0.5202492150309495 0.41865333710606634
0.29595744680851066 0.5136607252668806 0.4166323158095411
0.29617021276595745 0.5032137626266482 0.41587305461178553
0.29638297872340424 0.49211603346500965 0.4164954913570657
0.29659574468085104 0.4791818227658765 0.41518720888233324
0.2968085106382979 0.46972451765335776 0.4144550879069031
0.2970212765957447 0.4633316753763018 0.4177332866709544
0.29723404255319147 0.4541919241445711 0.4188042733217269
0.2974468085106383 0.44792138659652425 0.4192781163127929
0.2976595744680851 0.4429178832816555 0.42159257449926724
0.2978723404255319 0.4414535168831227 0.4235383603271267
0.29808510638297875 0.44211040547142155 0.42736564807372246
0.29829787234042554 0.43821480222102943 0.43076921344022057
0.29851063829787233 0.44146857598749073 0.4364550122401917
0.2987234042553191 0.4393752399413708 0.44451898236771054
0.298936170212766 0.44409157654167564 0.4499483955762813
0.29914893617021276 0.44887416816375364 0.4539859089094248
0.29936170212765956 0.44886916853634157 0.4554901175714231
0.2995744680851064 0.4536085050846918 0.45406125554061344
0.2997872340425532 0.45047275817958 0.4545137845623839
0.3 0.4457747766644064 0.45273500158863705
0.3002127659574468 0.44655843280313423 0.4509037616023448
0.30042553191489363 0.44854578110248017 0.4493874311919559
0.3006382978723404 0.45436911619593007 0.4473950837931062
0.3008510638297872 0.462594005843864 0.4437578217547658
0.30106382978723406 0.4705846493745643 0.4442641029945704
0.30127659574468085 0.4739762705049288 0.44819680090238334
0.30148936170212765 0.4717728552824554 0.446369826459788
0.3017021276595745 0.47328811021595163 0.4497515990347367
0.3019148936170213 0.4677055993012761 0.44236662548100436
0.3021276595744681 0.4643699711701371 0.43718981688530134
0.30234042553191487 0.45850400900937366 0.4354919260125345
0.3025531914893617 0.4544656720944801 0.4299397357358911
0.3027659574468085 0.4397782151609113 0.4325656028993808
0.3029787234042553 0.4193798796152775 0.43417112187506574
0.30319148936170215 0.3972980116031639 0.4372523127604769
0.30340425531914894 0.37747404175430477 0.44236316356103456
0.30361702127659573 0.36368339205801653 0.45045761684854163
0.3038297872340425 0.3564006778338535 0.4594438125568053
0.3040425531914894 0.35320302207811116 0.47237610974242555
0.30425531914893617 0.354977822976015 0.48640105981580234
0.30446808510638296 0.3589493550942641 0.49869119502646914
0.3046808510638298 0.3647892847564181 0.507437061991396
0.3048936170212766 0.3736066445518436 0.5147592471249725
0.3051063829787234 0.37812579411788716 0.51881949221266
0.30531914893617024 0.3839425668498164 0.515736709219484
0.30553191489361703 0.38733943925440617 0.5163464960354616
0.3057446808510638 0.388659859435671 0.5094783640885182
0.3059574468085106 0.39485700099294313 0.5079275617818493
0.30617021276595746 0.40009770395701016 0.5012154749504465
0.30638297872340425 0.40055718384170524 0.49297454291746856
0.30659574468085105 0.4023463873688652 0.48792311450490006
0.3068085106382979 0.40159175087304294 0.48134972767288653
0.3070212765957447 0.39912066438690763 0.474853739818746
0.3072340425531915 0.3996066616479404 0.4689865612212982
0.30744680851063827 0.39900722631775676 0.4642420013763285
0.3076595744680851 0.3981436248168051 0.45676040005387875
0.3078723404255319 0.39882231340997976 0.4504414373467792
0.3080851063829787 0.39912066438690763 0.4459788057753547
0.30829787234042555 0.3958849249954712 0.44423258933387033
0.30851063829787234 0.3943369709000741 0.44494001981805004
0.30872340425531913 0.39423546653639474 0.4482851713904739
0.308936170212766 0.39334137555806264 0.4543971769239026
0.3091489361702128 0.39584916512171564 0.4635892388883877
0.30936170212765957 0.40490609507923275 0.4719992148550885
0.30957446808510636 0.41152896758176255 0.4740370217789438
0.3097872340425532 0.42223429524747413 0.47440061397364935
0.31 0.44002278678084317 0.47185940089745376
0.3102127659574468 0.4610332446224905 0.46728025420966085
0.31042553191489364 0.47895744525805645 0.4614888662784917
0.31063829787234043 0.49463288355523444 0.45604642271654167
0.3108510638297872 0.5089866313717822 0.45175579113433756
0.311063829787234 0.5201011129493173 0.44662780422810117
0.31127659574468086 0.5272817293149549 0.44414892523393074
0.31148936170212765 0.5312316417070025 0.4460185637518319
0.31170212765957445 0.5304574064990305 0.44694294740492946
0.3119148936170213 0.5215779993759585 0.4523680393053542
0.3121276595744681 0.513554905353052 0.45808560991544744
0.3123404255319149 0.5033529069728965 0.4615223937749643
0.3125531914893617 0.4924861694608529 0.46122439717939584
0.3127659574468085 0.47948035496440594 0.4629331077933732
0.3129787234042553 0.4657059866723163 0.4598843962480241
0.3131914893617021 0.44898409210865653 0.457743038593063
0.31340425531914895 0.4363924462166568 0.4574008676735576
0.31361702127659574 0.42594938279270955 0.4571503888304469
0.31382978723404253 0.41912491245768385 0.457743038593063
0.3140425531914894 0.41638642701181283 0.460631585325536
0.3142553191489362 0.41608580583906474 0.4704465510885302
0.31446808510638297 0.4174935380079475 0.4792492333930976
0.31468085106382976 0.4212415328287113 0.48431909204542095
0.3148936170212766 0.42644439961213343 0.4851335192935824
0.3151063829787234 0.4305761225839945 0.48368213518923264
0.3153191489361702 0.43838581432235196 0.4786818828890723
0.31553191489361704 0.4487866804237801 0.46932110339778693
0.31574468085106383 0.45849974471275307 0.46065288935482573
0.3159574468085106 0.4702604727616617 0.4515303415694474
0.31617021276595747 0.4792363725058268 0.44052482903555795
0.31638297872340426 0.4902429718315359 0.43279781749904184
0.31659574468085105 0.5065689956467577 0.4255121171646803
0.31680851063829785 0.5224747954706256 0.4203189606282147
0.3170212765957447 0.5276162579666344 0.41469037127151315
0.3172340425531915 0.5353819867091612 0.4128706137824594
0.3174468085106383 0.5386568354702934 0.4061404288189103
0.3176595744680851 0.5395752025187618 0.40497707331654387
0.3178723404255319 0.5449621573321346 0.39964585838679
0.3180851063829787 0.5460738259021439 0.40067751752726505
0.3182978723404255 0.549146652110704 0.3986153400308401
0.31851063829787235 0.5544374904384873 0.39716658524670256
0.31872340425531914 0.5579091984386775 0.39679529443038924
0.31893617021276593 0.5603321934538348 0.3974932250345755
0.3191489361702128 0.5568444710024494 0.39912066438690763
0.3193617021276596 0.543169996838183 0.40075059906452876
0.31957446808510637 0.518317054689907 0.4062048105825306
0.3197872340425532 0.487320282175071 0.4101976261842706
0.32 0.455126473547399 0.4108451392281387
0.3202127659574468 0.42690830675581515 0.4139354925460032
0.3204255319148936 0.40647921562536005 0.41811182170275063
0.32063829787234044 0.3912993627680317 0.4195690628939157
0.32085106382978723 0.38253641550715695 0.4206123569526655
0.321063829787234 0.3782033553536707 0.42270277342306395
0.32127659574468087 0.3723651972873635 0.42464882611183313
0.32148936170212766 0.3701776395978891 0.4256848139367071
0.32170212765957445 0.37225779116121077 0.4264777723497801
0.32191489361702125 0.3743191600981087 0.4264777723497801
0.3221276595744681 0.3798110768365399 0.42716766603846257
0.3223404255319149 0.3913829775640403 0.428033172688149
0.3225531914893617 0.4016348669887875 0.4283484682682997
0.3227659574468085 0.40945715904865576 0.43192906916101537
0.3229787234042553 0.41583308627425863 0.4360130492574655
0.3231914893617021 0.4215334158017657 0.4400971676337149
0.32340425531914896 0.4235466536394723 0.44153082210622746
0.32361702127659575 0.42607169167736697 0.4436584039392137
0.32382978723404254 0.4316213310416053 0.44643036388897017
0.32404255319148934 0.43785528379203514 0.4439701136875765
0.3242553191489362 0.44326190505651647 0.4422709213824436
0.324468085106383 0.44406448461162684 0.43860987130805335
0.32468085106382977 0.44689498558342045 0.441032748162805
0.3248936170212766 0.445994411296181 0.44701975577758535
0.3251063829787234 0.4447927674778853 0.4487189130035694
0.3253191489361702 0.44153841751795725 0.460912272583183
0.325531914893617 0.4458663650070571 0.4732362423902204
0.32574468085106384 0.4530950185518159 0.4851261045972297
0.32595744680851063 0.46678896143317444 0.49768645336822503
0.3261702127659574 0.47832825847583677 0.5069656228953062
0.32638297872340427 0.4862364047652162 0.5117642795010257
0.32659574468085106 0.48760282894053264 0.5110517786229948
0.32680851063829786 0.482556453260696 0.5060054029431582
0.3270212765957447 0.4752593658983766 0.5021895409131641
0.3272340425531915 0.4668834801256892 0.4983062349110719
0.3274468085106383 0.45724866653737994 0.4945762599318042
0.3276595744680851 0.44466524180603384 0.4924827890704559
0.3278723404255319 0.4325956808572736 0.4927155767324759
0.3280851063829787 0.42031668641003406 0.489560048376704
0.3282978723404255 0.4159406446685799 0.4899152418764723
0.32851063829787236 0.4069463931038661 0.48705736308152003
0.32872340425531915 0.4077851565668038 0.4875158094621351
0.32893617021276594 0.40569348693464724 0.47941558537648693
0.32914893617021274 0.4038008345891064 0.4729175177466081
0.3293617021276596 0.4027509172721071 0.465290191132402
0.3295744680851064 0.4027519855452959 0.457946611613067
0.32978723404255317 0.4063323165507298 0.45093449602723973
0.33 0.41347928367598547 0.441029097495119
0.3302127659574468 0.4246060820133362 0.430241060137
0.3304255319148936 0.43762440857781615 0.4193058278949724
0.33063829787234045 0.45070470819627073 0.4088938643125902
0.33085106382978724 0.4649695499211637 0.4023598759594359
0.33106382978723403 0.4752839516845903 0.3981665244019648
0.3312765957446808 0.482057927909945 0.3947795362892874
0.33148936170212767 0.49007371303064406 0.3933695108345306
0.33170212765957446 0.49002927196725143 0.39419153897559167
0.33191489361702126 0.48710274833046374 0.39628659094524576
0.3321276595744681 0.48935155914933 0.4031835424849269
0.3323404255319149 0.4813551567427378 0.41746283249669863
0.3325531914893617 0.47490719379463436 0.4345254529744527
0.3327659574468085 0.47207619668123085 0.45894518182664135
0.33297872340425533 0.47142159257449934 0.48487841662963876
0.3331914893617021 0.4728344098512823 0.5010630732275154
0.3334042553191489 0.47491155722130335 0.5123128389408542
0.33361702127659576 0.477785989581395 0.5148901107289009
0.33382978723404255 0.48169074784535315 0.5114597353791519
0.33404255319148934 0.48563779124789475 0.5035656485740687
0.3342553191489362 0.4923244553608818 0.49240308736445193
0.334468085106383 0.49736591193587815 0.4852652503179709
0.3346808510638298 0.5008729788738384 0.48174988185808587
0.33489361702127657 0.5047838011190174 0.4765810154685182
0.3351063829787234 0.5098092229776843 0.466947259955721
0.3353191489361702 0.5095970815220316 0.46374716744074157
0.335531914893617 0.5075686146187797 0.45969711773326827
0.33574468085106385 0.49789385358424065 0.45990131318399086
0.33595744680851064 0.4838913650282821 0.46317469171801484
0.33617021276595743 0.46880234328388254 0.4665363947239862
0.3363829787234042 0.45956657124887973 0.4668147279235041
0.33659574468085107 0.4490668924849534 0.4654030027784683
0.33680851063829786 0.44025237592403826 0.46080406160956483
0.33702127659574466 0.4318071981712861 0.4557383402367913
0.3372340425531915 0.4256192321620251 0.44963070571007935
0.3374468085106383 0.4235466536394723 0.44359346693952095
0.3376595744680851 0.4256279282913641 0.4404396076840218
0.33787234042553194 0.43221183120719864 0.43800605425968453
0.33808510638297873 0.4404174797774654 0.440286903054341
0.3382978723404255 0.4488055998377662 0.4436440637886983
0.3385106382978723 0.4626477874536451 0.44406448461162684
0.33872340425531916 0.4645912313144317 0.4499289509649049
0.33893617021276595 0.46777269416774475 0.45072431667823315
0.33914893617021274 0.4709541570210578 0.4515196823915615
0.3393617021276596 0.4741356198743717 0.4523150481048899
0.3395744680851064 0.47731708272768475 0.4531104138182182
0.3397872340425532 0.4804985455809978 0.4539057795315465
0.34 0.4836800084343117 0.454701145244875
0.3402127659574468 0.48686147128762475 0.45549651095820326
0.3404255319148936 0.48611517196257137 0.4557889594528579
0.3406382978723404 0.48291386919188073 0.45538588018820714
0.34085106382978725 0.4793844844765443 0.4542094186164283
0.34106382978723404 0.47799882543136857 0.4533107920449552
0.34127659574468083 0.4776143935712596 0.45254192832473733
0.3414893617021277 0.47728382999511476 0.4509093885717367
0.3417021276595745 0.47728382999511476 0.4439768871897918
0.34191489361702126 0.47514212411645845 0.43585003444150316
0.34212765957446806 0.4722113461192354 0.42728314491115865
0.3423404255319149 0.46928056812201147 0.4187162553808119
0.3425531914893617 0.46634979012478833 0.41014936585046735
0.3427659574468085 0.4622265099962646 0.40619880146559634
0.34297872340425534 0.4562913920829304 0.409262088130543
0.34319148936170213 0.45035627416959784 0.41232537479548886
0.3434042553191489 0.4444211562562652 0.4153886614604347
0.34361702127659577 0.4384860383429311 0.41845194812538133
0.34382978723404256 0.4332382543958428 0.4206155349291647
0.34404255319148935 0.42964336244457707 0.4206155349291647
0.34425531914893615 0.4260484704933114 0.4206155349291647
0.344468085106383 0.42245357854204474 0.4206155349291647
0.3446808510638298 0.418858686590779 0.4206155349291647
0.3448936170212766 0.4157331316122782 0.4249083610636377
0.3451063829787234 0.41283525720403536 0.43128368476177203
0.3453191489361702 0.408502805574628 0.4413879333856303
0.345531914893617 0.40345002802480273 0.45492122413001884
0.3457446808510638 0.39756768001724435 0.46778855801574337
0.34595744680851065 0.3925011180191642 0.4753297508549097
0.34617021276595744 0.3900344518334509 0.4753297508549097
0.34638297872340423 0.3861181068184537 0.4740368861079384
0.3465957446808511 0.3812371023758751 0.4727300780228057
0.3468085106382979 0.3781893086192591 0.4668363746822146
0.34702127659574467 0.3761116705226594 0.46609643890577235
0.3472340425531915 0.3715768940380539 0.46326053819087293
0.3474468085106383 0.36814877894989123 0.46438672837960354
0.3476595744680851 0.3687910156870688 0.4664535506706692
0.3478723404255319 0.36394348683088557 0.47045018255288984
0.34808510638297874 0.3620512553060271 0.4736661446297932
0.34829787234042553 0.36262134479948654 0.4783771547297591
0.3485106382978723 0.359855543250529 0.47868729413849476
0.34872340425531917 0.3588122839710208 0.4763067904250122
0.34893617021276596 0.3583999452626364 0.47473207632482517
0.34914893617021275 0.3609497236739172 0.4699114472455268
0.34936170212765955 0.36306948443732395 0.46619680115525314
0.3495744680851064 0.36699745650650273 0.4630810268487331
0.3497872340425532 0.37744521487892435 0.463923860255429
0.35 0.39032174349918397 0.4680701526893474
0.3502127659574468 0.40736885550633634 0.47757174636752003
0.3504255319148936 0.4244503729380557 0.49065855136341585
0.3506382978723404 0.4386148296843289 0.5048597868961519
0.35085106382978726 0.45383130662827964 0.5202699973952557
0.35106382978723405 0.4665418516489522 0.505202237576018
0.35127659574468084 0.47052428947985764 0.4954167733138226
0.35148936170212763 0.4737935499465675 0.486461842470226
0.3517021276595745 0.4770628104132782 0.47750691162662706
0.3519148936170213 0.4803320708799881 0.4685519807830304
0.35212765957446807 0.4836013313466979 0.4595970499394338
0.3523404255319149 0.48687059181340864 0.45064211909583485
0.3525531914893617 0.49004135233802826 0.44205110295563105
0.3527659574468085 0.4912264344454122 0.4407963101360481
0.3529787234042553 0.4924115165527962 0.4395415173164651
0.35319148936170214 0.4935965986601804 0.4382867244968818
0.35340425531914893 0.49478168076756435 0.4370319316772988
0.3536170212765957 0.49596676287494834 0.4357771388577158
0.35382978723404257 0.49715184498233256 0.4345223460381325
0.35404255319148936 0.4983369270897165 0.43326755321854954
0.35425531914893615 0.4995220091971005 0.4320127603989665
0.354468085106383 0.5007070913044848 0.4307579675793832
0.3546808510638298 0.5018921734118686 0.42950317475980027
0.3548936170212766 0.5030772555192526 0.42824838194021725
0.3551063829787234 0.5042623376266365 0.4269935891206343
0.3553191489361702 0.5054474197340209 0.425738796301051
0.355531914893617 0.5065813017245492 0.4245579816436835
0.3557446808510638 0.5061476894730566 0.42564201227241505
0.35595744680851066 0.5057140772215638 0.4267260429011468
0.35617021276595745 0.5052804649700713 0.42781007352987827
0.35638297872340424 0.5048468527185787 0.42889410415860973
0.35659574468085103 0.504413240467086 0.42997813478734126
0.3568085106382979 0.5039796282155934 0.431062165416073
0.3570212765957447 0.5035460159641008 0.4321461960448045
0.35723404255319147 0.5031124037126081 0.43323022667353595
0.3574468085106383 0.5026248995425332 0.4342232783103163
0.3576595744680851 0.49929465124047395 0.43041728025082004
0.3578723404255319 0.4959644029384147 0.42661128219132377
0.35808510638297875 0.4909787134518726 0.4252605552559823
0.35829787234042554 0.4859328419641631 0.4239990873840549
0.35851063829787233 0.4808869704764536 0.4227376195121275
0.3587234042553191 0.4778210269434158 0.4219711336288681
0.35893617021276597 0.47516368977811635 0.4200684403034061
0.35914893617021276 0.47235730603449266 0.4169206419586981
0.35936170212765955 0.4688515620293374 0.4145993096573099
0.3595744680851064 0.4645527297174641 0.4142795706566563
0.3597872340425532 0.45520835927672454 0.4190969059210594
0.36 0.44776624733199877 0.42459249172958785
0.3602127659574468 0.4363064480093467 0.42841242483713854
0.3604255319148936 0.4274823117610499 0.4313538035865706
0.3606382978723404 0.42548839076385947 0.43431054493169163
0.3608510638297872 0.42263678979613 0.4381126795553309
0.36106382978723406 0.42073308158250894 0.4400387796778722
0.36127659574468085 0.4206155349291647 0.4410379729051653
0.36148936170212764 0.4128329542639382 0.44199809708634413
0.3617021276595745 0.4126653530019301 0.44295357967511023
0.3619148936170213 0.41638208624204587 0.4416542978920434
0.3621276595744681 0.42293623322786217 0.44244632015357027
0.36234042553191487 0.4255007327796776 0.4457211238723389
0.3625531914893617 0.4302956693476512 0.44562562144537066
0.3627659574468085 0.43573240488313403 0.44436304515918174
0.3629787234042553 0.43920307573210937 0.4467016420932277
0.36319148936170215 0.44282020104458714 0.44930458024872244
0.36340425531914894 0.44406448461162684 0.4519009204849112
0.36361702127659573 0.4434115232655738 0.4541637634346558
0.3638297872340425 0.44112646620081436 0.4561192391098951
0.36404255319148937 0.4362384922380602 0.4587249160695386
0.36425531914893616 0.4311547325420433 0.45969711773326827
0.36446808510638296 0.42229572207931365 0.462068174060193
0.3646808510638298 0.4130201392504879 0.4656782879996204
0.3648936170212766 0.4025029510517096 0.467513434294089
0.3651063829787234 0.3894774877603649 0.47104267635324737
0.36531914893617023 0.3776893509806783 0.47839806767321846
0.365531914893617 0.3651930592852239 0.48216902784562765
0.3657446808510638 0.35185594673636306 0.4843573679023499
0.3659574468085106 0.3424412378327197 0.48915583298081616
0.36617021276595746 0.3352392431067258 0.4926738608652806
0.36638297872340425 0.3280629544286657 0.49591898326400846
0.36659574468085104 0.3241939620263547 0.4994198925910963
0.3668085106382979 0.3201366214911069 0.4990870290293495
0.3670212765957447 0.3143814321081136 0.4992293194672119
0.3672340425531915 0.3150952613580851 0.49721759809478716
0.36744680851063827 0.3150952613580851 0.49451307993544735
0.3676595744680851 0.31289963092211587 0.4949913179048434
0.3678723404255319 0.3090328285166356 0.49548853606689086
0.3680851063829787 0.3059556871604908 0.49550136376039317
0.36829787234042555 0.3090342773371771 0.49594695512721015
0.36851063829787234 0.31472551809547805 0.4935414280473925
0.36872340425531913 0.32295354928992503 0.49161188431557873
0.368936170212766 0.3343267819848482 0.48795620237792486
0.36914893617021277 0.34570001467976846 0.48430052044027194
0.36936170212765956 0.355651615740282 0.4818740735300091
0.36957446808510636 0.3654824545377223 0.47977631594127745
0.3697872340425532 0.38031282553549567 0.47511255411797004
0.37 0.3985919670297381 0.4672454093135238
0.3702127659574468 0.4189161112908491 0.4597821592907815
0.37042553191489364 0.4424191254733436 0.4505587150243592
0.3706382978723404 0.46787028190759833 0.440525387993083
0.3708510638297872 0.4936484953693964 0.4340601622271256
0.371063829787234 0.5179657215807069 0.42889107792148556
0.37127659574468086 0.5371233430464681 0.4264777723497801
0.37148936170212765 0.5514602029821363 0.427072978674399
0.37170212765957444 0.5597528158699648 0.42745481191988266
0.3719148936170213 0.5605749616829133 0.43039189728397903
0.3721276595744681 0.5587285243295353 0.4329666393245926
0.3723404255319149 0.5592530930197132 0.4376919428709158
0.3725531914893617 0.5565718082739753 0.43634668345117344
0.3727659574468085 0.557184558061197 0.43852973671412343
0.3729787234042553 0.5606329366230945 0.43767108455064896
0.3731914893617021 0.5650665028940252 0.43560208695754804
0.37340425531914895 0.5695000691649569 0.4335330893644466
0.37361702127659574 0.573837028261303 0.4319839377771483
0.37382978723404253 0.5765761103063839 0.4302657026827078
0.3740425531914894 0.5751784798448585 0.42607281129813196
0.37425531914893617 0.56930165804292 0.42336843441875743
0.37446808510638296 0.5626391144931617 0.42017013150686855
0.37468085106382976 0.5559392587383641 0.4166231490484463
0.3748936170212766 0.5502565510929531 0.41316576461873483
0.3751063829787234 0.5487100321273368 0.4100727266875022
0.3753191489361702 0.5471635131617205 0.4069796887562696
0.37553191489361704 0.5449287717318217 0.40639115831277
0.37574468085106383 0.5411450296403165 0.4068302841776169
0.3759574468085106 0.5305838790337155 0.4061262074705102
0.37617021276595747 0.5222985087938993 0.4037881743101695
0.37638297872340426 0.5141660295577546 0.4045557080477866
0.37659574468085105 0.5058162446228198 0.4049829018075233
0.37680851063829784 0.4966436812809675 0.4049829018075233
0.3770212765957447 0.4911064559629406 0.4049829018075233
0.3772340425531915 0.48994422020397155 0.4060010655801026
0.3774468085106383 0.48922191234022955 0.4073641959554958
0.3776595744680851 0.4909623839765511 0.41137325396596874
0.3778723404255319 0.4901658803129738 0.4151701393497068
0.3780851063829787 0.48696763900439377 0.4208752950044057
0.37829787234042556 0.4862253618899033 0.42428753245879863
0.37851063829787235 0.48746404753172135 0.4284318514899854
0.37872340425531914 0.4895490129726388 0.4281614974218389
0.37893617021276593 0.49196699612111633 0.42745481191988266
0.3791489361702128 0.49590408680459475 0.42745481191988266
0.3793617021276596 0.4997276743583249 0.42745481191988266
0.37957446808510636 0.5001875683181082 0.4318165027956331
0.3797872340425532 0.4973271687111157 0.4352711284807034
0.38 0.49652015984552655 0.4386340185730163
0.3802127659574468 0.4895127907284711 0.4489305231336511
0.3804255319148936 0.4838654087477193 0.45188080117244755
0.38063829787234044 0.47620187406729403 0.45795697035232924
0.38085106382978723 0.4678439196746899 0.4643344515483305
0.381063829787234 0.45447685170104074 0.4725790534732173
0.38127659574468087 0.44148024316760953 0.4799580946253909
0.38148936170212766 0.43425633252063506 0.4877790799533324
0.38170212765957445 0.4280015199878961 0.49258492079978755
0.3819148936170213 0.42899422263215603 0.4945909366700308
0.3821276595744681 0.4342613323617565 0.49322030527422744
0.3823404255319149 0.4331531480170701 0.4915328544233165
0.3825531914893617 0.43429408891060084 0.48857787755996307
0.3827659574468085 0.43375102793798437 0.486077186126038
0.3829787234042553 0.4333170493404983 0.4848598508332702
0.3831914893617021 0.4333170493404983 0.48412310698583294
0.38340425531914896 0.42964302374430746 0.48632752234354754
0.38361702127659575 0.42683051969054736 0.48705422569614076
0.38382978723404254 0.42298913560757295 0.49054286243834794
0.38404255319148933 0.4178467992540123 0.49001782101347946
0.3842553191489362 0.41366766608715344 0.4909623839765511
0.384468085106383 0.41033134330475773 0.4907568656071987
0.38468085106382977 0.4055584090788096 0.48920907098575395
0.3848936170212766 0.4003677016664931 0.49062556769040666
0.3851063829787234 0.39037063179465903 0.48876946038615454
0.3853191489361702 0.38077809717285316 0.48649502624019514
0.38553191489361704 0.3682158386768213 0.4823919411961776
0.38574468085106384 0.3583599988693014 0.47853586599191994
0.38595744680851063 0.3519052308271191 0.47347337776623993
0.3861702127659574 0.3449477884871564 0.47015903572909307
0.38638297872340427 0.3386846020120092 0.46776499859669424
0.38659574468085106 0.3356130923302394 0.4668814616223226
0.38680851063829785 0.33599717881891483 0.466745261316738
0.3870212765957447 0.3365901319003419 0.4655593551538837
0.3872340425531915 0.3376044578076217 0.4625163774320445
0.3874468085106383 0.3385442110405472 0.4568749759179724
0.3876595744680851 0.34042998576864714 0.4535547367306886
0.3878723404255319 0.3428762588350671 0.4486550534899134
0.3880851063829787 0.3465025552906677 0.44392245692232685
0.3882978723404255 0.34894131822404256 0.4398799429363797
0.38851063829787236 0.3527251005763673 0.43574583249642196
0.38872340425531915 0.35692031332173096 0.4343410012982922
0.38893617021276594 0.3688738829411442 0.4352296832532865
0.3891489361702128 0.371933394082885 0.4331259031356729
0.3893617021276596 0.3841572269114793 0.431362970200293
0.3895744680851064 0.3941592749289685 0.4308934983170983
0.38978723404255317 0.4024577075233629 0.4273111101122189
0.39 0.41096928902219776 0.41992999135185594
0.3902127659574468 0.4212851510776949 0.4122020407652052
0.3904255319148936 0.4323856153196494 0.4059371386029989
0.39063829787234045 0.44447853843254675 0.401265926351519
0.39085106382978724 0.45759207889245884 0.39920592831832835
0.39106382978723403 0.46704945127531555 0.39913702223109293
0.3912765957446808 0.4712690640100549 0.4028762941028736
0.39148936170212767 0.47608752155304573 0.4063069034312735
0.39170212765957446 0.47853070263871844 0.4085871294397987
0.39191489361702125 0.47611072746586186 0.41514869865249915
0.3921276595744681 0.475534273277663 0.42184266946568455
0.3923404255319149 0.4761196134931323 0.42760083394105963
0.3925531914893617 0.4768772817640677 0.43285585340678173
0.39276595744680853 0.48381406197651605 0.43558017349002026
0.3929787234042553 0.4826635844078235 0.4378186754955436
0.3931914893617021 0.48746127905278475 0.4430874450415241
0.3934042553191489 0.49600125833788333 0.4431045202093929
0.39361702127659576 0.5041463823124639 0.44400953398434645
0.39382978723404255 0.5157381221854549 0.4422149539070488
0.39404255319148934 0.5283508426145295 0.4414445482594599
0.3942553191489362 0.539323865802104 0.44059619182721516
0.394468085106383 0.5487512475695149 0.4411620716927012
0.3946808510638298 0.5592085553267997 0.4406814957555008
0.39489361702127657 0.5676374974382813 0.44159939289504724
0.3951063829787234 0.5746239727720837 0.44305973269668836
0.3953191489361702 0.5820054706203829 0.4410738970265553
0.395531914893617 0.586183625843496 0.43778058776938905
0.39574468085106385 0.5860602461098176 0.4342936952965696
0.39595744680851064 0.5818181653944575 0.4321607482846254
0.39617021276595743 0.5743798453121861 0.4308083264514851
0.3963829787234043 0.5667242837369206 0.4277197383511179
0.39659574468085107 0.556647878339484 0.42577577640185105
0.39680851063829786 0.5434637591823583 0.42641890416561323
0.39702127659574465 0.5302796400252326 0.4270620319293754
0.3972340425531915 0.5171579034496261 0.4277530323181302
0.3974468085106383 0.5048116187674234 0.42825266065428175
0.3976595744680851 0.4977345592739193 0.42667998076683633
0.39787234042553193 0.49238110058438295 0.42370057184179044
0.3980851063829787 0.48751621190066763 0.4203136376972573
0.3982978723404255 0.48310899725244993 0.4165360251416421
0.3985106382978723 0.4797217972753025 0.41034642982393627
0.39872340425531916 0.4766253468815956 0.4043244186940041
0.39893617021276595 0.4735804453004407 0.4012795171128492
0.39914893617021274 0.47418347942534717 0.39542008955261304
0.3993617021276596 0.4657244551823092 0.3879603711891236
0.3995744680851064 0.45747415257752705 0.3933166638412445
0.3997872340425532 0.4471823630786623 0.40095023702262766
0.4 0.4370397612163304 0.40794612904402544
0.4002127659574468 0.4269931207150508 0.4208195519513614
0.4004255319148936 0.41502537378849164 0.43797964572277653
0.4006382978723404 0.4034166074387865 0.4573396938705547
0.40085106382978725 0.3955975180834006 0.47444972347913067
0.40106382978723404 0.3912370132766195 0.48720572843244236
0.40127659574468083 0.3872291351598971 0.49668285375596133
0.4014893617021277 0.38558973107831557 0.5069465635836867
0.40170212765957447 0.3874656248878758 0.516085693518696
0.40191489361702126 0.3923868853431793 0.5227689189783801
0.40212765957446805 0.396667452693236 0.5249092026534083
0.4023404255319149 0.3999838558850489 0.5258630865897282
0.4025531914893617 0.4069787090832533 0.5229154636514404
0.4027659574468085 0.41139659248270005 0.5177200531863816
0.40297872340425533 0.41125523542875014 0.5090800830510643
0.4031914893617021 0.41223168905259344 0.49884324746721453
0.4034042553191489 0.411623328771414 0.4909509102671948
0.40361702127659577 0.41073221743417726 0.48250779322751214
0.40382978723404256 0.41327051148593064 0.47634124375994125
0.40404255319148935 0.4152839131580667 0.4707225934671161
0.40425531914893614 0.41688511428268243 0.46618091945613
0.404468085106383 0.41893742573888076 0.46458231558378116
0.4046808510638298 0.42156931286585625 0.4616860893235897
0.4048936170212766 0.4237398442217211 0.4575609346696728
0.4051063829787234 0.4243323908380871 0.4540056549714775
0.4053191489361702 0.42452369320957506 0.44594789440563065
0.405531914893617 0.4239640272250672 0.43875240956437495
0.4057446808510638 0.4254997516619158 0.43331852101714086
0.40595744680851065 0.42910994500752 0.4303859306301905
0.40617021276595744 0.43151778699666155 0.438281587244985
0.40638297872340423 0.43193923896018044 0.45977563738444416
0.4065957446808511 0.43202088889092055 0.48067368496966817
0.40680851063829787 0.42551766736937685 0.49002206590688735
0.40702127659574466 0.4190144458478331 0.4993704468441065
0.4072340425531915 0.41071467609200935 0.5116759096528996
0.4074468085106383 0.4009689700455057 0.5292784741737663
0.4076595744680851 0.39272466765451297 0.5343450051472644
0.4078723404255319 0.38340396774120294 0.5302057492850497
0.40808510638297874 0.3782977817333166 0.525301709174482
0.4082978723404255 0.37686233891891796 0.5165471801027123
0.4085106382978723 0.37507175081072464 0.5073148180718074
0.40872340425531917 0.37638796369440797 0.4963048904477319
0.40893617021276596 0.376648754274548 0.4893796227538722
0.40914893617021275 0.37667968783375694 0.4821612944558254
0.40936170212765954 0.3804802755871091 0.48057889253273106
0.4095744680851064 0.38103943235321963 0.47293780390419526
0.4097872340425532 0.39011312728071784 0.4687281211660157
0.41 0.3957236900623897 0.46014464720363596
0.4102127659574468 0.4122089250420177 0.4499491115326295
0.4104255319148936 0.43022059255595013 0.4373409442728769
0.4106382978723404 0.44717222690910424 0.42323662738848056
0.41085106382978726 0.46078673921886276 0.41668690720957396
0.41106382978723405 0.47195488891693843 0.41467711231677207
0.41127659574468084 0.4792403727076094 0.4151755481418638
0.41148936170212763 0.485292207836719 0.4241228374818229
0.4117021276595745 0.48532794010534286 0.4284757617383007
0.41191489361702127 0.48225113239686096 0.43697889396720907
0.41212765957446806 0.47847221275587815 0.4455272753708863
0.4123404255319149 0.47451256881899917 0.45196967712201847
0.4125531914893617 0.4733756717147044 0.4571597857766745
0.4127659574468085 0.4733756717147044 0.46182358614890817
0.4129787234042553 0.4733756717147044 0.4612031800078336
0.41319148936170214 0.47607341417975296 0.45902268211700603
0.41340425531914893 0.48096150660489806 0.4521002602655556
0.4136170212765957 0.4853784975916508 0.44029831279417275
0.41382978723404257 0.486077186126038 0.42958010536944413
0.41404255319148936 0.487001704825176 0.42196022059602023
0.41425531914893615 0.4880312652662433 0.423650604283994
0.414468085106383 0.4883364620779425 0.42986668627763674
0.4146808510638298 0.49208613041826593 0.43571124909554027
0.4148936170212766 0.49248570348587234 0.43777148756012735
0.4151063829787234 0.4909623839765511 0.43737025800855633
0.4153191489361702 0.4909623839765511 0.438400932463233
0.415531914893617 0.4926376855916046 0.4323393506543599
0.4157446808510638 0.49536002235136556 0.4254949709235607
0.41595744680851066 0.5008532693515059 0.4181201140476436
0.41617021276595745 0.5066039797375391 0.4132810161738851
0.41638297872340424 0.5119729653712238 0.41053822787343147
0.4165957446808511 0.5193308718976106 0.4059256009895413
0.4168085106382979 0.5233578693771643 0.40189860350998763
0.41702127659574467 0.5260847539452432 0.39790303588510595
0.41723404255319146 0.5271128480703469 0.3975957431692267
0.4174468085106383 0.5249145718627514 0.4025401772319959
0.4176595744680851 0.5210654632304074 0.41101746102909187
0.4178723404255319 0.5151105117206815 0.4268132366283434
0.41808510638297874 0.5114933335516435 0.4455966808069189
0.41829787234042554 0.5060742694683332 0.46559094523457556
0.41851063829787233 0.5006913527266474 0.4793207630371792
0.4187234042553191 0.4972373359314351 0.4857150084256249
0.41893617021276597 0.49527155797345424 0.4880312652662433
0.41914893617021276 0.49423566112461553 0.48612662186920585
0.41936170212765955 0.49319421764354954 0.4823030063826985
0.4195744680851064 0.48984006524115525 0.47657739146212386
0.4197872340425532 0.4839499475667105 0.4736436317650311
0.42 0.48055012504382716 0.4655878445989949
0.42021276595744683 0.4730072982745116 0.46278040297605333
0.4204255319148936 0.4695110868871436 0.4578156610144789
0.4206382978723404 0.4655593551538837 0.4536683940069114
0.4208510638297872 0.4650606425104011 0.4504050489588622
0.42106382978723406 0.46030608842266263 0.44641912827158703
0.42127659574468085 0.45351617633741614 0.4432870384844234
0.42148936170212764 0.448975085844986 0.43954730558922533
0.4217021276595745 0.4477772771281709 0.4339031466320968
0.4219148936170213 0.44696455180394484 0.42681269544543965
0.4221276595744681 0.442813712451475 0.4220558234474716
0.42234042553191486 0.4392674829816131 0.42336924176964263
0.4225531914893617 0.43572125351175034 0.42468266009181405
0.4227659574468085 0.4321750240418885 0.42599607841398507
0.4229787234042553 0.4286287945720267 0.4273094967361561
0.42319148936170214 0.4250825651021639 0.4286229150583275
0.42340425531914894 0.42153633563230203 0.4299363333804985
0.42361702127659573 0.4179901061624402 0.43124975170266955
0.4238297872340426 0.4183354362918298 0.4352690906381308
0.42404255319148937 0.41544161640331256 0.44366488639220236
0.42425531914893616 0.40915964142435257 0.4535218247258598
0.42446808510638295 0.40169237564220706 0.4564634748824625
0.4246808510638298 0.39422510986005965 0.45940512503906605
0.4248936170212766 0.38675784407791414 0.4623467751956688
0.4251063829787234 0.3792905782957687 0.46528842535227155
0.42531914893617023 0.3698059183212958 0.4743562702473412
0.425531914893617 0.35943553213075397 0.48301142290583204
0.4257446808510638 0.3486574384745977 0.49049271067611067
0.4259574468085106 0.34101563441461613 0.49660615392409596
0.42617021276595746 0.337542023142492 0.5017601159035846
0.42638297872340425 0.3368468602605576 0.5034071700276691
0.42659574468085104 0.3372655922646974 0.5029884380235292
0.4268085106382979 0.3389008241065842 0.5021533977633262
0.4270212765957447 0.3432029983611475 0.5004825699975136
0.4272340425531915 0.3474432878538799 0.498725840196167
0.4274468085106383 0.3531998045920859 0.4955742667958397
0.4276595744680851 0.3522901992753587 0.494567340484719
0.4278723404255319 0.3502686858817783 0.4931669985245769
0.4280851063829787 0.34984614505346817 0.4898267194051036
0.42829787234042555 0.35025656668208843 0.4856068451405215
0.42851063829787234 0.35339184732896933 0.48412310698583294
0.42872340425531913 0.3592458175214036 0.4858767928954526
0.428936170212766 0.3645527738733113 0.4876941289837162
0.42914893617021277 0.36660291111408383 0.49224081793022834
0.42936170212765956 0.3730143649657979 0.4977285066820311
0.42957446808510635 0.38130540579669 0.497126017871785
0.4297872340425532 0.3922251936562773 0.4915259657820138
0.43 0.4061301524436582 0.4837220383955326
0.4302127659574468 0.4230356845586374 0.4730166237763489
0.43042553191489363 0.44068917716660355 0.4607003377131398
0.4306382978723404 0.4601854312467728 0.4454273605422015
0.4308510638297872 0.47181784346145106 0.437986110343583
0.43106382978723407 0.48308681508085494 0.4317281516135776
0.43127659574468086 0.4926617567005632 0.42596796053257646
0.43148936170212765 0.5028797935564472 0.4230695394441678
0.43170212765957444 0.5107313496264756 0.41948345031781015
0.4319148936170213 0.514499487941604 0.4143982328909846
0.4321276595744681 0.5188434890993611 0.4112981816383038
0.4323404255319149 0.5255798751794314 0.4074351312378884
0.4325531914893617 0.5318121901089821 0.4041917180492984
0.4327659574468085 0.5382415863299672 0.40021344255340013
0.4329787234042553 0.544177473537745 0.3950573786037534
0.4331914893617021 0.5486614458674324 0.3940046384575762
0.43340425531914895 0.551214382430367 0.39342065441256446
0.43361702127659574 0.5515388373229115 0.39488236272332233
0.43382978723404253 0.5488855507329087 0.3972024710489995
0.4340425531914894 0.5447859820540915 0.4032640793959426
0.43425531914893617 0.5432669278749348 0.4095442143624609
0.43446808510638296 0.541905819521439 0.41454723065921895
0.4346808510638298 0.5383042503000358 0.41957205644591267
0.4348936170212766 0.534281437494753 0.42354447409328005
0.4351063829787234 0.5298920343490299 0.42662970478140494
0.4353191489361702 0.5275210007409797 0.42777628037755644
0.43553191489361703 0.528359812651555 0.4210622385800195
0.4357446808510638 0.5251587689301416 0.41749603471444524
0.4359574468085106 0.5265255947433732 0.4125714140661387
0.43617021276595747 0.5296588770534879 0.4110049012198797
0.43638297872340426 0.5258076690782849 0.40889106008793363
0.43659574468085105 0.5251587689301416 0.4073328144229429
0.43680851063829784 0.524738894428101 0.4049829018075233
0.4370212765957447 0.5229204844363305 0.40582373175666225
0.4372340425531915 0.5199704682152623 0.40779040923737453
0.4374468085106383 0.515208779625012 0.4099279641927374
0.4376595744680851 0.5098948659068148 0.41311273414234245
0.4378723404255319 0.5104085264130925 0.4191377618047874
0.4380851063829787 0.5036748436006014 0.4221305097214501
0.43829787234042555 0.4996798844803386 0.4270800755755352
0.43851063829787235 0.4957727434320827 0.4299348300426299
0.43872340425531914 0.49168496748112606 0.42958953693623164
0.43893617021276593 0.4866918445341368 0.4319712147255365
0.4391489361702128 0.4855376137164985 0.4366565890467122
0.43936170212765957 0.48293889780497545 0.44204741898830646
0.43957446808510636 0.4757365854641913 0.44905859602983245
0.4397872340425532 0.46806903155861546 0.4578597026244678
