0.0 0.6170004885197851 0.4587200781631655
0.0002127659574468085 0.618141919089322 0.4571981707371161
0.000425531914893617 0.6192833496588591 0.45567626331106675
0.0006382978723404255 0.6204247802283961 0.45415435588501735
0.000851063829787234 0.6215662107979331 0.452632448458968
0.0010638297872340426 0.6227076413674701 0.4511105410329186
0.001276595744680851 0.6255135189793976 0.4462648737841
0.0014893617021276596 0.6282794171131417 0.44305879601673953
0.001702127659574468 0.6290672841454882 0.44147568668579107
0.0019148936170212765 0.6280147662019694 0.4400896157284525
0.002127659574468085 0.6314315254772185 0.4392354259096401
0.002340425531914894 0.6349243902952236 0.43509390148123916
0.002553191489361702 0.6341415918437505 0.4314487918946334
0.0027659574468085106 0.6341627994043005 0.4265174632807899
0.0029787234042553193 0.6339115613350687 0.4235466536394723
0.0031914893617021275 0.6320082764158352 0.42417149886506356
0.003404255319148936 0.6266858379645766 0.4294939373163223
0.003617021276595745 0.6257938446507083 0.42513034088144636
0.003829787234042553 0.6205523493497277 0.4277398498802569
0.004042553191489362 0.6151233659628099 0.43346316383632894
0.00425531914893617 0.6127044897280491 0.4383961674466739
0.004468085106382979 0.6098214746863446 0.43950848086431993
0.004680851063829788 0.6020089815588558 0.4412427786496101
0.004893617021276595 0.5921941032164864 0.44206068517814084
0.005106382978723404 0.5824871171865931 0.44211040547142155
0.005319148936170213 0.5664022133669856 0.4372901396498259
0.005531914893617021 0.5627381586749817 0.4371040183541792
0.00574468085106383 0.5494750292167913 0.43380010321241097
0.005957446808510639 0.5380788034777352 0.42972444724262343
0.006170212765957446 0.5265146817291484 0.43157565732374337
0.006382978723404255 0.5144403908395172 0.432076185994959
0.006595744680851064 0.5025733364524673 0.4307442501009507
0.006808510638297872 0.4902315487641825 0.43014128184462314
0.007021276595744681 0.4794437956390006 0.4330645379627775
0.00723404255319149 0.46764596449589574 0.4352711284807034
0.007446808510638298 0.456350974056986 0.4358011507623522
0.007659574468085106 0.44434005479365796 0.43450799580954697
0.007872340425531916 0.43074762737634087 0.4316307174635437
0.008085106382978723 0.41836880431244755 0.4287073245673375
0.008297872340425531 0.40784123115531296 0.4280483145981961
0.00851063829787234 0.39378886523436984 0.4322632253661293
0.008723404255319148 0.38005291760831683 0.4329073703260239
0.008936170212765958 0.3645536497165832 0.4338518978401413
0.009148936170212766 0.3495252879315105 0.4334733151090726
0.009361702127659575 0.3385279346448582 0.43684090235114315
0.009574468085106383 0.33100575483757105 0.43535051715437323
0.00978723404255319 0.320911246118435 0.43417845725993715
0.01 0.3189909120753043 0.42934635324413206
0.010212765957446808 0.3183121200303565 0.42440939722478954
0.010425531914893617 0.32302156792564907 0.4227895940828564
0.010638297872340425 0.3242117273835911 0.4246852481568664
0.010851063829787235 0.3258426966292134 0.4255007327796776
0.011063829787234043 0.3255686173489411 0.42714520846131127
0.01127659574468085 0.3251976355767902 0.43069901316493425
0.01148936170212766 0.3254545702970567 0.4309613963887148
0.011702127659574468 0.32307058499910707 0.4342145853705002
0.011914893617021277 0.31800273581511335 0.4356932374755016
0.012127659574468085 0.3134517672465651 0.43591494078009746
0.012340425531914893 0.310581434234658 0.4343215034328319
0.012553191489361702 0.3065701437162298 0.43446641301349925
0.01276595744680851 0.30491057939060845 0.43778796092456057
0.01297872340425532 0.3024430079538092 0.4410348438872033
0.013191489361702127 0.3009734632158953 0.45091327368456974
0.013404255319148937 0.30082770583814733 0.46403498099187807
0.013617021276595745 0.3004396678065462 0.4720571997432656
0.013829787234042552 0.2997288022178588 0.4804843276015785
0.014042553191489362 0.2979099142957745 0.49246235105974473
0.01425531914893617 0.2966834438703727 0.5014713840638872
0.01446808510638298 0.290579964203533 0.5120392871818721
0.014680851063829787 0.29052206799720415 0.520072977783203
0.014893617021276596 0.29236404097835267 0.5237927639589799
0.015106382978723404 0.29709788810571064 0.5277613588480272
0.015319148936170212 0.29941580453870553 0.5299971430829166
0.015531914893617021 0.30344725845899057 0.5317303941233819
0.01574468085106383 0.3063535920320995 0.5243014969509412
0.015957446808510637 0.31788162935549724 0.5142786547528397
0.016170212765957447 0.32460654996322075 0.5055004241696879
0.016382978723404256 0.3343954258263814 0.494378719782119
0.016595744680851062 0.34396914288122393 0.484020678575608
0.01680851063829787 0.3527640731375884 0.4736661593510362
0.01702127659574468 0.36667313458104484 0.4645352691117027
0.01723404255319149 0.3779858939589551 0.4606741573033708
0.017446808510638297 0.390912773192582 0.4606741573033708
0.017659574468085106 0.4007104369935529 0.45653966359871195
0.017872340425531916 0.4134354036859337 0.4538348803126526
0.018085106382978722 0.42865470556321617 0.45669009453386883
0.01829787234042553 0.44555614727414516 0.4561881988867396
0.01851063829787234 0.4637626089499112 0.4557889594528579
0.01872340425531915 0.48683533633000975 0.4515600132849362
0.018936170212765956 0.511885779124212 0.45343073483900986
0.019148936170212766 0.5397022777268276 0.44880441731312615
0.019361702127659575 0.5608287875203531 0.44455138954038476
0.01957446808510638 0.5809892768267804 0.44003585627920905
0.01978723404255319 0.5979260128668957 0.43753330799105183
0.02 0.6124090897937028 0.43550831134009976
0.02021276595744681 0.6168097599193536 0.437098055220621
0.020425531914893616 0.6228548957567428 0.44112814577888054
0.020638297872340425 0.6199316072300929 0.44410501006601716
0.020851063829787235 0.6197362738292649 0.4453345242829714
0.02106382978723404 0.6185705126042519 0.4482691351492193
0.02127659574468085 0.6217239808869072 0.4497650165488514
0.02148936170212766 0.6205901161433935 0.44879041713373885
0.02170212765957447 0.6212614253274379 0.44779519230223347
0.021914893617021276 0.6302443062406679 0.44628971540660645
0.022127659574468085 0.6257938446507083 0.4443551967898016
0.022340425531914895 0.6261483443955942 0.4461050234163872
0.0225531914893617 0.625932300663884 0.44713405933511013
0.02276595744680851 0.6257827126031118 0.4489162863193503
0.02297872340425532 0.6251832507207088 0.4508223788390461
0.023191489361702126 0.6221141270447372 0.4464754451007103
0.023404255319148935 0.6196372972074282 0.4421574602224761
0.023617021276595745 0.6210421959648492 0.4369581092916008
0.023829787234042554 0.6159259256328922 0.43196015029325574
0.02404255319148936 0.6090384389440203 0.4270076878840619
0.02425531914893617 0.604277316232387 0.4269771210728635
0.02446808510638298 0.5993150586595036 0.42665343674411366
0.024680851063829785 0.5924140479670489 0.4247570041438411
0.024893617021276595 0.5833059200962245 0.425444975387452
0.025106382978723404 0.5748892783993492 0.4245319022600771
0.025319148936170214 0.562765578429538 0.4256873829301543
0.02553191489361702 0.5534374911071623 0.42830625745897544
0.02574468085106383 0.537541342436625 0.42745481191988266
0.02595744680851064 0.5253518171477467 0.4269569809212095
0.026170212765957445 0.5148996618041003 0.4255007327796776
0.026382978723404255 0.5050796916502203 0.42587126979286755
0.026595744680851064 0.49344736998329186 0.428219488743371
0.026808510638297874 0.48123310851429557 0.4308108154271872
0.02702127659574468 0.46932549607794544 0.43289953823362126
0.02723404255319149 0.46024970713394403 0.4352711284807034
0.0274468085106383 0.44985985581273086 0.4367567477017107
0.027659574468085105 0.4392225261816896 0.4371442475546404
0.027872340425531914 0.42751761143650907 0.43624816805080613
0.028085106382978724 0.41556415291100485 0.43735935235482165
0.028297872340425533 0.40361839463038274 0.4403960557128562
0.02851063829787234 0.3876914100289766 0.4452412975521249
0.02872340425531915 0.37176879920485484 0.45285434555533705
0.02893617021276596 0.36008345216753734 0.4578237929931208
0.029148936170212764 0.34716148034328054 0.46271627985767083
0.029361702127659574 0.33593758022803516 0.46617466065641916
0.029574468085106383 0.328718129530786 0.46521511336093774
0.029787234042553193 0.3190525550648572 0.46811285246308065
0.03 0.3179542359796303 0.46409055614445793
0.03021276595744681 0.320514609623748 0.4567752028755502
0.030425531914893618 0.3231451131601568 0.4495530656462406
0.030638297872340424 0.32680434145640064 0.44369830037225044
0.030851063829787233 0.32851866767392285 0.4341695945218753
0.031063829787234043 0.3295210757757944 0.42538488671010677
0.03127659574468085 0.32975085490962375 0.4188815667490058
0.03148936170212766 0.3289418436625894 0.4168754049718225
0.03170212765957447 0.3279195462767926 0.4158531075860255
0.031914893617021274 0.3231214844778324 0.4149511218633873
0.03212765957446809 0.32272521081005273 0.4179159873535472
0.03234042553191489 0.32041310068377227 0.4236584102592265
0.0325531914893617 0.31822655148416756 0.42978541638286594
0.03276595744680851 0.3134224880894877 0.43130670902597146
0.03297872340425532 0.31411022228768454 0.44105337089834123
0.033191489361702124 0.31026249395709476 0.4440251617744847
0.03340425531914894 0.31108322536153327 0.4501766175893547
0.03361702127659574 0.30731485418098076 0.4524526611610224
0.033829787234042556 0.3080247698324622 0.45802643455845166
0.03404255319148936 0.30731222048028095 0.46165119687347334
0.03425531914893617 0.304072913636494 0.4638504964771737
0.03446808510638298 0.303370786516854 0.4687603813986878
0.03468085106382979 0.3041642133769619 0.46666863253400426
0.03489361702127659 0.3086393066042794 0.46741448140522396
0.035106382978723406 0.3070744813058185 0.4703914911362902
0.03531914893617021 0.31095741074238503 0.4725854689533051
0.03553191489361702 0.31881206650803834 0.4746558111838106
0.03574468085106383 0.3265856412549901 0.4765217884494971
0.03595744680851064 0.3320613029734625 0.4772062461643061
0.036170212765957444 0.339138882585063 0.477821905742209
0.036382978723404256 0.3469342965371948 0.478983111872655
0.03659574468085106 0.35607102303662624 0.48159360515820687
0.03680851063829787 0.36785413262679456 0.48216902784562765
0.03702127659574468 0.37693619432510944 0.4817092337369321
0.03723404255319149 0.38473641351307997 0.48195189754063816
0.0374468085106383 0.3965420874833723 0.4831460674157304
0.03765957446808511 0.40993440170769996 0.48334589546639517
0.03787234042553191 0.4211474803280039 0.48409343404108207
0.038085106382978726 0.4365387018111531 0.48469795803629007
0.03829787234042553 0.45289415233351193 0.48466321699952236
0.03851063829787234 0.47087029373570133 0.48333165096973063
0.03872340425531915 0.49277431281165684 0.4795537264718502
0.03893617021276596 0.5173790843924453 0.47275357447616395
0.03914893617021276 0.5418175164692887 0.4659989715291457
0.039361702127659576 0.5635821867514944 0.4602421859175526
0.03957446808510638 0.5815633596434087 0.4549734017767703
0.03978723404255319 0.5959914879857573 0.4522837350605655
0.04 0.6083619209424703 0.4493730449531036
0.04021276595744681 0.6117515600541025 0.44497381114955104
0.04042553191489362 0.6121152906692722 0.4432569978429213
0.040638297872340426 0.6146689389402366 0.4456410933124887
0.04085106382978723 0.6159327090617619 0.444245964387468
0.041063829787234045 0.6178844192898263 0.44313399944155474
0.04127659574468085 0.6189346996879672 0.4430874450415241
0.04148936170212766 0.6218413323915232 0.4411629352205022
0.04170212765957447 0.6209086468001954 0.44006701825131017
0.041914893617021276 0.6211272913859845 0.4350524838949142
0.04212765957446808 0.6246129635167992 0.4312610494183898
0.042340425531914895 0.6230112264042957 0.42949492784681925
0.0425531914893617 0.6238397655105032 0.4241401582149797
0.04276595744680851 0.6242969984974525 0.42165514809547133
0.04297872340425532 0.6241656951564465 0.4192041722870467
0.043191489361702126 0.6192964334179927 0.42252105636546516
0.04340425531914894 0.6176140703559724 0.42902197648718715
0.043617021276595745 0.615769444952582 0.4378308757535761
0.04382978723404255 0.6165011392485217 0.4464962540506712
0.044042553191489364 0.6146870457435795 0.4514251681712461
0.04425531914893617 0.6046005220923668 0.4554874114689424
0.044468085106382976 0.5986640648172116 0.4559026235175457
0.04468085106382979 0.590981271967202 0.4528213641868746
0.044893617021276595 0.5849243676987302 0.4496688541980659
0.0451063829787234 0.5752597119544186 0.4427496025454231
0.045319148936170214 0.5645807525318102 0.43427098754062426
0.04553191489361702 0.5520891758235416 0.42346006402852504
0.045744680851063826 0.5405844742187692 0.41541077246482283
0.04595744680851064 0.528813377099262 0.4130223490849288
0.046170212765957445 0.5164766707686409 0.4063597932139417
0.04638297872340425 0.5058855079640454 0.4032777366685296
0.046595744680851064 0.4938201545263221 0.4012253587620406
0.04680851063829787 0.4834469938901062 0.40580947814043794
0.047021276595744683 0.4725485065724893 0.4098135998660771
0.04723404255319149 0.46818485265079574 0.4128428785416862
0.047446808510638296 0.45409939374746394 0.4149908062203128
0.04765957446808511 0.4422371084529298 0.4191252757463745
0.047872340425531915 0.43106780772115916 0.4253332763318165
0.04808510638297872 0.4207084086882622 0.4318452424608412
0.048297872340425534 0.40895181036202416 0.438487426864985
0.04851063829787234 0.39341171715807627 0.4490018128075348
0.048723404255319146 0.37583552147015925 0.46115359770410724
0.04893617021276596 0.35877234399212565 0.47003754535009934
0.049148936170212765 0.34459477310000086 0.4764174522515554
0.04936170212765957 0.33602002239059575 0.4827391373553738
0.049574468085106384 0.32697306825627187 0.49122892941188423
0.04978723404255319 0.3202892544085185 0.4974928657673485
0.05 0.31906059670547204 0.49954889678005854
0.05021276595744681 0.32285514912318153 0.49878998629651666
0.050425531914893615 0.3240097737638643 0.49987689638233035
0.05063829787234043 0.3259547313080113 0.5000793351282367
0.050851063829787234 0.3304285965545411 0.49695448391112246
0.05106382978723404 0.33372783162111425 0.49236591566811516
0.05127659574468085 0.33447626642084993 0.4863784372702309
0.05148936170212766 0.3323540280343373 0.4805360971043365
0.051702127659574465 0.33170493404982904 0.47002032378786246
0.05191489361702128 0.33170493404982904 0.46694087717770877
0.052127659574468084 0.32977347454077677 0.4639611153785832
0.05234042553191489 0.32550739267999623 0.4580494702647312
0.0525531914893617 0.3221220433714085 0.45127877164755564
0.05276595744680851 0.3208617476599124 0.44553980815789124
0.05297872340425532 0.3198849460108379 0.43788591717747566
0.05319148936170213 0.31945856417276386 0.42338893468295863
0.053404255319148934 0.3190321823346899 0.4088919521884416
0.05361702127659575 0.31607249441978474 0.40681492356081445
0.05382978723404255 0.3129295539765659 0.40563632089460744
0.05404255319148936 0.3087441513644499 0.4113345762619077
0.05425531914893617 0.3032617457503391 0.4255888308585956
0.05446808510638298 0.3009866290341285 0.433181439856572
0.054680851063829784 0.300338395362989 0.437394958718979
0.0548936170212766 0.2996901616918495 0.44160847758138616
0.0551063829787234 0.3010124808878616 0.446962076670069
0.05531914893617021 0.30341977184140173 0.45292781977761826
0.05553191489361702 0.30734840390651413 0.45854015129920744
0.05574468085106383 0.3122911511153915 0.4632785763210195
0.055957446808510634 0.3199537926378544 0.4656731517967892
0.05617021276595745 0.3270226855255149 0.467513434294089
0.05638297872340425 0.3323146360524066 0.46774207254505556
0.056595744680851066 0.34004101028007866 0.4706069779010931
0.05680851063829787 0.3541327103898001 0.4750106341853812
0.05702127659574468 0.3658449811940344 0.4769745350797932
0.05723404255319149 0.3777322656968241 0.47662537215823486
0.0574468085106383 0.3904873397920723 0.4763067904250122
0.057659574468085104 0.40233644300250343 0.4796596435118687
0.05787234042553192 0.4163508016702372 0.48216902784562765
0.05808510638297872 0.4355168322301122 0.4797792150150761
0.05829787234042553 0.4570658483107743 0.47509464630188875
0.05851063829787234 0.47706960685393907 0.46783737609281484
0.05872340425531915 0.4991115972161483 0.45700023280162444
0.058936170212765954 0.5272772764803131 0.44765825406987214
0.05914893617021277 0.5518922266717052 0.4416797987304806
0.05936170212765957 0.5721328457588216 0.4336106125074046
0.059574468085106386 0.5924724798978749 0.4292766010764551
0.05978723404255319 0.6052940406348659 0.4288145693847602
0.06 0.6138093412883463 0.4320896850207142
0.06021276595744681 0.6164501183938886 0.4377200103476703
0.06042553191489362 0.6174466745302423 0.44492863411614514
0.06063829787234042 0.6177089189644749 0.45061054738949347
0.060851063829787236 0.6160234489496825 0.45509921552325805
0.06106382978723404 0.6153067693499061 0.45800339856338923
0.06127659574468085 0.6147045374417934 0.4574011666552765
0.06148936170212766 0.6149907978484469 0.4587200781631655
0.06170212765957447 0.612738157752651 0.4589277005242918
0.06191489361702127 0.6151706991840775 0.4591999585152773
0.062127659574468086 0.6160234489496825 0.45567514768792305
0.06234042553191489 0.6160234489496825 0.45408846545454973
0.0625531914893617 0.6172923393160903 0.45510377067906055
0.0627659574468085 0.617480907871362 0.4557889594528579
0.06297872340425532 0.6179341798467042 0.45672265077977703
0.06319148936170213 0.6151749614271345 0.457743038593063
0.06340425531914894 0.6126000260018059 0.4596920717965782
0.06361702127659574 0.611939621798149 0.46165119687347334
0.06382978723404255 0.6080270826722509 0.4611176646592694
0.06404255319148935 0.605560614638996 0.4606741573033708
0.06425531914893617 0.6042450413003129 0.4606741573033708
0.06446808510638298 0.6001314781477347 0.4596106718398328
0.06468085106382979 0.589436862058864 0.45604579981020915
0.06489361702127659 0.5815693361981359 0.45481191988275516
0.0651063829787234 0.573504290020221 0.45049859567030465
0.06531914893617022 0.5644549117810584 0.4446602844200846
0.06553191489361702 0.5549838654212346 0.4353547778475615
0.06574468085106383 0.5430634213703478 0.42256551659260094
0.06595744680851064 0.5302384980420974 0.41529973834574446
0.06617021276595744 0.5227501329230145 0.40930904625047804
0.06638297872340425 0.5088468904630069 0.4112523706332559
0.06659574468085107 0.4956754736328546 0.40747233334407595
0.06680851063829787 0.48360849560991936 0.40625827156682903
0.06702127659574468 0.47327879154649855 0.40770892458698976
0.06723404255319149 0.4659001996108402 0.406971065393424
0.06744680851063829 0.45091833751236843 0.4089334833533896
0.06765957446808511 0.4372161599848825 0.40986809965803617
0.06787234042553192 0.4254323019383879 0.41073488965010535
0.06808510638297872 0.41584989390236626 0.4148416359512574
0.06829787234042553 0.4060931103666605 0.41992114484508036
0.06851063829787234 0.3888548125900417 0.4289877101917592
0.06872340425531914 0.37185947992077856 0.43792157249977
0.06893617021276596 0.3581647847950182 0.4424505498871978
0.06914893617021277 0.34586481801542895 0.4435082305146788
0.06936170212765957 0.3357358690991532 0.446402215919329
0.06957446808510638 0.3296427930878806 0.44814309477969266
0.06978723404255319 0.32556136361856836 0.44894968246213973
0.06999999999999999 0.32305518762668195 0.44899755236473177
0.07021276595744681 0.3250799213314015 0.4496724635996383
0.07042553191489362 0.32847204804088287 0.4477355958558511
0.07063829787234042 0.33219062760911866 0.44487962632863287
0.07085106382978723 0.33426922041837587 0.4441867620588805
0.07106382978723404 0.3340150656207577 0.44220152319348976
0.07127659574468086 0.33407374139058016 0.44154809410186496
0.07148936170212766 0.3341817664198618 0.44233754864155905
0.07170212765957447 0.3325756791752532 0.44314059226386326
0.07191489361702127 0.33084009251894064 0.44400838559201977
0.07212765957446808 0.3272804450087997 0.44751193408255363
0.07234042553191489 0.3243841838973362 0.4422896875207507
0.0725531914893617 0.32232733349202414 0.44581721789227124
0.07276595744680851 0.31826142936536944 0.4447917379318744
0.07297872340425532 0.31569772431069365 0.44744352508061824
0.07319148936170213 0.3144839645339629 0.44956097928626176
0.07340425531914893 0.31302943355615 0.45047111614815843
0.07361702127659574 0.3112040853188077 0.4480235896154364
0.07382978723404256 0.3089634388614892 0.4433793579869522
0.07404255319148936 0.3058579867535739 0.4432648029668547
0.07425531914893617 0.30245288603915216 0.4445478687147295
0.07446808510638298 0.30119130214799994 0.43892874198062914
0.07468085106382978 0.30278383687318333 0.4382022471910112
0.0748936170212766 0.30094790076214595 0.4395575350726106
0.07510638297872341 0.3037334039906964 0.44722728866464007
0.07531914893617021 0.3066607975308033 0.4567938579030545
0.07553191489361702 0.3112231716298083 0.46959976479211707
0.07574468085106383 0.3141159220532375 0.4802065163446916
0.07595744680851063 0.3213150513437089 0.49340913622425464
0.07617021276595745 0.3285843463057144 0.5030806440859299
0.07638297872340426 0.3359666066392257 0.5067717742526856
0.07659574468085106 0.3448106281907573 0.5099595969264263
0.07680851063829787 0.3549902183769836 0.5132706287336029
0.07702127659574468 0.36492374700824537 0.5232041573648649
0.0772340425531915 0.3777613337057178 0.5216000580058863
0.0774468085106383 0.38981327799563603 0.5261873388847593
0.07765957446808511 0.4008855056672299 0.5303760809553364
0.07787234042553191 0.41409029135014735 0.5322787855041469
0.07808510638297872 0.43316852584918075 0.5313404616696176
0.07829787234042553 0.45282319220502143 0.522969092031793
0.07851063829787235 0.4710838955894339 0.5184039161856899
0.07872340425531915 0.4955862802908294 0.49880185955315676
0.07893617021276596 0.5210312651502246 0.48756038861020623
0.07914893617021276 0.5444447572093557 0.47105790866368497
0.07936170212765957 0.565705112644302 0.4595607473849043
0.07957446808510638 0.5862022058604364 0.44857460307457925
0.0797872340425532 0.6002713959267091 0.4426287802318059
0.08 0.6088866198078852 0.441133365901319
0.08021276595744681 0.6142507316798916 0.4403610982743077
0.08042553191489361 0.6168351156260853 0.436338453393704
0.08063829787234042 0.6184015076418856 0.42979613245840737
0.08085106382978724 0.6184948158433807 0.42417901326673274
0.08106382978723405 0.6184736007461663 0.4181200659053159
0.08127659574468085 0.6184251874202787 0.41104763583056897
0.08148936170212766 0.6196859708886889 0.4056360967860958
0.08170212765957446 0.6202994987011278 0.40461501033648833
0.08191489361702127 0.627613218128721 0.4037026333244185
0.08212765957446809 0.6248830259708466 0.40709265632760444
0.0823404255319149 0.6204470676650363 0.40529451332477917
0.0825531914893617 0.6252695124038006 0.407818651647212
0.08276595744680851 0.6267708842208108 0.4105001578843798
0.08297872340425531 0.6200780558028773 0.41168174278038033
0.08319148936170212 0.6180785750039262 0.41357416411036946
0.08340425531914894 0.6142979576597224 0.4174558283686117
0.08361702127659575 0.6159824675738473 0.42533680727633677
0.08382978723404255 0.6110213261323716 0.43140194518922564
0.08404255319148936 0.6051661890799317 0.43370143543567624
0.08425531914893616 0.6032231736899649 0.4404526088763677
0.08446808510638298 0.6010725845613892 0.4435115485104764
0.08468085106382979 0.5920701821874379 0.445463055008125
0.0848936170212766 0.583926126185177 0.44290653543239156
0.0851063829787234 0.5747800481221443 0.44211040547142155
0.08531914893617021 0.5653685727677552 0.44216202160309
0.08553191489361701 0.550933724595488 0.4430641996138566
0.08574468085106383 0.5380749882015761 0.43732430217172436
0.08595744680851064 0.5269156556514109 0.4332776108567111
0.08617021276595745 0.5166652690906862 0.4309320353866164
0.08638297872340425 0.5058796413311579 0.42380831744254044
0.08659574468085106 0.4973488370470673 0.4161874262886436
0.08680851063829788 0.4856686051867873 0.4121241726313566
0.08702127659574468 0.4718178239883559 0.4078348570477457
0.08723404255319149 0.4602935060421084 0.4042652767264725
0.0874468085106383 0.45109917428111546 0.40467893447068576
0.0876595744680851 0.4419610812395847 0.40229450504734016
0.08787234042553191 0.4313235958563339 0.40025710412409354
0.08808510638297873 0.41990267065200104 0.40205178309721545
0.08829787234042553 0.40946543704402305 0.40689898852303097
0.08851063829787234 0.3928802696520082 0.41908165594925006
0.08872340425531915 0.37632054478815935 0.4265324739308449
0.08893617021276595 0.36369072203294117 0.4307297941449557
0.08914893617021276 0.3492231812593942 0.43627098973489986
0.08936170212765958 0.3389698477015041 0.44075056787075745
0.08957446808510638 0.33388567446995093 0.4454909772594103
0.08978723404255319 0.326973127228048 0.45341805551280356
0.09 0.32261342771150486 0.4610441612639383
0.0902127659574468 0.3266805476202366 0.47449325962215966
0.09042553191489362 0.3311394815322248 0.482297888639324
0.09063829787234043 0.33435141182409345 0.49284981925469956
0.09085106382978723 0.3383594514384861 0.5013403000435572
0.09106382978723404 0.3346444824867696 0.5095092763552347
0.09127659574468085 0.3402801791492854 0.5164962794180985
0.09148936170212765 0.3356130923302394 0.519376687105595
0.09170212765957447 0.3350419440432416 0.5201919784672004
0.09191489361702128 0.3286740019084329 0.5193963449406145
0.09212765957446808 0.3270972647484173 0.5211129843048303
0.09234042553191489 0.32328543463581527 0.52557502342488
0.0925531914893617 0.323691755823094 0.5222655688011231
0.0927659574468085 0.319702278003464 0.5184619878941243
0.09297872340425532 0.31804184711105654 0.5147627919201536
0.09319148936170213 0.3138605664180292 0.5096371028569068
0.09340425531914893 0.31228485142904194 0.5032753564238407
0.09361702127659574 0.3109529653067677 0.4950966596028676
0.09382978723404255 0.3057977042674297 0.4889455801376233
0.09404255319148937 0.3003686249485102 0.48044590475140886
0.09425531914893617 0.29653150952613583 0.46996816282666726
0.09446808510638298 0.29461385385962996 0.4646187390574805
0.09468085106382979 0.2908705708778468 0.4574631811532207
0.09489361702127659 0.28969223253541765 0.4526267118610948
0.0951063829787234 0.28891774893691446 0.45420425196795705
0.09531914893617022 0.2953116682081002 0.44904000404531835
0.09553191489361702 0.29827113544198935 0.4471028299341102
0.09574468085106383 0.3057866420501345 0.44151981328408935
0.09595744680851064 0.3106081557332444 0.43854961559766936
0.09617021276595744 0.31913383707639764 0.42978805825118693
0.09638297872340426 0.32801008356484895 0.4199756115428739
0.09659574468085107 0.3325314912262816 0.40641138855857567
0.09680851063829787 0.3475888229059685 0.4022332290561166
0.09702127659574468 0.35512335693977876 0.3986474079981126
0.09723404255319149 0.3643439494856257 0.40361897560562643
0.09744680851063829 0.37674850672695653 0.408500829544292
0.09765957446808511 0.3906404285090054 0.41832411344312725
0.09787234042553192 0.4082222548539699 0.42736267939738604
0.09808510638297872 0.4225327834798838 0.43889512706331163
0.09829787234042553 0.4433865199508044 0.4498868346762594
0.09851063829787234 0.46614837187801683 0.45583204660418225
0.09872340425531914 0.490220681799176 0.460062020488757
0.09893617021276596 0.5189388044265567 0.46326505058678785
0.09914893617021277 0.540458710818598 0.4645168290436168
0.09936170212765957 0.5647145606877891 0.46458231558378116
0.09957446808510638 0.5801725376041075 0.46249985669433835
0.09978723404255319 0.5943278651184773 0.4565868468042325
0.1 0.6063790626324371 0.4537298724928355
0.10021276595744681 0.6122902226784208 0.44906630380157214
0.10042553191489362 0.6154710585647901 0.4518592222690682
0.10063829787234042 0.6188017794604916 0.45969711773326827
0.10085106382978723 0.6179775280898876 0.4608861557546092
0.10106382978723404 0.6184684998333654 0.4667867845125782
0.10127659574468086 0.6199316072300929 0.47129569840709257
0.10148936170212766 0.620531761990232 0.47397582647484354
0.10170212765957447 0.6228600779306276 0.47435535929458006
0.10191489361702127 0.6255574121280129 0.47202832862089833
0.10212765957446808 0.6288583272105275 0.46849917238889616
0.10234042553191489 0.6321214549064683 0.4617900785729149
0.1025531914893617 0.6351788392120044 0.45617436059258765
0.10276595744680851 0.6364100135211032 0.4560514922543253
0.10297872340425532 0.6331555712053947 0.45172136572721405
0.10319148936170212 0.6297114596653752 0.4499172652979858
0.10340425531914893 0.6273413067333155 0.4481364483469437
0.10361702127659575 0.6260358337021986 0.4462605528033223
0.10382978723404256 0.6222452715125991 0.4460185637518319
0.10404255319148936 0.6158314260753047 0.43876539128770253
0.10425531914893617 0.6094522650354808 0.4316310632768095
0.10446808510638297 0.5994048002677101 0.42718508258613536
0.10468085106382978 0.5951294744402036 0.42181732699472085
0.1048936170212766 0.5853129464216998 0.42215147359345223
0.1051063829787234 0.5728400299480371 0.4202702124651796
0.10531914893617021 0.55986573016991 0.4180635939767619
0.10553191489361702 0.5499834538543988 0.420981136614025
0.10574468085106382 0.537362431333101 0.4250526628929604
0.10595744680851064 0.5242378865734683 0.4308861101463553
0.10617021276595745 0.5100707445791431 0.42948669231303693
0.10638297872340426 0.5026590983624447 0.4352433680253659
0.10659574468085106 0.49323337808599693 0.42619486180655364
0.10680851063829787 0.479397378966247 0.42052469384703406
0.10702127659574467 0.47015747848838935 0.41913284972461795
0.1072340425531915 0.45954497147706047 0.4152442850640948
0.1074468085106383 0.4470310378866243 0.41145616716548317
0.1076595744680851 0.43736891333278305 0.40686512809179115
0.10787234042553191 0.4279866746306851 0.41012781470185217
0.10808510638297872 0.4158798799119727 0.4133485575174267
0.10829787234042552 0.40336279835828465 0.4208669979656506
0.10851063829787234 0.38478700639327706 0.4266338153708033
0.10872340425531915 0.3676438786202878 0.43488836845732065
0.10893617021276596 0.35397002643556 0.44019768987654206
0.10914893617021276 0.34127556361607597 0.4429642831564452
0.10936170212765957 0.3308298702117567 0.44555591381414344
0.10957446808510639 0.322442916910116 0.44769859483511915
0.1097872340425532 0.32001522298018803 0.44992672203224227
0.11 0.3162936289838195 0.44837742564281874
0.1102127659574468 0.31833859920138247 0.44282959330090566
0.11042553191489361 0.32309996335600166 0.4409449804642229
0.11063829787234042 0.32684147878742453 0.4385351745770816
0.11085106382978724 0.3299158191762783 0.44108262648904223
0.11106382978723404 0.3329835536976834 0.44321207151305725
0.11127659574468085 0.3327651474597844 0.4435135844466859
0.11148936170212766 0.3312386028488575 0.4481057743965153
0.11170212765957446 0.3322592097476578 0.45533796718497527
0.11191489361702127 0.3291337499192001 0.4628596724806857
0.11212765957446809 0.32436039407405753 0.4655593551538837
0.1123404255319149 0.3229115779189058 0.46815646130473104
0.1125531914893617 0.31944140438886653 0.46946751343429405
0.1127659574468085 0.3180263800683927 0.47242010789159533
0.11297872340425531 0.31491561158863823 0.47259797959476585
0.11319148936170213 0.3157540531962905 0.4732165478487559
0.11340425531914894 0.3169360152197142 0.4716482431316512
0.11361702127659574 0.31704934049829014 0.4686912207601244
0.11382978723404255 0.3084549568892099 0.4694454053763115
0.11404255319148936 0.30632738754595235 0.47340115403349514
0.11425531914893616 0.30679479221192407 0.4745602052499528
0.11446808510638298 0.3000831430404412 0.47764035476121974
0.11468085106382979 0.29750854909623836 0.48136203742615147
0.1148936170212766 0.2985503990018009 0.48767933563947824
0.1151063829787234 0.3018954571654837 0.4912310688596173
0.11531914893617021 0.30188925952541124 0.49545037894450744
0.11553191489361703 0.30716087118572516 0.4971306223186109
0.11574468085106383 0.3130420097763134 0.4978016609672691
0.11595744680851064 0.3204914172967084 0.4974574532874273
0.11617021276595745 0.32755849481287713 0.4949777248632641
0.11638297872340425 0.3340810991714237 0.49193942354665365
0.11659574468085106 0.34417848096256065 0.4914888983447027
0.11680851063829788 0.35380879187317754 0.4889712379144874
0.11702127659574468 0.36275312650531233 0.486511416711639
0.11723404255319149 0.3736822522803243 0.4866610509825053
0.1174468085106383 0.38582388946477886 0.48330781580818694
0.1176595744680851 0.3985770647901251 0.47987387454634756
0.11787234042553191 0.41415256524655053 0.4764569734905119
0.11808510638297873 0.42754785882009466 0.4738486836830537
0.11829787234042553 0.44846229500534235 0.4733756717147044
0.11851063829787234 0.47249925852648916 0.46928370967638383
0.11872340425531915 0.48899352468952356 0.4659531270112892
0.11893617021276595 0.5139790285353453 0.4620183329140692
0.11914893617021277 0.5396426517135633 0.4532713908643092
0.11936170212765958 0.5619635138240865 0.4490083658748586
0.11957446808510638 0.5832076016263898 0.44401068487026746
0.11978723404255319 0.598515628818603 0.44239198725832013
0.12 0.6124800823462042 0.44565377207489987
0.1202127659574468 0.6165387104181037 0.44236803620563214
0.12042553191489362 0.620273882913636 0.4437222089280836
0.12063829787234043 0.6212507241777628 0.4416870973430648
0.12085106382978723 0.6192119195007254 0.43964162264974593
0.12106382978723404 0.6208477559889444 0.43484303507522204
0.12127659574468085 0.6214578245794075 0.42534745987839306
0.12148936170212765 0.6189545676599901 0.4185666115113284
0.12170212765957447 0.6216162611963011 0.41225529020341173
0.12191489361702128 0.6242483058361115 0.4110272537689838
0.12212765957446808 0.6235236499967253 0.412799218368344
0.12234042553191489 0.6262351732372077 0.41544718988734025
0.1225531914893617 0.6243418042133447 0.42157635179791886
0.12276595744680852 0.6244700043711527 0.425040556809746
0.12297872340425532 0.6262274954639632 0.42821767656391607
0.12319148936170213 0.627514776796822 0.43325415087371316
0.12340425531914893 0.6250523743228813 0.43465903030768094
0.12361702127659574 0.6195944997733762 0.433640443677196
0.12382978723404255 0.617291149269587 0.4353761858014004
0.12404255319148937 0.6104585940266896 0.4369750452167056
0.12425531914893617 0.6043940518947812 0.4387504398185407
0.12446808510638298 0.5985068823505006 0.43917928676111373
0.12468085106382978 0.5932418832468525 0.4383357239869376
0.12489361702127659 0.5820165197280217 0.44260140533234393
0.1251063829787234 0.5698214689485912 0.4403303061721747
0.12531914893617022 0.5588829740955457 0.4412344921721862
0.125531914893617 0.5477340877409079 0.44102282469761345
0.12574468085106383 0.5358212907132363 0.43648375575609444
0.12595744680851065 0.5248998161695652 0.4326531397702638
0.12617021276595744 0.5139453069684907 0.43012461175320355
0.12638297872340426 0.5012851690945522 0.42757847168003243
0.12659574468085105 0.49072616315216555 0.42530628671430193
0.12680851063829787 0.4787344510135795 0.42922756343277985
0.1270212765957447 0.46636605072740145 0.43171512893314445
0.12723404255319148 0.4582708695955478 0.432348745596492
0.1274468085106383 0.44805589916507066 0.4345151417353378
0.1276595744680851 0.4379368117266945 0.43608062243983536
0.12787234042553192 0.43149933861068 0.43079952800083
0.1280851063829787 0.42269410133270374 0.4246569828668059
0.12829787234042553 0.41047688355494416 0.4231702417913625
0.12851063829787235 0.3975890854328935 0.4229027416437237
0.12872340425531914 0.3851596445073323 0.42324451260761636
0.12893617021276596 0.37236402574333577 0.42636816944923395
0.12914893617021275 0.3651154264480586 0.43414543219808654
0.12936170212765957 0.352144074844841 0.44096943405815536
0.1295744680851064 0.3443127458637579 0.44294022221274115
0.12978723404255318 0.33903962876213134 0.4536229173509532
0.13 0.3312354588729099 0.4575527019456192
0.1302127659574468 0.3316858767100632 0.4548690919020526
0.13042553191489362 0.3355626822216284 0.45967191267896274
0.13063829787234044 0.33386039243368976 0.4587200781631655
0.13085106382978723 0.33740422440525514 0.4587200781631655
0.13106382978723405 0.3427882715789311 0.459681784131359
0.13127659574468084 0.33931013980224856 0.463526761541775
0.13148936170212766 0.3369920308809974 0.45866233096023507
0.13170212765957448 0.3329875313656919 0.4557889594528579
0.13191489361702127 0.3317898034026668 0.45423128463005175
0.1321276595744681 0.3269813570853808 0.45226279274240794
0.13234042553191488 0.3240108798548213 0.45635881092238423
0.1325531914893617 0.3204728169547491 0.4594483802194593
0.1327659574468085 0.31587663754965284 0.4659519592335247
0.13297872340425532 0.3147356496583255 0.47321965107329694
0.13319148936170214 0.313023301703982 0.48154562981721855
0.13340425531914893 0.3122387067154758 0.48427223512123
0.13361702127659575 0.31313333312172614 0.4860614879337307
0.13382978723404254 0.3084877471401875 0.4851464991104996
0.13404255319148936 0.3074172225126706 0.4800675754277577
0.13425531914893618 0.30442371936802975 0.47709649006339405
0.13446808510638297 0.2995372563409143 0.4737511036410525
0.1346808510638298 0.30163310231044427 0.4700417445936271
0.13489361702127659 0.30074025919831104 0.4674597404674356
0.1351063829787234 0.2986268644013892 0.4650453076504518
0.13531914893617022 0.30098896565625144 0.4624451371603408
0.13553191489361702 0.3034868145510528 0.4616976080871529
0.13574468085106384 0.3074367725546623 0.46327759128859675
0.13595744680851063 0.31293860505049137 0.4659465863552409
0.13617021276595745 0.32164317440824736 0.4662026405340749
0.13638297872340424 0.333347611124691 0.4640490343501849
0.13659574468085106 0.3429215752675773 0.47043167711210904
0.13680851063829788 0.3524054240469001 0.4722061662819129
0.13702127659574467 0.3624096840897441 0.4707408783177641
0.1372340425531915 0.3749866987923009 0.4723130051555838
0.13744680851063829 0.3869286559051963 0.4728676713612998
0.1376595744680851 0.398834031736703 0.47336372868761256
0.13787234042553193 0.41150288728471784 0.4726877704426039
0.13808510638297872 0.42923422486485807 0.4708327761175889
0.13829787234042554 0.4511145649729718 0.46483133554739753
0.13851063829787233 0.47318194997260254 0.45586160510614593
0.13872340425531915 0.49437393189094786 0.44791461188676646
0.13893617021276597 0.5183612304004891 0.4410544698037765
0.13914893617021276 0.541485821318478 0.4359138762834465
0.13936170212765958 0.5620564605762284 0.43370019832043316
0.13957446808510637 0.5798963216646713 0.4327729530899533
0.1397872340425532 0.5972276078267513 0.43501073556520803
0.13999999999999999 0.6119368632003118 0.4398037829024749
0.1402127659574468 0.6108645750041413 0.44355679158907163
0.14042553191489363 0.6104175348209209 0.4478128267948101
0.14063829787234042 0.6113002507793976 0.4530198404227784
0.14085106382978724 0.616268346989957 0.4579879366333377
0.14106382978723403 0.6174280750698647 0.4607960237733139
0.14127659574468085 0.6177685205942982 0.46011513272444704
0.14148936170212767 0.6199718012122886 0.4571326984616839
0.14170212765957446 0.6238397655105032 0.45475056954804216
0.14191489361702128 0.6238397655105032 0.45389884356947224
0.14212765957446807 0.6271882372494569 0.4463008189000069
0.1423404255319149 0.6308202293375279 0.44196921863511507
0.1425531914893617 0.6342805869041163 0.43850886106852666
0.1427659574468085 0.6355642403517343 0.43329907270707585
0.14297872340425533 0.6350511574840159 0.4293597648947538
0.14319148936170212 0.6317720500162755 0.4260858925188552
0.14340425531914894 0.6303383961887051 0.42556344467408364
0.14361702127659573 0.6316561823226111 0.4287574979295905
0.14382978723404255 0.6294989360409686 0.43001809173053795
0.14404255319148937 0.6287067381602881 0.4323454773306142
0.14425531914893616 0.61962953067371 0.4350686395765874
0.14446808510638298 0.6088473359422794 0.4344288591708942
0.14468085106382977 0.6025712227659985 0.43429408891060084
0.1448936170212766 0.5922786936179095 0.4356924214921754
0.1451063829787234 0.5867097922087025 0.4388568997549495
0.1453191489361702 0.5723398027915673 0.4390400413741385
0.14553191489361703 0.5555896008580418 0.439039331158011
0.14574468085106382 0.5427058116072121 0.440682703379908
0.14595744680851064 0.5305918483565105 0.44221857451483304
0.14617021276595746 0.5192669354015084 0.44308900273141977
0.14638297872340425 0.5050769185183408 0.4438358457252708
0.14659574468085107 0.4950116103718895 0.4430242720105927
0.14680851063829786 0.4842350473133464 0.44143389993105664
0.14702127659574468 0.4699519701863512 0.43874656687836516
0.14723404255319147 0.45691922245639505 0.4333801413425008
0.1474468085106383 0.44313620681211235 0.42735401524825223
0.14765957446808511 0.436529689816258 0.42417593430724965
0.1478723404255319 0.42631016344545847 0.4257868948982836
0.14808510638297873 0.41526509258558103 0.42164686173501015
0.14829787234042552 0.40282945671455284 0.41963849535906195
0.14851063829787234 0.38790482017257805 0.4233666218358718
0.14872340425531916 0.3721110551121763 0.4298648091202081
0.14893617021276595 0.3581932481761077 0.43425990604738757
0.14914893617021277 0.34620397526700475 0.4368400233053711
0.14936170212765956 0.3373283220500951 0.4478423972375101
0.14957446808510638 0.3298995261559441 0.45293336264004586
0.1497872340425532 0.3236705845030742 0.4556966907064863
0.15 0.3192313872939479 0.45931717164084745
0.15021276595744681 0.3215877687729528 0.45538986917583896
0.1504255319148936 0.32259892143056945 0.45016123831039107
0.15063829787234043 0.3249206638732762 0.44546128544907404
0.15085106382978725 0.3291660965648462 0.4447634167311885
0.15106382978723404 0.33338572693067303 0.44892914479980106
0.15127659574468086 0.33176596100177647 0.4545983255509392
0.15148936170212765 0.3301465350659455 0.46338311429411433
0.15170212765957447 0.32668244049618583 0.4655593551538837
0.15191489361702126 0.3225463048912606 0.46787870732173403
0.15212765957446808 0.3188828153979301 0.47093917561223825
0.1523404255319149 0.3181093171072841 0.4678451824496544
0.1525531914893617 0.3173045839758355 0.46534804601641727
0.15276595744680851 0.31704934049829014 0.4582342094858233
0.1529787234042553 0.3154949926206818 0.4488165362607684
0.15319148936170213 0.31216414264777725 0.4393010763318659
0.15340425531914895 0.31216414264777725 0.4306619956204223
0.15361702127659574 0.31276283968761853 0.4284318514899854
0.15382978723404256 0.3105599698798215 0.43273387205341596
0.15404255319148935 0.30648574479335616 0.4429614472144605
0.15425531914893617 0.30434782608695654 0.4570507337047713
0.154468085106383 0.30434782608695654 0.4671790481276059
0.15468085106382978 0.29713175073109127 0.4766835887901593
0.1548936170212766 0.2952223687806095 0.488989040880177
0.1551063829787234 0.3000044544452871 0.5022516454565229
0.15531914893617021 0.3034443806395446 0.5056915716507804
0.155531914893617 0.3068843068338016 0.5091314978450373
0.15574468085106383 0.3125401238384936 0.5104029989820384
0.15595744680851065 0.31848309745051195 0.5113934945840415
0.15617021276595744 0.3258032319771136 0.5061375052540769
0.15638297872340426 0.33348634602224875 0.49998203210208086
0.15659574468085105 0.34393800749885356 0.4902271480572498
0.15680851063829787 0.3539115859276169 0.4824137418682727
0.1570212765957447 0.3636546980507621 0.4755362509578172
0.15723404255319148 0.37466148517799425 0.473288942223523
0.1574468085106383 0.3859046229198379 0.47148418179556323
0.1576595744680851 0.3987042028316912 0.4720406852699916
0.15787234042553192 0.413470351911374 0.47174529504823726
0.15808510638297874 0.43150297454225306 0.4704445530043966
0.15829787234042553 0.4484248720231037 0.4707170772176139
0.15851063829787235 0.4659508596857873 0.47085307057881576
0.15872340425531914 0.4899979389450996 0.4676455926061063
0.15893617021276596 0.5179246862694065 0.4597290219547988
0.15914893617021275 0.5426613767229571 0.44640381760742986
0.15936170212765957 0.5649792377893577 0.4323006229166258
0.1595744680851064 0.5823411454468537 0.42341622176666094
0.15978723404255318 0.5959715589754486 0.41333661590450466
0.16 0.6083800482895297 0.4061430809207269
0.1602127659574468 0.6146635746848775 0.4095704589545528
0.16042553191489362 0.6159511081608667 0.4139932803048934
0.16063829787234044 0.6168128999038899 0.42244847085276227
0.16085106382978723 0.6198205569931864 0.43287284839287293
0.16106382978723405 0.6209086468001954 0.44192655625172445
0.16127659574468084 0.6217678340568237 0.45312776643180724
0.16148936170212766 0.6249874333335568 0.46182182512642445
0.16170212765957448 0.6269310983238358 0.4690748556527088
0.16191489361702127 0.6261990776111314 0.4753297508549097
0.1621276595744681 0.6298959154231338 0.47572037975520004
0.16234042553191488 0.6364467609864928 0.47593487838404
0.1625531914893617 0.6373940171369598 0.47429056010731724
0.1627659574468085 0.6352688704414644 0.47073992291466654
0.16297872340425532 0.6384953590620419 0.467513434294089
0.16319148936170214 0.6384953590620419 0.46413008766805747
0.16340425531914893 0.6366478606446027 0.45468756330334126
0.16361702127659575 0.6302883908311744 0.44706112232859463
0.16382978723404254 0.6264033621917837 0.4379960555033496
0.16404255319148936 0.6205058735290452 0.4295520642038842
0.16425531914893618 0.6142000071774145 0.4222770503362244
0.16446808510638297 0.610441308667946 0.4169874737876335
0.1646808510638298 0.6026391117552923 0.40974760151984974
0.16489361702127658 0.5891884505837389 0.40737395543075205
0.1651063829787234 0.5799103134852674 0.40542543686743127
0.16531914893617022 0.5679114445378811 0.404268083151966
0.16553191489361702 0.5537283070536929 0.40330505925871707
0.16574468085106384 0.537616470781663 0.39880472123165567
0.16595744680851063 0.5188745518300841 0.3950515051975708
0.16617021276595745 0.5071357809702477 0.39493530132735727
0.16638297872340424 0.4926202316348146 0.39450540573454596
0.16659574468085106 0.47723334726025757 0.3963950501375919
0.16680851063829788 0.46413406591532713 0.3998070440465247
0.16702127659574467 0.45498190208681005 0.4046111552619565
0.1672340425531915 0.445977882578045 0.41015675472649343
0.16744680851063828 0.43363405054939297 0.41420533999683007
0.1676595744680851 0.42099752527841455 0.41859601457945533
0.16787234042553192 0.4094169551642934 0.42290313546588576
0.16808510638297872 0.3971122066741241 0.42518993722265885
0.16829787234042554 0.3875072790741081 0.4325564972808135
0.16851063829787233 0.37303098704980414 0.4361755702868894
0.16872340425531915 0.35861961214238663 0.441704840130417
0.16893617021276597 0.3454694202107089 0.4479726428920372
0.16914893617021276 0.336490128577928 0.44806239646641355
0.16936170212765958 0.32579654383701007 0.44893942628609457
0.16957446808510637 0.31766847576746676 0.447133188937307
0.1697872340425532 0.31874472884054894 0.44699560332193444
0.17 0.314122765789961 0.44374183408957824
0.1702127659574468 0.31783679227533157 0.43839183498407247
0.17042553191489362 0.32282358670119066 0.43340504055821344
0.17063829787234042 0.32845305536449754 0.4285363115408212
0.17085106382978724 0.33267643889638177 0.42599201992650376
0.17106382978723403 0.3343417211899558 0.4255007327796776
0.17127659574468085 0.3372511280125573 0.4294233456583082
0.17148936170212767 0.3360558047911005 0.43447347801210157
0.17170212765957446 0.33463605276013686 0.44390325639374284
0.17191489361702128 0.33463605276013686 0.4550840572152892
0.17212765957446807 0.3333426965029201 0.46455422607502106
0.1723404255319149 0.33015903210060343 0.47371874379466455
0.1725531914893617 0.32713725511031366 0.48318279167139483
0.1727659574468085 0.32455332213086635 0.4892661797360152
0.17297872340425532 0.32136305380875363 0.49099923198158113
0.17319148936170212 0.32242182771210887 0.49454404211909686
0.17340425531914894 0.32036870643499615 0.4929164631167562
0.17361702127659576 0.3225281220796951 0.49349164687557223
0.17382978723404255 0.31871453869226385 0.4982009386449087
0.17404255319148937 0.3141400403227783 0.4890519419059378
0.17425531914893616 0.30865235984457695 0.4826314659023727
0.17446808510638298 0.3055553124781988 0.47766790803034753
0.17468085106382977 0.30294907952960876 0.4741161151585144
0.1748936170212766 0.30603705305253787 0.46900370438776073
0.1751063829787234 0.30727894479726436 0.46537317136163653
0.1753191489361702 0.31015725000107647 0.4667410444866403
0.17553191489361702 0.3119158110720032 0.46532731031110336
0.17574468085106382 0.3158182240644746 0.4667747644337996
0.17595744680851064 0.32251028562614165 0.4709265249989961
0.17617021276595746 0.3285893497564323 0.4742604784932626
0.17638297872340425 0.33774188805496624 0.47357625246109974
0.17659574468085107 0.34824804839140633 0.47187175222910654
0.17680851063829786 0.3579915963719244 0.46950487586256395
0.17702127659574468 0.3685958850347147 0.46610701310868824
0.1772340425531915 0.38173967566971406 0.4631733154767069
0.1774468085106383 0.39621001407480383 0.4589072987179046
0.1776595744680851 0.40886630001555263 0.4567610470084843
0.1778723404255319 0.4210290452606677 0.4589173772858079
0.17808510638297873 0.444626384427625 0.4608838222163877
0.17829787234042552 0.4630997052604559 0.46245683382545627
0.17851063829787234 0.4795898474602399 0.4630005023492946
0.17872340425531916 0.5046946235995702 0.4583759383236284
0.17893617021276595 0.5272292016755415 0.45504163557463156
0.17914893617021277 0.5483472129113485 0.4528578407425501
0.17936170212765956 0.5691371220585811 0.4531380970458006
0.17957446808510638 0.588412117420866 0.4550159025516665
0.1797872340425532 0.6019888371895775 0.4566451089239119
0.18 0.613256873615776 0.45895368003112386
0.1802127659574468 0.6197538144459226 0.4626662176483504
0.1804255319148936 0.6240870398595887 0.4659763638516078
0.18063829787234043 0.6207806199603131 0.4678657466511938
0.18085106382978725 0.6180615022754834 0.4695514876198898
0.18106382978723404 0.6186131383902326 0.470103123734639
0.18127659574468086 0.6194257584857595 0.4697377667657425
0.18148936170212765 0.6206622828075208 0.46788298028310094
0.18170212765957447 0.620223600670869 0.46545829590610965
0.18191489361702126 0.6179900113492297 0.46458231558378116
0.18212765957446808 0.6170004885197851 0.4626618039312705
0.1823404255319149 0.615133236874388 0.46102877965834105
0.1825531914893617 0.6153216000881655 0.45503912104927374
0.1827659574468085 0.6140998022003695 0.44867472325692587
0.1829787234042553 0.610478309522795 0.44307457224706503
0.18319148936170213 0.6052613689433297 0.4378643633882902
0.18340425531914895 0.6039433216009845 0.43314123273762767
0.18361702127659574 0.6002097420018517 0.4290262661393789
0.18382978723404256 0.5974596971177333 0.42689540732560816
0.18404255319148935 0.5948074869929151 0.42700821437474373
0.18425531914893617 0.5910416574099819 0.4279657592056289
0.184468085106383 0.5877077223164151 0.4313353388507316
0.18468085106382978 0.5826217757351188 0.4347388669879413
0.1848936170212766 0.5746984531767488 0.4364158990558948
0.1851063829787234 0.5668043688333785 0.43685810600973424
0.1853191489361702 0.5616159021580522 0.4333170493404983
0.185531914893617 0.5517802427730166 0.4333170493404983
0.18574468085106383 0.5407118103739306 0.43165135288680884
0.18595744680851065 0.5308390992550885 0.4265640360063995
0.18617021276595744 0.5197357294287894 0.4223903335190901
0.18638297872340426 0.5126953337625949 0.4192690151959042
0.18659574468085105 0.5020480975474038 0.41237337752142494
0.18680851063829787 0.4920496374545299 0.4100745289628443
0.1870212765957447 0.4815614426819208 0.4083364811626674
0.18723404255319148 0.4683759364389809 0.40403474455485267
0.1874468085106383 0.4640451969482653 0.40454298087293655
0.1876595744680851 0.455035235269666 0.4078395820555275
0.18787234042553191 0.4409953667040341 0.4072582449176716
0.18808510638297873 0.42598177088004535 0.4071521111695665
0.18829787234042553 0.4115281639072888 0.40923634093736466
0.18851063829787235 0.3970691839852277 0.4116266640505024
0.18872340425531914 0.3808214084293337 0.4166544774738791
0.18893617021276596 0.36355383609746206 0.42169254290177494
0.18914893617021278 0.34949687646508104 0.4329311446321497
0.18936170212765957 0.33991652812507733 0.4287898589088623
0.1895744680851064 0.327821782887139 0.43623277905528596
0.18978723404255318 0.3220113219658732 0.4391408949525787
0.19 0.32004424973879897 0.4439050082861243
0.1902127659574468 0.31998045920859797 0.44406448461162684
0.19042553191489361 0.32477975615780785 0.44406448461162684
0.19063829787234043 0.3283835420286562 0.4446996959614875
0.19085106382978723 0.33217946628700323 0.4450415241817294
0.19106382978723405 0.3360756890711834 0.4448873252680814
0.19127659574468084 0.3384240139125892 0.4441045503209462
0.19148936170212766 0.3385442110405472 0.44406448461162684
0.19170212765957448 0.3377537765661797 0.4456453535603615
0.19191489361702127 0.3338815165920905 0.446545085877311
0.1921276595744681 0.33016597006621984 0.44727656552868783
0.19234042553191488 0.3284476191919063 0.4478095448182297
0.1925531914893617 0.3267443125617866 0.44718416241575837
0.19276595744680852 0.32322856702956987 0.4559735262463003
0.19297872340425531 0.32444942632539836 0.4659930894619164
0.19319148936170213 0.3224169143962458 0.47142896505962956
0.19340425531914893 0.3189187085581279 0.47770130949013573
0.19361702127659575 0.314672331006216 0.4910937310000117
0.19382978723404254 0.31042595345430474 0.5044861525098859
0.19404255319148936 0.30674579510948213 0.5156908929096906
0.19425531914893618 0.3046864728232426 0.5206332663966652
0.19446808510638297 0.3026271505370034 0.5255756398836392
0.1946808510638298 0.30100224114666896 0.528918820100409
0.19489361702127658 0.3025917440669793 0.5287527210243947
0.1951063829787234 0.305198976705852 0.5264834033143113
0.19531914893617022 0.3045194501639427 0.5230857706047648
0.19553191489361701 0.30872224923553176 0.5158648529128155
0.19574468085106383 0.31457482298795425 0.5073520183638374
0.19595744680851063 0.31802747233071915 0.5001441529583974
0.19617021276595745 0.32393927813436973 0.49371591009780225
0.19638297872340427 0.33390264023621175 0.48852003818983375
0.19659574468085106 0.34293413977450693 0.4848248491539073
0.19680851063829788 0.34914212998113786 0.4812774261786895
0.19702127659574467 0.36065113939102894 0.4787578111870922
0.1972340425531915 0.37306393180048575 0.4768189079213068
0.19744680851063828 0.38587338393179643 0.47488761663158935
0.1976595744680851 0.39655673938484504 0.47255109361006625
0.19787234042553192 0.4079673748425027 0.4669906153003201
0.19808510638297872 0.4252678938754109 0.4570204517145829
0.19829787234042554 0.4476775027498636 0.44518909425281605
0.19851063829787233 0.46937314152100795 0.43434127486724394
0.19872340425531915 0.4926299198744138 0.4215690925306522
0.19893617021276597 0.5177548017025165 0.4064941634337905
0.19914893617021276 0.5413623887330414 0.3987132533159681
0.19936170212765958 0.5623832907636763 0.3946611276499841
0.19957446808510637 0.5790572945052141 0.3958521279172368
0.1997872340425532 0.5944463653143894 0.40443085372330767
0.2 0.6061431698551804 0.41554521292766083
0.2002127659574468 0.6093282357791283 0.42563125502016286
0.20042553191489362 0.6113088142327703 0.43409198033790575
0.20063829787234042 0.6117038941106817 0.440413258384488
0.20085106382978724 0.6120989739885933 0.44673453643107114
0.20106382978723403 0.613348634089842 0.4525456487144988
0.20127659574468085 0.6136807497212967 0.45384585901195523
0.20148936170212767 0.6127970382170514 0.44942730149072824
0.20170212765957446 0.6125255154054747 0.4441315299653003
0.20191489361702128 0.6143204907320212 0.4358746434631861
0.20212765957446807 0.6161154660585675 0.427617756961073
0.2023404255319149 0.618839212395094 0.4255386045043903
0.2025531914893617 0.6224662837679812 0.4294679318250182
0.2027659574468085 0.626093355140868 0.43339725914564553
0.20297872340425532 0.6284328095661551 0.43683247564052813
0.20319148936170212 0.6273683174622485 0.4389614598483411
0.20340425531914894 0.6263038253583418 0.44109044405615444
0.20361702127659576 0.6244674136897501 0.441049260702655
0.20382978723404255 0.6219210723633011 0.43901218764149574
0.20404255319148937 0.6233284789135337 0.43889362779482216
0.20425531914893616 0.6273454651526154 0.44004133814884555
0.20446808510638298 0.6186326733783084 0.4408574994398784
0.20468085106382977 0.6101125602754642 0.4389405440772676
0.2048936170212766 0.6024120945980745 0.4385055271711027
0.2051063829787234 0.5957635253733602 0.4394778576334672
0.2053191489361702 0.5874004160354389 0.4378978893538476
0.20553191489361702 0.5721524990611582 0.43722520762090866
0.20574468085106382 0.5583646347764125 0.43745589219841613
0.20595744680851064 0.5426662300215473 0.4388969479327225
0.20617021276595746 0.5291690389289245 0.44089548799119166
0.20638297872340425 0.5145553575607845 0.4401563263312165
0.20659574468085107 0.5021666258278978 0.4405369897358456
0.20680851063829786 0.4894322689442239 0.4433639827726364
0.20702127659574468 0.4764328815113224 0.4476202366047616
0.2072340425531915 0.4661861418980301 0.4416642828597426
0.2074468085106383 0.4556700083025494 0.4455597817543578
0.2076595744680851 0.44065170989274643 0.4481774318616647
0.2078723404255319 0.42808164596142617 0.4415226921333187
0.20808510638297872 0.41602752183588015 0.43359794952397196
0.20829787234042554 0.40424271769857295 0.4213803860855602
0.20851063829787234 0.3870360120424863 0.40785730417961813
0.20872340425531916 0.3719715896968178 0.3985416551355673
0.20893617021276595 0.3564738592049352 0.39745416111423204
0.20914893617021277 0.34434762064182917 0.3993278378647948
0.20936170212765956 0.3353333945344822 0.40526259960328037
0.20957446808510638 0.3272421525576046 0.4178166230723826
0.2097872340425532 0.32020330583529194 0.4292619510500675
0.21 0.31654565374721627 0.4363391698469416
0.2102127659574468 0.31706885386899264 0.43967756323151636
0.2104255319148936 0.32345505690048026 0.4396628102555721
0.21063829787234042 0.329260574775848 0.44161308394274795
0.21085106382978724 0.3326607572359622 0.443094517169514
0.21106382978723404 0.3375213769832892 0.44258747663468395
0.21127659574468086 0.3368176301213489 0.4430874450415241
0.21148936170212765 0.3336590131900341 0.44564871750867713
0.21170212765957447 0.3312259150573233 0.45138278059485054
0.2119148936170213 0.3265726828859555 0.4575661288705475
0.21212765957446808 0.3244063014904496 0.4642523810154802
0.2123404255319149 0.3263038207910285 0.46984770566272804
0.2125531914893617 0.3166015617202451 0.47900716752862565
0.2127659574468085 0.3133880350372903 0.4847524782672528
0.2129787234042553 0.30937712875261836 0.49461402676260335
0.21319148936170212 0.3096932704595424 0.4989078987993792
0.21340425531914894 0.3063019052271616 0.49975574010747437
0.21361702127659574 0.30609379224448263 0.49947825613056906
0.21382978723404256 0.30071830714907927 0.4923109426700311
0.21404255319148935 0.2967163985808436 0.48821615432095106
0.21425531914893617 0.29653150952613583 0.485548741747829
0.214468085106383 0.2941576708242276 0.4795611895848163
0.21468085106382978 0.2974453950198297 0.4797988712468181
0.2148936170212766 0.2999406414169157 0.48385258058185937
0.2151063829787234 0.3004396678065462 0.4837726971349084
0.2153191489361702 0.30395539803592075 0.486661797645105
0.21553191489361703 0.3057958952417676 0.4864782549093755
0.21574468085106382 0.3091303803488957 0.4858528863912132
0.21595744680851064 0.31670403579722917 0.4880607025327835
0.21617021276595744 0.32148774253880064 0.4808851424204262
0.21638297872340426 0.329830065616533 0.47088387102537815
0.21659574468085105 0.33835558253175685 0.46231262612491575
0.21680851063829787 0.3487797676409042 0.45379838957956437
0.2170212765957447 0.3642468394519603 0.4433028765649191
0.21723404255319148 0.3758732648069492 0.4379739300586271
0.2174468085106383 0.3838685248888493 0.43752974894296603
0.2176595744680851 0.3930289734214403 0.43575372572668525
0.2178723404255319 0.40565544158510497 0.4310411010592814
0.21808510638297873 0.43228995583891056 0.42584412266829497
0.21829787234042553 0.45892447009271264 0.4206471442773092
0.21851063829787234 0.4853812043326854 0.4159675193653533
0.21872340425531914 0.5087180244782585 0.42036708381902693
0.21893617021276596 0.5320548446238347 0.42476664827270116
0.21914893617021278 0.5553916647694109 0.42916621272637534
0.21936170212765957 0.5787284849149841 0.433565777180049
0.2195744680851064 0.6020653050605602 0.4379653416337232
0.21978723404255318 0.6060695338958464 0.4399194967894473
0.22 0.6089735048353536 0.4417344786266393
0.2202127659574468 0.6118774757748605 0.4435494604638311
0.2204255319148936 0.6147814467143677 0.4453644423010231
0.22063829787234043 0.617685417653875 0.44717942413821515
0.22085106382978723 0.6205893885933818 0.4489944059754069
0.22106382978723405 0.623493359532889 0.45080938781259894
0.22127659574468084 0.6263973304723959 0.4526243696497907
0.22148936170212766 0.6266516977772599 0.4528578407425501
0.22170212765957448 0.6265149163920901 0.4528578407425501
0.22191489361702127 0.6263781350069203 0.4528578407425501
0.2221276595744681 0.6262413536217505 0.4528578407425501
0.22234042553191488 0.6261045722365807 0.4528578407425501
0.2225531914893617 0.6259677908514109 0.4528578407425501
0.22276595744680852 0.625831009466241 0.4528578407425501
0.2229787234042553 0.6263381787972557 0.45340217488909745
0.22319148936170213 0.6270855923935205 0.45414958848536213
0.22340425531914893 0.6270792543990595 0.4554137223354238
0.22361702127659575 0.6212052572350678 0.4607003197830164
0.22382978723404254 0.6160915889819953 0.4625275965234545
0.22404255319148936 0.6119053157502315 0.46013544039101806
0.22425531914893618 0.6079570530751013 0.46096959694289547
0.22446808510638297 0.600325228820284 0.4598272508955126
0.2246808510638298 0.591409895565031 0.457743038593063
0.22489361702127658 0.5854148109059225 0.457743038593063
0.2251063829787234 0.5758313142043406 0.4554716588982183
0.22531914893617022 0.5632674816570706 0.4520361678132342
0.225531914893617 0.5500811913801453 0.4477570630544219
0.22574468085106383 0.5421431754956312 0.44126232278527405
0.22595744680851063 0.5279434634857942 0.4377090999376948
0.22617021276595745 0.5156551998293154 0.43498861225526614
0.22638297872340427 0.5056182849086872 0.4308746425281152
0.22659574468085106 0.49381100878611883 0.4235241553029069
0.22680851063829788 0.4848499289327104 0.42108022443379556
0.22702127659574467 0.4726962983395765 0.41930931379464537
0.2272340425531915 0.4637415960717224 0.4158325771221845
0.22744680851063828 0.45433749060992823 0.412799218368344
0.2276595744680851 0.4405550014869685 0.412233616919452
0.22787234042553192 0.4320236009066664 0.40913128943570576
0.22808510638297871 0.4194324806944091 0.4071867044442358
0.22829787234042553 0.40739649884023776 0.40950896029238315
0.22851063829787233 0.39005606749761534 0.4178200365980413
0.22872340425531915 0.372603035285988 0.427422674583288
0.22893617021276597 0.35717260969008635 0.43523880507190854
0.22914893617021276 0.3413988774527594 0.44054660751315977
0.22936170212765958 0.32901131654277205 0.44288502157929854
0.22957446808510637 0.3212179112035259 0.4430874450415241
0.2297872340425532 0.31545455472842654 0.4416460372420816
0.23 0.31337839769114606 0.43680167082176075
0.2302127659574468 0.31861648411735843 0.43390161009388667
0.23042553191489362 0.3215423258044146 0.4333170493404983
0.23063829787234041 0.32936499126187296 0.4291890199443485
0.23085106382978723 0.3342201609634325 0.4310510513527648
0.23106382978723405 0.3383435180156673 0.43785103439747136
0.23127659574468085 0.3404775519964594 0.436268906235099
0.23148936170212767 0.33573904794772497 0.4412593215188046
0.23170212765957446 0.3383139719413833 0.44444821644356675
0.23191489361702128 0.3356470902714515 0.4488930192267862
0.23212765957446807 0.3327062935178462 0.4537943471494616
0.2323404255319149 0.3307530018005188 0.45094142258353326
0.2325531914893617 0.32509163687414605 0.45841877174311857
0.2327659574468085 0.32486565705911086 0.45521816697348283
0.23297872340425532 0.32403412662959813 0.4573065111712935
0.23319148936170211 0.3253924703700419 0.4584949650335798
0.23340425531914893 0.3231319643892176 0.4625151032991597
0.23361702127659575 0.31980950941513075 0.4655593551538837
0.23382978723404255 0.31671413826826605 0.4656263955998885
0.23404255319148937 0.3075837464930349 0.4674524739549349
0.23425531914893616 0.3018375664093809 0.47204791628399173
0.23446808510638298 0.3014167073766487 0.4731986418651228
0.2346808510638298 0.2992811332312469 0.47764682000550807
0.2348936170212766 0.2978676669167087 0.4786199873856877
0.2351063829787234 0.30025586476657984 0.4791766414553311
0.2353191489361702 0.3049044420219127 0.4807261672071088
0.23553191489361702 0.3092992517438773 0.4841893347922408
0.23574468085106381 0.3162616890158702 0.4843225281174121
0.23595744680851063 0.3264423669156019 0.4774096197563528
0.23617021276595745 0.3240088402513416 0.47823682501275067
0.23638297872340425 0.3328452415856471 0.47646954474588965
0.23659574468085107 0.342996220942081 0.47460911628827634
0.23680851063829786 0.35421055289357356 0.47492942331024296
0.23702127659574468 0.3655704815790219 0.4740285050188767
0.2372340425531915 0.3769271307957992 0.47078374809979745
0.2374468085106383 0.38759655794023967 0.46787209085135234
0.2376595744680851 0.39779694952502953 0.46518777727640764
0.2378723404255319 0.411123344201989 0.46151963773795374
0.23808510638297872 0.4286497454731352 0.45969711773326827
0.23829787234042554 0.44537974959085935 0.45728630699804845
0.23851063829787233 0.46086051570511116 0.4527910531436229
0.23872340425531915 0.48330926073597286 0.4500171493933378
0.23893617021276595 0.5094303944607749 0.4479726428920372
0.23914893617021277 0.5352024829757329 0.4479726428920372
0.23936170212765956 0.5507338316235292 0.44796482317064085
0.23957446808510638 0.569896399242194 0.44709379736979227
0.2397872340425532 0.5869919779428522 0.44699560332193444
0.24 0.5996189873420136 0.4535945526129333
0.2402127659574468 0.6037242481000031 0.4613638249430148
0.2404255319148936 0.6029121341342529 0.46968746807784195
0.24063829787234042 0.6033219345383487 0.4771237176229085
0.24085106382978724 0.6067076134614487 0.47991504491994
0.24106382978723404 0.6082071323888618 0.48241216477205184
0.24127659574468086 0.6105507081297977 0.4800212997611491
0.24148936170212765 0.6127980765234282 0.47757808371106125
0.24170212765957447 0.6183660685376404 0.47288904807989324
0.2419148936170213 0.620820693233766 0.4640010670626111
0.24212765957446808 0.6267487504784445 0.45763236988123135
0.2423404255319149 0.6246791132246622 0.44749072139623475
0.2425531914893617 0.6235944101742719 0.43979194480588807
0.2427659574468085 0.6287249633610161 0.4307383794430361
0.2429787234042553 0.6285112945224111 0.4329810162862109
0.24319148936170212 0.6269630593899768 0.4352711284807034
0.24340425531914894 0.6245092121286228 0.43588631438466946
0.24361702127659574 0.6238397655105032 0.43905000265997857
0.24382978723404256 0.6238397655105032 0.4451497842123337
0.24404255319148935 0.6212717778029891 0.45102728819260546
0.24425531914893617 0.6170004885197851 0.4544941075450445
0.244468085106383 0.6138599127698324 0.45676599902296044
0.24468085106382978 0.6057485154446762 0.4562756994580282
0.2448936170212766 0.5948735582659491 0.4525418108867606
0.2451063829787234 0.5884571248680289 0.44755421065447515
0.2453191489361702 0.5788428567736467 0.44538667484875616
0.24553191489361703 0.5692872563430006 0.4430171708564706
0.24574468085106382 0.5534545543626428 0.442832348423101
0.24595744680851064 0.54472699517879 0.44075901098123593
0.24617021276595744 0.5330896829463831 0.4442458793372579
0.24638297872340426 0.5205678895681659 0.4467837103121612
0.24659574468085105 0.5053879448424727 0.45163179887761906
0.24680851063829787 0.49784589727035283 0.45285152127068096
0.2470212765957447 0.4876332934453151 0.4528272275255556
0.24723404255319148 0.47477507418420034 0.45188080117244755
0.2474468085106383 0.4646071351682821 0.4515951351767671
0.2476595744680851 0.45363496853175395 0.44773806256901877
0.2478723404255319 0.43858609647045493 0.4393108179446526
0.24808510638297873 0.4282514825170653 0.4337460258159043
0.24829787234042552 0.4146131856751749 0.42597897720066524
0.24851063829787234 0.3906248078520636 0.42457467477622235
0.24872340425531914 0.3781421405477326 0.4282597359222915
0.24893617021276596 0.3593601496179199 0.4245864527054105
0.24914893617021278 0.34805129021443443 0.425336159950216
0.24936170212765957 0.33969288662639807 0.42045445421829386
0.2495744680851064 0.33030933097128545 0.4183475331576286
0.24978723404255318 0.32589600449400885 0.4157303370786516
0.25 0.321362238545506 0.41471848766163794
0.2502127659574468 0.323608319464276 0.41014839768276845
0.25042553191489364 0.3252852884658245 0.4081927245995254
0.25063829787234043 0.3248664815637595 0.409542969471101
0.2508510638297872 0.3258174121317934 0.41284978736318423
0.251063829787234 0.3238886174890083 0.41784202207436194
0.25127659574468086 0.3238886174890083 0.4217923366567666
0.25148936170212766 0.3238886174890083 0.4290742363574404
0.25170212765957445 0.32102330189503203 0.43586560899082716
0.2519148936170213 0.3169411230539583 0.4421645141935875
0.2521276595744681 0.3147324100020825 0.4432688707195254
0.2523404255319149 0.31218084797802503 0.4464653202112638
0.2525531914893617 0.30868109964528273 0.454110842458746
0.2527659574468085 0.30559413155582177 0.45565432650347654
0.2529787234042553 0.30699613958592853 0.455094725094091
0.2531914893617021 0.30497390951383924 0.4572924332377903
0.25340425531914895 0.303370786516854 0.4615884051517008
0.25361702127659574 0.3024193249636864 0.47015553158223483
0.25382978723404254 0.2991867783573922 0.4758814506130124
0.2540425531914894 0.298172178475037 0.47791065037772257
0.2542553191489362 0.29610518464934393 0.48134295580566167
0.25446808510638297 0.29323273140478956 0.48362950891178164
0.25468085106382976 0.29374374722203533 0.48007159229921526
0.2548936170212766 0.2963511938747928 0.4782608695652173
0.2551063829787234 0.2970910716164336 0.4749210497267789
0.2553191489361702 0.29863046220557155 0.47170392461205807
0.25553191489361704 0.30356227069563363 0.46908454507673464
0.25574468085106383 0.3091513605627191 0.4636052760136786
0.2559574468085106 0.3155851604268014 0.46395441575781027
0.2561702127659574 0.32182464449274945 0.4653199896974417
0.25638297872340426 0.3268923471814211 0.46856308484629655
0.25659574468085106 0.3350681031460187 0.4718646965941989
0.25680851063829785 0.3462753538772885 0.4728786345572452
0.2570212765957447 0.3605388333109723 0.4754408067945025
0.2572340425531915 0.37270842474654564 0.4806061045946734
0.2574468085106383 0.38345573491586454 0.4795534427027677
0.25765957446808513 0.39591751718212514 0.4760264486507238
0.2578723404255319 0.4103698413271836 0.4759717594405455
0.2580851063829787 0.42912109323049874 0.47697632823260455
0.2582978723404255 0.4479592285080319 0.47798872444107743
0.25851063829787235 0.46468043079285487 0.4775219576870733
0.25872340425531914 0.48985939675516454 0.470415247637302
0.25893617021276594 0.5179318829074542 0.4669130237870207
0.2591489361702128 0.5403239125494783 0.4608299871374724
0.2593617021276596 0.5637728875816023 0.45551995797920325
0.25957446808510637 0.5863353126730658 0.4495854174567972
0.2597872340425532 0.6030196006680799 0.44446428881174294
0.26 0.6106668258212506 0.4404257122043129
0.2602127659574468 0.6204910355648375 0.44483271856405043
0.2604255319148936 0.6218714781420421 0.44793001820726963
0.26063829787234044 0.6219328569731412 0.44699560332193444
0.26085106382978723 0.6238251363104622 0.44698828872191393
0.261063829787234 0.6218968534098535 0.4459738955936101
0.2612765957446809 0.6228898473324718 0.4418391915507089
0.26148936170212767 0.6237801438123964 0.43222076637418216
0.26170212765957446 0.6229654634165528 0.4307968805347998
0.26191489361702125 0.6232670169374488 0.4330054046212283
0.2621276595744681 0.6195825319162312 0.4258498080935392
0.2623404255319149 0.6190219489162668 0.4278725802504344
0.2625531914893617 0.6215230281833233 0.4298554569791137
0.26276595744680853 0.6167445419268824 0.4318748633860983
0.2629787234042553 0.614470564691991 0.43435230551229265
0.2631914893617021 0.6108648451356613 0.4377529328258545
0.26340425531914896 0.6135921552111254 0.4411107555279201
0.26361702127659575 0.6104080076486889 0.44747905065279314
0.26382978723404255 0.6062430573420664 0.4552167299800223
0.26404255319148934 0.6025481802975621 0.46148729862063465
0.2642553191489362 0.603552731211916 0.46642868897231954
0.264468085106383 0.6020551724034579 0.47289725474571154
0.26468085106382977 0.5941106504341644 0.4757476788281706
0.2648936170212766 0.5875288854847092 0.478956860531474
0.2651063829787234 0.5776377613635354 0.47950266039430134
0.2653191489361702 0.5685967829800076 0.4831460674157304
0.265531914893617 0.5566879592350019 0.4854567043101982
0.26574468085106384 0.541686274520109 0.48873960802353944
0.26595744680851063 0.5323390356221133 0.478406828442108
0.2661702127659574 0.5183895114069371 0.46985712005216135
0.2663829787234043 0.5054510560594769 0.46142406692913834
0.26659574468085107 0.49804618795851413 0.45362946892812495
0.26680851063829786 0.4906413198575514 0.4458348709271115
0.2670212765957447 0.48111503448553755 0.43908331143164187
0.2672340425531915 0.4704339565700354 0.4328995294805618
0.2674468085106383 0.4609434089814025 0.4268602283363939
0.2676595744680851 0.45086232612781374 0.42149388975403723
0.26787234042553193 0.438974173274289 0.41832210169980355
0.2680851063829787 0.42508010562182996 0.41653007343532145
0.2682978723404255 0.4099845415706378 0.4147300091260288
0.26851063829787236 0.3941114058498976 0.41811591737983966
0.26872340425531915 0.3781172941082713 0.4202319108465221
0.26893617021276595 0.36479457161124956 0.42131013058325545
0.26914893617021274 0.34989573170368427 0.4221817751829866
0.2693617021276596 0.3370229110280276 0.4196225694569576
0.2695744680851064 0.3304208422006226 0.41650267512935174
0.26978723404255317 0.32489890525698406 0.41011670468865363
0.27 0.3204379753020232 0.4038449776766252
0.2702127659574468 0.3235859124435868 0.4007424994386178
0.2704255319148936 0.3265198004215503 0.39806639257999993
0.27063829787234045 0.33178672466008086 0.3992952945870302
0.27085106382978724 0.3321895207252333 0.4059756738162138
0.27106382978723403 0.33479241047947167 0.41794831891416956
0.2712765957446808 0.33885841912244885 0.43035151530579313
0.2714893617021277 0.3352417374573522 0.43833132818501225
0.27170212765957447 0.3329197501303617 0.4434700433355516
0.27191489361702126 0.33268197361993157 0.44406448461162684
0.2721276595744681 0.3295636626675995 0.44406448461162684
0.2723404255319149 0.3265631923238531 0.4409805259977129
0.2725531914893617 0.32262094889277976 0.4359575390246801
0.2727659574468085 0.3229907213215181 0.4322608663677832
0.27297872340425533 0.32106564948362554 0.431362970200293
0.2731914893617021 0.318503240496573 0.438010454404405
0.2734042553191489 0.3157808952089117 0.4468927809096596
0.27361702127659576 0.31059365380436016 0.4542015579414854
0.27382978723404255 0.30847909367434795 0.4618204015578303
0.27404255319148935 0.30668585379351515 0.470670863596011
0.2742553191489362 0.30220836019964104 0.47649217717212244
0.274468085106383 0.2980713017612955 0.4789565328027915
0.2746808510638298 0.2983530107214869 0.4893714486383031
0.27489361702127657 0.2984855886663409 0.48750445144675525
0.2751063829787234 0.2984855886663409 0.48794233904049983
0.2753191489361702 0.2984855886663409 0.4889300712739315
0.275531914893617 0.3030487194239513 0.491746183290912
0.27574468085106385 0.3098654439022179 0.49472284814038114
0.27595744680851064 0.31485205400566607 0.49796520258902416
0.27617021276595743 0.32124187249001557 0.5076408232147911
0.2763829787234042 0.3281012159697406 0.504572160463363
0.2765957446808511 0.33428425229976094 0.5034424250494717
0.27680851063829787 0.3451015544020666 0.5028731932152325
0.27702127659574466 0.35558681531784836 0.49856223474459305
0.2772340425531915 0.3665451768409073 0.4952278753395208
0.2774468085106383 0.3800232155164295 0.4887866335705591
0.2776595744680851 0.391969441840631 0.4871616411232792
0.27787234042553194 0.40760535242363277 0.48386602003895396
0.27808510638297873 0.4269385608653551 0.48716942282503445
0.2782978723404255 0.4455932950654746 0.4821172902080772
0.2785106382978723 0.46634228611392264 0.48206673319085297
0.27872340425531916 0.4934939941510083 0.47838061568095847
0.27893617021276595 0.5223901400460755 0.4740024117574635
0.27914893617021275 0.5448334209967223 0.4706198818187378
0.2793617021276596 0.5656219570122618 0.464930793393016
0.2795744680851064 0.5860251794068766 0.4606741573033708
0.2797872340425532 0.6001922512885409 0.45737674064478395
0.27999999999999997 0.6095642912849742 0.451142529699982
0.2802127659574468 0.6164311034926169 0.44756498834910263
0.2804255319148936 0.6184621209704536 0.44650315663239787
0.2806382978723404 0.61793117181311 0.44443711370473404
0.28085106382978725 0.6164512144795199 0.4355191169882393
0.28106382978723404 0.617796260579474 0.42388562132095486
0.28127659574468084 0.6195935425852162 0.41133182133112467
0.2814893617021277 0.6172077490770091 0.40421312279464455
0.2817021276595745 0.6182052940213925 0.3943014423804778
0.28191489361702127 0.6267120238702084 0.39595882155221795
0.28212765957446806 0.6245858329901064 0.405444845988522
0.2823404255319149 0.6229697611848821 0.41737703285517963
0.2825531914893617 0.6228627259404005 0.4232636649448745
0.2827659574468085 0.6228627259404005 0.435084536674351
0.28297872340425534 0.6209086468001954 0.43919968997890996
0.28319148936170213 0.6207276186743609 0.44251771875454915
0.2834042553191489 0.6166377622682728 0.45099444316522286
0.2836170212765957 0.6130923302393747 0.4514677396282412
0.28382978723404256 0.6129062344959435 0.44820529948841487
0.28404255319148936 0.6110025469598723 0.4450415241817294
0.28425531914893615 0.6058839810442731 0.4428877453425518
0.284468085106383 0.599805996177651 0.43563839587678665
0.2846808510638298 0.5927077585388721 0.429790861954421
0.2848936170212766 0.585128064739504 0.42467976626742143
0.2851063829787234 0.5743258792420285 0.42400366024384795
0.2853191489361702 0.5626128342820701 0.4220188027085411
0.285531914893617 0.5531455438145931 0.41963849535906195
0.2857446808510638 0.545831283399515 0.41963849535906195
0.28595744680851065 0.5306494702981276 0.4253681847298381
0.28617021276595744 0.5139766894726235 0.4311531954599629
0.28638297872340424 0.5032186345682647 0.433040843241533
0.2865957446808511 0.49409223170586636 0.4333170493404983
0.2868085106382979 0.48173744267014423 0.43645612037942433
0.28702127659574467 0.4759047232308822 0.4388918005731275
0.28723404255319146 0.46295758530973513 0.43476065620926574
0.2874468085106383 0.4532523045851909 0.4408265606903762
0.2876595744680851 0.4400936614101765 0.4323286161483885
0.2878723404255319 0.4298016546441313 0.43045734219092563
0.28808510638297874 0.416757124578661 0.42857853541855817
0.28829787234042553 0.40752872349404295 0.43207701308314483
0.2885106382978723 0.39093695247272414 0.4351635442071611
0.28872340425531917 0.3755000860255908 0.4382123429956497
0.28893617021276596 0.35816347803328485 0.4395387123528804
0.28914893617021276 0.3437791169238888 0.4453551899503663
0.28936170212765955 0.3370920463017891 0.44855350878754047
0.2895744680851064 0.32790463337024683 0.45257614674786706
0.2897872340425532 0.32286225271570174 0.4557889594528579
0.29 0.31950709294555774 0.4555371227993267
0.2902127659574468 0.32244691351071997 0.4545140369363513
0.2904255319148936 0.3268816113163596 0.45244966072979104
0.2906382978723404 0.3303573770977496 0.4471554889553425
0.2908510638297872 0.333573587909323 0.44041260217334993
0.29106382978723405 0.33463605276013686 0.43673317962226055
0.29127659574468084 0.3351740548180248 0.43086814747192603
0.29148936170212764 0.33678314317991487 0.4235526452255913
0.2917021276595745 0.3363010618108333 0.4222256293290728
0.2919148936170213 0.33227417780106316 0.4198984824460288
0.29212765957446807 0.3271759192175003 0.4215030359987403
0.2923404255319149 0.3220581058869321 0.42786804110856363
0.2925531914893617 0.3193462491927238 0.4326313902320415
0.2927659574468085 0.3173047173979492 0.43756380494186364
0.2929787234042553 0.3143490836128415 0.44720310347584014
0.29319148936170214 0.311268779969034 0.4479726428920372
0.29340425531914893 0.31204148512918145 0.45779210160050127
0.2936170212765957 0.30727894479726436 0.46027674376376226
0.29382978723404257 0.30693290296575443 0.4677441288484289
0.29404255319148936 0.30402630023377036 0.4696282763608871
0.29425531914893616 0.3021872563709109 0.47230296818696016
0.29446808510638295 0.3014167073766487 0.4800036504603527
0.2946808510638298 0.3011146162931679 0.48216902784562765
0.2948936170212766 0.30149131132317947 0.48672614975103845
0.2951063829787234 0.30297113235206136 0.4944708880921688
0.29531914893617023 0.30552701444499625 0.49657916054249734
0.295531914893617 0.31244366164791926 0.5015903902277314
0.2957446808510638 0.31756890087859674 0.5029155984126801
0.29595744680851066 0.3222850940984185 0.5019193315103905
0.29617021276595745 0.3307910254328266 0.5026517860660599
0.29638297872340424 0.3383043804834231 0.49847769992683955
0.29659574468085104 0.34581773553401957 0.4943036137876192
0.2968085106382979 0.35467870398307244 0.4917593545273927
0.2970212765957447 0.36440612604490236 0.4909623839765511
0.29723404255319147 0.3743913141813747 0.484847619862139
0.2974468085106383 0.38513035825524855 0.48080836005455846
0.2976595744680851 0.39813018805250744 0.47993771408029295
0.2978723404255319 0.4123059077791771 0.4726114197697064
0.29808510638297875 0.42866244503298995 0.46735779548413475
0.29829787234042554 0.4429805868816423 0.4672797437656128
0.29851063829787233 0.46479515145130895 0.4573427826235388
0.2987234042553191 0.4850662541653467 0.44824402904862776
0.298936170212766 0.5117522085358279 0.4386235056973751
0.29914893617021276 0.5377222913009503 0.429170506017289
0.29936170212765956 0.5576792156453484 0.4213631000608581
0.2995744680851064 0.5765059256571144 0.4198296056863756
0.2997872340425532 0.5918187007409781 0.420111212212409
0.3 0.6016160653189171 0.4217580477797828
0.3002127659574468 0.6087560127464889 0.42651801273149736
0.30042553191489363 0.6079972622446871 0.4317827104886423
0.3006382978723404 0.6113013781804024 0.4367097871418677
0.3008510638297872 0.6105226205726295 0.44526894877456064
0.30106382978723406 0.6108656220979812 0.4483891990824675
0.30127659574468085 0.6146439637970875 0.44898411214316325
0.30148936170212765 0.6175002142514416 0.44992672203224227
0.3017021276595745 0.61991814127008 0.45138218191738666
0.3019148936170213 0.6209625155375839 0.45516576782433554
0.3021276595744681 0.6209494091980592 0.4597786425289957
0.30234042553191487 0.6231608419479949 0.464201508028867
0.3025531914893617 0.6267210246849381 0.4650791452914779
0.3027659574468085 0.6291643696037484 0.46619521556589183
0.3029787234042553 0.6274971062539407 0.4709461880783423
0.30319148936170215 0.6267708842208108 0.47093341050427895
0.30340425531914894 0.6266254405270167 0.4654139114600896
0.30361702127659573 0.622268960741934 0.46105743167500696
0.3038297872340425 0.6181893340147097 0.4510636411788411
0.3040425531914894 0.6164502777592822 0.4402696922449967
0.30425531914893617 0.6127536628433128 0.4310243028042312
0.30446808510638296 0.6054126578130414 0.42387005231520775
0.3046808510638298 0.5972130029645737 0.4176844162188569
0.3048936170212766 0.5904563232882781 0.4176680065349832
0.3051063829787234 0.5814229388286489 0.4167646680890203
0.30531914893617024 0.5686671306048862 0.4193179967532763
0.30553191489361703 0.5578332409985747 0.42303421515759954
0.3057446808510638 0.548563602468545 0.4243326969099604
0.3059574468085106 0.5325296887940315 0.4222935957340434
0.30617021276595746 0.5221200190584858 0.4230850416447581
0.30638297872340425 0.5083431075709024 0.42434201787338754
0.30659574468085105 0.4970963543548622 0.4228193685749294
0.3068085106382979 0.4878203082499504 0.42702921050109954
0.3070212765957447 0.475774895417608 0.42651486773000497
0.3072340425531915 0.46563534369960485 0.4313249759274324
0.30744680851063827 0.4542855452909153 0.42713898716477877
0.3076595744680851 0.44308179031409434 0.42126595218799473
0.3078723404255319 0.4259877182313607 0.41826133932845344
0.3080851063829787 0.41712503165171233 0.4158442429885492
0.30829787234042555 0.4087710835323168 0.41193358559988547
0.30851063829787234 0.3942542486393192 0.4249182698137072
0.30872340425531913 0.37674303403274223 0.43275781973680133
0.308936170212766 0.36119965959275946 0.44468093167184125
0.3091489361702128 0.3504093219619073 0.4537411229258999
0.30936170212765957 0.33944628412149 0.46230589068530875
0.30957446808510636 0.33254500498059314 0.4695359977539634
0.3097872340425532 0.3255581995387615 0.47262744849978416
0.31 0.32224177335555076 0.470927979079873
0.3102127659574468 0.3255823298670215 0.4673832509129929
0.31042553191489364 0.3307511711538887 0.466380191446713
0.31063829787234043 0.3350862471068564 0.4640554703603982
0.3108510638297872 0.3375616689614071 0.46312088311040533
0.311063829787234 0.34337092159656185 0.46550086785938544
0.31127659574468086 0.34472404687902486 0.4677251665726637
0.31148936170212765 0.3418757139500654 0.4667605077515153
0.31170212765957445 0.34078010458092806 0.4655640105691398
0.3119148936170213 0.3376341345906227 0.46438142622324685
0.3121276595744681 0.33560983232402425 0.4645725355651357
0.3123404255319149 0.33247054973592827 0.4632753241416298
0.3125531914893617 0.3272313615980514 0.46574782654433944
0.3127659574468085 0.32549950196419586 0.4697056192494114
0.3129787234042553 0.3258426966292134 0.46935035153610155
0.3131914893617021 0.3258426966292134 0.4722333339613082
0.31340425531914895 0.319467304814501 0.467000279899992
0.31361702127659574 0.3256160365873188 0.4655593551538837
0.31382978723404253 0.31534150086115753 0.4629105316143086
0.3140425531914894 0.3123567540505027 0.4617475025748361
0.3142553191489362 0.308686527944831 0.4607817931977368
0.31446808510638297 0.3033656400163501 0.4590440425196985
0.31468085106382976 0.29843163189821825 0.4587200781631655
0.3148936170212766 0.2959361023370464 0.46422364182033765
0.3151063829787234 0.2947617123312351 0.467937628028278
0.3153191489361702 0.29613193796496906 0.47159948902226845
0.31553191489361704 0.3023762860599073 0.4762951498337828
0.31574468085106383 0.3076566219800161 0.47965992335899155
0.3159574468085106 0.313592382616108 0.4811919882755251
0.31617021276595747 0.3232740011041119 0.48128259407182666
0.31638297872340426 0.32952706485766753 0.4828458600102156
0.31659574468085105 0.33838687290226327 0.4802003064839854
0.31680851063829785 0.3472855879094197 0.47740394089447075
0.3170212765957447 0.35618470478863407 0.4723448506583615
0.3172340425531915 0.36750684748908685 0.4634104170084219
0.3174468085106383 0.38188547641361914 0.4564395836121566
0.3176595744680851 0.3935417189509226 0.44561592982751763
0.3178723404255319 0.4087643142898792 0.4347476164855517
0.3180851063829787 0.42596979337818863 0.4297583071875454
0.3182978723404255 0.44628583252930776 0.42752578899914534
0.31851063829787235 0.4669797906595713 0.4234234881018098
0.31872340425531914 0.4861581179033867 0.4186614557889594
0.31893617021276593 0.5125478911490475 0.41916130515279065
0.3191489361702128 0.5437885335361193 0.42293090234704606
0.3193617021276596 0.5659604651716343 0.42522137803172955
0.31957446808510637 0.5849103996805045 0.42919497274324636
0.3197872340425532 0.5998181835694167 0.4339782499857472
0.32 0.6115843680761154 0.4363384958909898
0.3202127659574468 0.6160790229572396 0.4410157615978785
0.3204255319148936 0.619851614369577 0.4463870942461096
0.32063829787234044 0.6199185788182151 0.44995277885599766
0.32085106382978723 0.6205987504981527 0.4507846792803391
0.321063829787234 0.6206876303553119 0.44812963800976313
0.32127659574468087 0.6186200105032097 0.44896299841225923
0.32148936170212766 0.6186883607328001 0.4456617261747674
0.32170212765957445 0.6196924403410514 0.4418508665684432
0.32191489361702125 0.6206284323516358 0.4390428905366902
0.3221276595744681 0.619595375659725 0.43885888276124635
0.3223404255319149 0.6189545676599901 0.4379035410147054
0.3225531914893617 0.6196165881369 0.4352391461901794
0.3227659574468085 0.6199316072300929 0.43214617705052105
0.3229787234042553 0.6168418914646464 0.43290782808301637
0.3231914893617021 0.6151891707574525 0.43081421476380855
0.32340425531914896 0.6105698866143634 0.4312812351832337
0.32361702127659575 0.609203217367539 0.4332789585233491
0.32382978723404254 0.6109881709334926 0.43140049024171223
0.32404255319148934 0.6071333517532159 0.4323400097703958
0.3242553191489362 0.6056099676501332 0.4320184669711341
0.324468085106383 0.60014802188169 0.4297268687042236
0.32468085106382977 0.5896635290820235 0.4279840792262821
0.3248936170212766 0.5808541921447244 0.4297331816772104
0.3251063829787234 0.5743781968907937 0.4296329725643588
0.3253191489361702 0.5623930980871031 0.4310382364122307
0.325531914893617 0.5509580264039444 0.43479099879873534
0.32574468085106384 0.5406195207918939 0.43920441223323836
0.32595744680851063 0.5299970351305051 0.4446144813408279
0.3261702127659574 0.5178648722973112 0.448775542486143
0.32638297872340427 0.5053874886113707 0.45143069620684945
0.32659574468085106 0.4928943475202258 0.4543289289968365
0.32680851063829786 0.483953869257816 0.4609443702616484
0.3270212765957447 0.4765821336079423 0.4654020161922094
0.3272340425531915 0.46179634462984254 0.46946601363719864
0.3274468085106383 0.44854188687378366 0.4721362016192062
0.3276595744680851 0.4393414348980369 0.47192504176966016
0.3278723404255319 0.4286101114402861 0.4727639253235918
0.3280851063829787 0.4193440712924398 0.4707048052907371
0.3282978723404255 0.40584469099982257 0.4690500625427875
0.32851063829787236 0.38765287261149106 0.46943542805106725
0.32872340425531915 0.37325489100189485 0.47307996216396375
0.32893617021276594 0.36021791620907473 0.4753297508549097
0.32914893617021274 0.34869051092333886 0.473390739012224
0.3293617021276596 0.34043760541493373 0.47239863214460187
0.3295744680851064 0.33104419040276367 0.4716486300808236
0.32978723404255317 0.32310659511538264 0.4689927839070114
0.33 0.3210830901614543 0.4659361293021452
0.3302127659574468 0.3217782361326211 0.45981419367643933
0.3304255319148936 0.32667847082466367 0.448441557798801
0.33063829787234045 0.3302885439735062 0.4418656167450195
0.33085106382978724 0.3307278944797265 0.4357685471960299
0.33106382978723403 0.3345395285402629 0.42288331778396004
0.3312765957446808 0.3327957564249156 0.41828217977234594
0.33148936170212767 0.3358157182225028 0.40878974714180194
0.33170212765957446 0.33756717147044446 0.4079140205178309
0.33191489361702126 0.33699969763765114 0.4079140205178309
0.3321276595744681 0.33290299548767405 0.40885904264578093
0.3323404255319149 0.32950899120526433 0.4140085368901411
0.3325531914893617 0.32785819414462763 0.4192104515436795
0.3327659574468085 0.32361934921793745 0.4240518456768871
0.33297872340425533 0.3212789533789884 0.42691060373991024
0.3331914893617021 0.32389665359919395 0.42843988760017093
0.3334042553191489 0.3237566922061178 0.4288544086335914
0.33361702127659576 0.32105606761179106 0.4278133480542804
0.33382978723404255 0.31591016627934393 0.4315251048491367
0.33404255319148934 0.3126373598550004 0.43405748030698926
0.3342553191489362 0.3105548609666904 0.44234049731603475
0.334468085106383 0.305884875279578 0.4527148610676148
0.3346808510638298 0.30625560825103565 0.4631423062524191
0.33489361702127657 0.3053518969060819 0.47150268632156767
0.3351063829787234 0.3073518601953686 0.47772132238374027
0.3353191489361702 0.30837996549024743 0.48388995415301356
0.335531914893617 0.30951629754017984 0.4895748520417666
0.33574468085106385 0.31158349876273583 0.49549303506965364
0.33595744680851064 0.3141583072458903 0.504092289986074
0.33617021276595743 0.31953335775904257 0.4982032293195041
0.3363829787234042 0.3267052644486738 0.4948705422569615
0.33659574468085107 0.33397272523122945 0.492337420063998
0.33680851063829786 0.3429254410262299 0.4870630531703
0.33702127659574466 0.352934571316034 0.4829087986510468
0.3372340425531915 0.36357467295835993 0.47936209810360475
0.3374468085106383 0.3741776673140226 0.4782608695652173
0.3376595744680851 0.38604267771485595 0.47475383461929854
0.33787234042553194 0.39910502629369615 0.4733756717147044
0.33808510638297873 0.4141109673501821 0.47096383486411103
0.3382978723404255 0.4305414860097635 0.47217381667452285
0.3385106382978723 0.4528041163258565 0.46960807215976624
0.33872340425531916 0.47481714747449527 0.46444470486091055
0.33893617021276595 0.5025994246875344 0.4559104533933966
0.33914893617021274 0.5274458615838861 0.44588255824250494
0.3393617021276596 0.5514439385303044 0.4436366391072755
0.3395744680851064 0.5712052453690195 0.4355649764043959
0.3397872340425532 0.5889690550499477 0.4287557647471814
0.34 0.6028190613156036 0.42979170278850726
0.3402127659574468 0.6111382510991694 0.43301845463696254
0.3404255319148936 0.6131017463896281 0.4367390418734208
0.3406382978723404 0.6128449167247798 0.4410778197668086
0.34085106382978725 0.6142042809307143 0.44835692637578944
0.34106382978723404 0.613309472292456 0.45293924409526476
0.34127659574468083 0.6128606838457398 0.4560710598420557
0.3414893617021277 0.6155313599037566 0.46164405835172423
0.3417021276595745 0.6142739023399322 0.46350300974845116
0.34191489361702126 0.6140693698094772 0.4617302592635407
0.34212765957446806 0.6180234567555783 0.46558231948672907
0.3423404255319149 0.6201022523969597 0.4661097818068193
0.3425531914893617 0.6221804118409143 0.46106174593224064
0.3427659574468085 0.6238397655105032 0.4563489169606235
0.34297872340425534 0.6238397655105032 0.4498547042577011
0.34319148936170213 0.6231921647923938 0.4457004018857156
0.3434042553191489 0.6195848971496921 0.4415535855611202
0.34361702127659577 0.6173589351259231 0.43828896264362005
0.34382978723404256 0.6174726177767302 0.43574325773764866
0.34404255319148935 0.6160234489496825 0.43111116614273426
0.34425531914893615 0.6108561366514663 0.4261352682463338
0.344468085106383 0.6029003571396908 0.4214310248673833
0.3446808510638298 0.5964156151796463 0.4183134284762638
0.3448936170212766 0.5867844235369777 0.4162763880605936
0.3451063829787234 0.5778113992074989 0.4127454651142526
0.3453191489361702 0.571221182197977 0.41261278619449127
0.345531914893617 0.5608534921412174 0.4144808723708245
0.3457446808510638 0.5522379306571213 0.41653260331520187
0.34595744680851065 0.5403483286372888 0.4176399190392229
0.34617021276595744 0.530071414295339 0.424504479949296
0.34638297872340423 0.5196933264460291 0.43221567163462443
0.3465957446808511 0.5053190475643148 0.43000434350923095
0.3468085106382979 0.490495129843523 0.4365107669059208
0.34702127659574467 0.4794003571064767 0.4387397365417257
0.3472340425531915 0.46867320678965557 0.44204949449626696
0.3474468085106383 0.4569438774311575 0.4458674962723626
0.3476595744680851 0.4467062841032366 0.4486167304778383
0.3478723404255319 0.4353722718608283 0.4488227094621527
0.34808510638297874 0.4233229813198373 0.4461692372019254
0.34829787234042553 0.41261566101768715 0.4468847078912456
0.3485106382978723 0.39639015591333643 0.4499541419892246
0.34872340425531917 0.3793690283577937 0.45361534683995275
0.34893617021276596 0.3642542550683108 0.45756334329584464
0.34914893617021275 0.35233228932027916 0.4625552202447121
0.34936170212765955 0.3396854438563681 0.4659546302202536
0.3495744680851064 0.32825711958579107 0.46800758927287595
0.3497872340425532 0.3219111448346509 0.4708494049409291
0.35 0.31761429384810647 0.4697499901092022
0.3502127659574468 0.3179310155673596 0.45888741260545995
0.3504255319148936 0.32267798294021505 0.457743038593063
0.3506382978723404 0.32877385329008774 0.4538341213013226
0.35085106382978726 0.3299929642210442 0.43385829215004407
0.35106382978723405 0.3347262281572 0.42459897880904623
0.35127659574468084 0.3356130923302394 0.41480601433515857
0.35148936170212763 0.3345482403880519 0.40889106008793363
0.3517021276595745 0.3299520752616312 0.40889106008793363
0.3519148936170213 0.33034999313015767 0.4105916161609933
0.35212765957446807 0.32736288501738753 0.41909534654099057
0.3523404255319149 0.3220766703600599 0.4249381662375488
0.3525531914893617 0.31932860878948527 0.42875777669954174
0.3527659574468085 0.3157881519167273 0.42828977698425524
0.3529787234042553 0.31257766753731403 0.428958921687001
0.35319148936170214 0.3108806917771997 0.43188791168225965
0.35340425531914893 0.3072679772564623 0.43482099508845884
0.3536170212765957 0.30738307292112826 0.43874283103799444
0.35382978723404257 0.3064917289018699 0.4462363086231017
0.35404255319148936 0.30341521524329307 0.4547230624298768
0.35425531914893615 0.30171311988783045 0.4615303884354063
0.354468085106383 0.302142499089876 0.4686858180062696
0.3546808510638298 0.30008274750914915 0.47737755131720333
0.3548936170212766 0.3018928295981214 0.4832882447381165
0.3551063829787234 0.30153872982275337 0.4883981926058226
0.3553191489361702 0.30501756906654515 0.49260916652624226
0.355531914893617 0.30911876561397883 0.49860731305213596
0.3557446808510638 0.31325721004439 0.4977353593521204
0.35595744680851066 0.3200043477856204 0.4938798520714173
0.35617021276595745 0.3267514855268491 0.49002434479071527
0.35638297872340424 0.3342421118200258 0.48812975050127105
0.35659574468085103 0.343257511517425 0.48707332540432247
0.3568085106382979 0.35455298659857515 0.48995847708956364
0.3570212765957447 0.3682241712547663 0.4889345502141175
0.35723404255319147 0.37445239837641614 0.48839808006244584
0.3574468085106383 0.38794241767975834 0.4911316359436827
0.3576595744680851 0.39864595499772965 0.4912956518795476
0.3578723404255319 0.4152112265871641 0.48823781883181194
0.35808510638297875 0.4325862595756294 0.4845679368155243
0.35829787234042554 0.4486300741676441 0.4783823947025914
0.35851063829787233 0.46403528409206474 0.471462701959677
0.3587234042553191 0.4856857856137554 0.4654220191208298
0.35893617021276597 0.5101336055594311 0.45701164151565266
0.35914893617021276 0.5321660719268105 0.4467519034676236
0.35936170212765955 0.5557963816411727 0.4374035068545035
0.3595744680851064 0.578464491169113 0.43157713030673034
0.3597872340425532 0.5930497300312163 0.41790229644389654
0.36 0.6050199462265171 0.41416160388286505
0.3602127659574468 0.6102843323081365 0.41297000212655055
0.3604255319148936 0.6170202641352674 0.4091229602207826
0.3606382978723404 0.6176508470280474 0.4072621602018595
0.3608510638297872 0.6170004885197851 0.4092279527528298
0.36106382978723406 0.6194880875671499 0.41134265903761164
0.36127659574468085 0.6205773617348185 0.4126943952218943
0.36148936170212764 0.6189545676599901 0.4165813059172227
0.3617021276595745 0.62041871079961 0.4224457138536895
0.3619148936170213 0.6228627259404005 0.42774310576542024
0.3621276595744681 0.6228627259404005 0.43433439852275024
0.36234042553191487 0.62358879610757 0.4408734504845093
0.3625531914893617 0.6255975196363284 0.4470001888237317
0.3627659574468085 0.624967624669917 0.4519594987275235
0.3629787234042553 0.6255381768347156 0.45816915161971744
0.36319148936170215 0.6228740407892881 0.4626093783620964
0.36340425531914894 0.6219220446038044 0.4663909617899602
0.36361702127659573 0.6175266887065175 0.4665363947239862
0.3638297872340425 0.6149047124067049 0.46793357879937303
0.36404255319148937 0.6129320767212613 0.46962776695240754
0.36425531914893616 0.6086067763530619 0.47094576933528387
0.36446808510638296 0.6024513943797196 0.47142159257449934
0.3646808510638298 0.5971388941937316 0.47142159257449934
0.3648936170212766 0.5895137651145527 0.46807838371258415
0.3651063829787234 0.5794878152771187 0.4602889877246028
0.36531914893617023 0.5690105154175519 0.4544785710815739
0.365531914893617 0.5560729960447014 0.4499559665028889
0.3657446808510638 0.5455997347773925 0.4384596024922424
0.3659574468085106 0.5352848624831191 0.43218467434085794
0.36617021276595746 0.5221706184517885 0.4270034910938128
0.36638297872340425 0.5088057831780444 0.421635355655875
0.36659574468085104 0.4960240417665106 0.4201030105406053
0.3668085106382979 0.48344441299288127 0.42127372821245374
0.3670212765957447 0.4708195583761845 0.42256961406936977
0.3672340425531915 0.458855426698971 0.4256168542761482
0.36744680851063827 0.45097008283006146 0.42617419956898484
0.3676595744680851 0.44283008043546734 0.4268606443411603
0.3678723404255319 0.4329767066242454 0.4281727738905799
0.3680851063829787 0.4212396796674707 0.431480601810892
0.36829787234042555 0.41061876225833255 0.4379698952418345
0.36851063829787234 0.3970238916403597 0.44426521609578834
0.36872340425531913 0.3802659681853748 0.4494375647467654
0.368936170212766 0.36494270917678395 0.45931805744584625
0.36914893617021277 0.3541974607531257 0.46769234893535966
0.36936170212765956 0.34491813964940127 0.474931768819613
0.36957446808510636 0.336686948895517 0.4791895006377325
0.3697872340425532 0.33241231780681163 0.4781597486352973
0.37 0.3250748130453419 0.47435368958583135
0.3702127659574468 0.3285896598814186 0.4597256211729021
0.37042553191489364 0.33558918530697507 0.4421821265412147
0.3706382978723404 0.34172651456163794 0.4254077712850733
0.3708510638297872 0.3466074584092974 0.4164497621792094
0.371063829787234 0.34705600308985873 0.41561485918446117
0.37127659574468086 0.34668706946739114 0.41995727914118414
0.37148936170212765 0.34658689097021883 0.416629988011678
0.37170212765957444 0.34369849147113635 0.42258723933928743
0.3719148936170213 0.34008281377604355 0.42972697629100665
0.3721276595744681 0.33551256984121575 0.43685396407305166
0.3723404255319149 0.33268197361993157 0.44284822573789284
0.3725531914893617 0.3275142646409856 0.44446733429517987
0.3727659574468085 0.32326955378487543 0.44530261201989263
0.3729787234042553 0.320919777593031 0.448674297519665
0.3731914893617021 0.31647345321742054 0.4492253208340068
0.37340425531914895 0.3136093812504328 0.4519214426774441
0.37361702127659574 0.3099849702012025 0.4552249997550581
0.37382978723404253 0.30923302393746943 0.45829493212299466
0.3740425531914894 0.2986674744020134 0.4657637778534695
0.37425531914893617 0.2919427400557626 0.4665363947239862
0.37446808510638296 0.2877511732877379 0.4714053177088427
0.37468085106382976 0.2866316789722787 0.4753621095681175
0.3748936170212766 0.28308262768917186 0.4764599051879938
0.3751063829787234 0.286147861202214 0.4783821318809529
0.3753191489361702 0.29036756495958466 0.47808124873933133
0.37553191489361704 0.2989147793933435 0.47239863214460187
0.37574468085106383 0.3027532074577889 0.47265569210585107
0.3759574468085106 0.3112875460599812 0.4739626780354221
0.37617021276595747 0.3187763045324097 0.4743157495033264
0.37638297872340426 0.3281417253078943 0.4727852783099551
0.37659574468085105 0.3393553565377327 0.47466275456313967
0.37680851063829784 0.35005096581986533 0.4772402859827322
0.3770212765957447 0.360784836967806 0.4797965840839941
0.3772340425531915 0.3714568708650169 0.4811919882755251
0.3774468085106383 0.38225806592759004 0.4817907474776291
0.3776595744680851 0.39406311843418085 0.4815320304740771
0.3778723404255319 0.4090115131378192 0.48255047431565196
0.3780851063829787 0.4260630347168652 0.4860370737165348
0.37829787234042556 0.44254473884366313 0.4824946726160884
0.37851063829787235 0.458075498399894 0.4763692144163004
0.37872340425531914 0.4828221096531668 0.4710705292491795
0.37893617021276593 0.5066312622514083 0.46329530913470257
0.3791489361702128 0.5329581028044869 0.45981181260902726
0.3793617021276596 0.5547289310013948 0.45188080117244755
0.37957446808510636 0.579603605851782 0.4516449143171149
0.3797872340425532 0.591945188961713 0.4480609608143504
0.38 0.6052595558146217 0.4489485852712109
0.3802127659574468 0.6163702598634294 0.4578297413214997
0.3804255319148936 0.6230311099561399 0.4600565202018742
0.38063829787234044 0.6159607682149688 0.4639971440859882
0.38085106382978723 0.6217151301536655 0.46687750715725124
0.381063829787234 0.6202574715673347 0.46870753227514506
0.38127659574468087 0.6190302190554261 0.4699938589170633
0.38148936170212766 0.6231067990984522 0.4711163143924607
0.38170212765957445 0.6240483930523925 0.4680009207667545
0.3819148936170213 0.6244649351584196 0.4643955623155062
0.3821276595744681 0.6270561143162936 0.4633544479748628
0.3823404255319149 0.6242958193674657 0.4606741573033708
0.3825531914893617 0.6274793297679092 0.46023040318882025
0.3827659574468085 0.630238089541666 0.45661044701638165
0.3829787234042553 0.6297020029311187 0.45370390223552604
0.3831914893617021 0.6279733946562746 0.45452381850361445
0.38340425531914896 0.6237182578239274 0.45378627723802234
0.38361702127659575 0.6193314772114452 0.4520315649930296
0.38382978723404254 0.6196216196659741 0.44921259314851214
0.38404255319148933 0.6151527092301149 0.446061083692046
0.3842553191489362 0.6083261262845188 0.44406448461162684
0.384468085106383 0.6033798240135818 0.4437198033260507
0.38468085106382977 0.5959248785302532 0.440687142687417
0.3848936170212766 0.5879418384283215 0.43430071060587166
0.3851063829787234 0.5793890329223685 0.4333170493404983
0.3853191489361702 0.5667102090998167 0.43632636023631066
0.38553191489361704 0.5538402732391877 0.43257591633831705
0.38574468085106384 0.5415747207154186 0.424516281774827
0.38595744680851063 0.5281158224161283 0.42128614618299726
0.3861702127659574 0.5165333012221232 0.41746127562324287
0.38638297872340427 0.5063670985341173 0.4136274853677001
0.38659574468085106 0.49359239245976316 0.41275648268081233
0.38680851063829785 0.4808176863854091 0.41188547999392455
0.3870212765957447 0.4680429803110517 0.4110144773070365
0.3872340425531915 0.45798479981598855 0.4108451392281387
0.3874468085106383 0.44858221918678115 0.4108451392281387
0.3876595744680851 0.43950864833093917 0.40863198888782265
0.3878723404255319 0.43054830267719024 0.4050478506263231
0.3880851063829787 0.42150982539227416 0.4014324597123567
0.3882978723404255 0.40630635044974817 0.39881539860931026
0.38851063829787236 0.3909394477005459 0.39744910385451326
0.38872340425531915 0.3743541380542651 0.39929570499752165
0.38893617021276594 0.36237518335665403 0.4015845627424454
0.3891489361702128 0.3465016190485671 0.40364442574830206
0.3893617021276596 0.3383066993506851 0.4048596471608165
0.3895744680851064 0.3275683243578726 0.40952783231323775
0.38978723404255317 0.32391731466662443 0.41180304734649714
0.39 0.31982410466325195 0.42000332263153595
0.3902127659574468 0.3178320573758851 0.4272604892273751
0.3904255319148936 0.32486565705911086 0.43589572823500383
0.39063829787234045 0.3264044482706149 0.4453834485072017
0.39085106382978724 0.33170493404982904 0.4524160945535277
0.39106382978723403 0.33302377630756935 0.46003892042090583
0.3912765957446808 0.3367676570483823 0.46185852663148064
0.39148936170212767 0.33634109322511885 0.4611147808664564
0.39170212765957446 0.3346546413982475 0.46065556866526003
0.39191489361702125 0.33507615882667857 0.4559385832083424
0.3921276595744681 0.33172174159807294 0.44994352958048633
0.3923404255319149 0.33103435462749775 0.44283864402054146
0.3925531914893617 0.3296088517134599 0.43806024399484733
0.39276595744680853 0.3265025187103177 0.4357110098681063
0.3929787234042553 0.3242051122958695 0.4352711284807034
0.3931914893617021 0.32037204978215306 0.43878769618755864
0.3934042553191489 0.3162360585505586 0.4429236874191531
0.39361702127659576 0.31115845291027117 0.45491219546866757
0.39382978723404255 0.3088580971062614 0.46217609443716456
0.39404255319148934 0.3032009340936544 0.4697647983011939
0.3942553191489362 0.2952138488848337 0.4782608695652173
0.394468085106383 0.293600390815828 0.4796727474237426
0.3946808510638298 0.2938551744901005 0.487181617533277
0.39489361702127657 0.2957312655783792 0.4882964586997622
0.3951063829787234 0.29750854909623836 0.49096178682929575
0.3953191489361702 0.29750854909623836 0.49016760313269675
0.395531914893617 0.30478270167481203 0.4918038825510918
0.39574468085106385 0.312361109495915 0.4922213329926572
0.39595744680851064 0.3182712850012995 0.4908733276373123
0.39617021276595743 0.32401390510862954 0.4887851021437377
0.3963829787234043 0.33063777867268 0.48746843977017607
0.39659574468085107 0.34153014230201706 0.4898889650211398
0.39680851063829786 0.3536424965321551 0.49287869158991615
0.39702127659574465 0.36608437493116586 0.49574211859998685
0.3972340425531915 0.37450465985847514 0.4949766381520497
0.3974468085106383 0.3882563660961854 0.49417139495742024
0.3976595744680851 0.4011118896675389 0.49193013701154714
0.39787234042553193 0.41605078062325596 0.4909623839765511
0.3980851063829787 0.4332467635296448 0.4894763570823769
0.3982978723404255 0.4514747723546032 0.49059158980675643
0.3985106382978723 0.4674781639806124 0.4867403026105986
0.39872340425531916 0.490193584493082 0.478868117931677
0.39893617021276595 0.517182028903646 0.4717164903985898
0.39914893617021274 0.5477961490440576 0.46066233801754536
0.3993617021276596 0.5627424756292865 0.45905215856086123
0.3995744680851064 0.5826581982229189 0.4493366776450059
0.3997872340425532 0.5977290840684486 0.4379057850455551
0.4 0.6103947460451327 0.43609247837342896
0.4002127659574468 0.6160234489496825 0.4320548502779224
0.4004255319148936 0.6163487821846485 0.4291909623715727
0.4006382978723404 0.6180675664812695 0.43497546142112986
0.40085106382978725 0.6132823355824156 0.4348370920848256
0.40106382978723404 0.6140693698094772 0.4425279975877155
0.40127659574468083 0.6143371976424646 0.44699560332193444
0.4014893617021277 0.6144706135118884 0.4484350929911631
0.40170212765957447 0.612011426886453 0.45242125284890833
0.40191489361702126 0.6099670054748006 0.45344346355473447
0.40212765957446805 0.6126406507235197 0.4515796814952108
0.4023404255319149 0.6103896598547379 0.4498124978694068
0.4025531914893617 0.6123943433099504 0.4490892087824788
0.4027659574468085 0.6144245652047556 0.44850594045112896
0.40297872340425533 0.6164671681976032 0.4414448265995405
0.4031914893617021 0.6166525818173794 0.43864930825211046
0.4034042553191489 0.6124790758728061 0.43507881733791864
0.40361702127659577 0.6097433337639709 0.42864228396119247
0.40382978723404256 0.6058530918556803 0.4234352313350594
0.40404255319148935 0.6033219345383487 0.41872552825652837
0.40425531914893614 0.6012968829377345 0.41670737664875435
0.404468085106383 0.5956251684956321 0.4185419052708556
0.4046808510638298 0.589737619575047 0.42240311155417387
0.4048936170212766 0.5804368655334565 0.42752042119675665
0.4051063829787234 0.5696735558228165 0.4328219199495574
0.4053191489361702 0.5610556355935413 0.4348777077320508
0.405531914893617 0.5540412743913358 0.4368081347761713
0.4057446808510638 0.5431479221181258 0.4390232608790771
0.40595744680851065 0.5327753722050836 0.4407919402232654
0.40617021276595744 0.5213624257908378 0.44246898759206
0.40638297872340423 0.510275455886693 0.443794144689787
0.4065957446808511 0.49862292516084333 0.44630176748848965
0.40680851063829787 0.48881174744417943 0.44699560332193444
0.40702127659574466 0.47721898381136363 0.44781520681233267
0.4072340425531915 0.46762156295826535 0.4479726428920372
0.4074468085106383 0.4602350416329136 0.4470724495933124
0.4076595744680851 0.44741805721406586 0.44888468955565797
0.4078723404255319 0.4378607795200168 0.448036200081948
0.40808510638297874 0.42676704256374687 0.444169673780342
0.4082978723404255 0.4184704053621083 0.4401226115500075
0.4085106382978723 0.40147057086992394 0.4371006621436319
0.40872340425531917 0.3871273826551393 0.4346055505257608
0.40893617021276596 0.3714506882792813 0.43714686815158327
0.40914893617021275 0.360107010652811 0.42925171188757144
0.40936170212765954 0.34836018381255623 0.4286227016969076
0.4095744680851064 0.33887297018391405 0.4305698339149724
0.4097872340425532 0.33201375218628004 0.4348425092451856
0.41 0.3274943073111247 0.43745804188398196
0.4102127659574468 0.32778754578076313 0.438543310362138
0.4104255319148936 0.3319242333870022 0.4367200474656223
0.4106382978723404 0.33601868777259725 0.43917928676111373
0.41085106382978726 0.3365901319003419 0.4369123494164215
0.41106382978723405 0.33909900177206315 0.4322869930132238
0.41127659574468084 0.34037817386406205 0.4298373526867941
0.41148936170212763 0.33774202540387316 0.4258504406465347
0.4117021276595745 0.3334055404984041 0.420998980517922
0.41191489361702127 0.3290378349786762 0.41763817105569745
0.41212765957446806 0.3263807169950774 0.41387525910007195
0.4123404255319149 0.3228426188615039 0.42104943222954494
0.4125531914893617 0.3171856860642637 0.42117222749720273
0.4127659574468085 0.3169072371271146 0.4222854073270187
0.4129787234042553 0.31354027308567783 0.4322195494540536
0.41319148936170214 0.31572894899841025 0.43762999397471564
0.41340425531914893 0.31443401633418494 0.4455745278640228
0.4136170212765957 0.3108399635218172 0.45191299072118224
0.41382978723404257 0.305066609374434 0.4622875066533033
0.41404255319148936 0.30613115839493354 0.470738605245587
0.41425531914893615 0.3016078289118412 0.4808097452051402
0.414468085106383 0.3004396678065462 0.4880791268630866
0.4146808510638298 0.30035736093210347 0.49821319533948266
0.4148936170212766 0.29856893453179867 0.5078220942646683
0.4151063829787234 0.30033773396527785 0.5111282508991988
0.4153191489361702 0.30664287356536934 0.5158998257364275
0.415531914893617 0.3093356860360656 0.5187513726069031
0.4157446808510638 0.31416184726530205 0.5189977397703509
0.41595744680851066 0.31850354993950575 0.5142250056761433
0.41617021276595745 0.3249367766462638 0.5121473790148078
0.41638297872340424 0.33336549107735763 0.5119270960331213
0.4165957446808511 0.34009868605594745 0.5091042167109163
0.4168085106382979 0.3473875980914062 0.5063501022382053
0.41702127659574467 0.35582005316528026 0.5018652543162363
0.41723404255319146 0.3668203698194578 0.49812823093067743
0.4174468085106383 0.3808413944883987 0.49476318501013156
0.4176595744680851 0.389907718435493 0.4932131717368432
0.4178723404255319 0.40529281858856436 0.48743796577259835
0.41808510638297874 0.42457074665983713 0.48293294538250936
0.41829787234042554 0.4423293720115247 0.48368908442814973
0.41851063829787233 0.46020142423180993 0.4675764364258587
0.4187234042553191 0.48148329397710754 0.44572725805024954
0.41893617021276597 0.5089997811648457 0.42162500437806993
0.41914893617021276 0.5348629686390947 0.3971519702334841
0.41936170212765955 0.5638847101772501 0.38590165562171214
0.4195744680851064 0.5768869983638326 0.380579774130686
0.4197872340425532 0.5921182182736289 0.37901200086772646
0.42 0.6053310888083717 0.3901213205033303
0.42021276595744683 0.606805787494143 0.40431853590678646
0.4204255319148936 0.6123938466290223 0.4181001564475049
0.4206382978723404 0.6140693698094772 0.4283262843938351
0.4208510638297872 0.61476090875283 0.4383227848808643
0.42106382978723406 0.617835156361836 0.4469890824798482
0.42127659574468085 0.6205842979119806 0.4541652185590543
0.42148936170212764 0.6222532444905678 0.4587200781631655
0.4217021276595745 0.6224537396491232 0.4607650096195521
0.4219148936170213 0.6250835859651761 0.4640621188129469
0.4221276595744681 0.6292302275037222 0.46256125901295686
0.42234042553191486 0.6318979672452306 0.46122314838189876
0.4225531914893617 0.6330239113403047 0.4593061973885756
0.4227659574468085 0.6320065396185899 0.457743038593063
0.4229787234042553 0.6303154076522529 0.4557320269644566
0.42319148936170214 0.626165806086844 0.4498612443007708
0.42340425531914894 0.6240678397523967 0.4412319549381547
0.42361702127659573 0.6214510223300321 0.43599429585381894
0.4238297872340426 0.6193379438166234 0.4289883165464156
0.42404255319148937 0.6124722764823759 0.42097252074226843
0.42425531914893616 0.6077344672773966 0.41963849535906195
0.42446808510638295 0.6063343782075916 0.4133684930808898
0.4246808510638298 0.5958958092522654 0.40809138018816604
0.4248936170212766 0.5885725458793218 0.405949519699016
0.4251063829787234 0.5792091262547228 0.4049829018075233
0.42531914893617023 0.5670249445745771 0.4052893287457265
0.425531914893617 0.5555159997556947 0.4084940435910101
0.4257446808510638 0.542290697949357 0.4121663019957893
0.4259574468085106 0.5295628676234575 0.41356795240597516
0.42617021276595746 0.520170402316786 0.4145541739497671
0.42638297872340425 0.505591946009981 0.421412785496112
0.42659574468085104 0.4940739517307315 0.42684494672443196
0.4268085106382979 0.4814337641394598 0.4316087205099733
0.4270212765957447 0.4708495392985281 0.4382579361849578
0.4272340425531915 0.4598603221420541 0.445811047857251
0.4274468085106383 0.45066463600569656 0.45184370648956773
0.4276595744680851 0.443251153629258 0.4527971015166874
0.4278723404255319 0.4344074101779619 0.45128324530364977
0.4280851063829787 0.42185287185961606 0.45023605626485524
0.42829787234042555 0.40919518919057096 0.4484231465392588
0.42851063829787234 0.3952787963337473 0.44846447718845095
0.42872340425531913 0.380214779436432 0.4531999738610766
0.428936170212766 0.36717023049867314 0.4571762729793449
0.42914893617021277 0.353063554216753 0.45860120677745747
0.42936170212765956 0.34371614342729384 0.4616678877251021
0.42957446808510635 0.3365793968180017 0.4675241693764291
0.4297872340425532 0.333165654853048 0.4709379113413829
0.43 0.3272707638782203 0.473740682463804
0.4302127659574468 0.3258426966292134 0.4719077861976176
0.43042553191489363 0.3344197318733326 0.4671330749524396
0.4306382978723404 0.33383576522389113 0.46298174051128993
0.4308510638297872 0.337375560472936 0.4635573732643015
0.43106382978723407 0.3385409442534126 0.4626315032307105
0.43127659574468086 0.3385906624054848 0.45778948995800056
0.43148936170212765 0.3394305517060834 0.45917357268599734
0.43170212765957444 0.3375854751538452 0.4637422382832075
0.4319148936170213 0.3299290004363886 0.4652281096250322
0.4321276595744681 0.3209574987787005 0.46929918545691035
0.4323404255319149 0.3199841666885498 0.47361529725729024
0.4325531914893617 0.31590479766213614 0.47728382999511476
0.4327659574468085 0.3134713941458182 0.4782744657789301
0.4329787234042553 0.31338096234595153 0.4776345406583146
0.4331914893617021 0.3113614088331764 0.47297430480740404
0.43340425531914895 0.30977450438970705 0.47196307302673696
0.43361702127659574 0.3101777791919933 0.47142159257449934
0.43382978723404253 0.30860281008704954 0.4703878753782492
0.4340425531914894 0.305742307574222 0.4677887204754751
0.43425531914893617 0.302315678846915 0.4689437441721015
0.43446808510638296 0.2997937336583447 0.4697986188561951
0.4346808510638298 0.2981473871790241 0.4681522723768746
0.4348936170212766 0.2981774678448636 0.46684451554546363
0.4351063829787234 0.29989977469894935 0.4679505807565947
0.4353191489361702 0.3004396678065462 0.46548171021425616
0.43553191489361703 0.30361749810244715 0.4677601458796821
0.4357446808510638 0.3118413663763802 0.4651600115133365
0.4359574468085106 0.31912421946980996 0.46629175479861823
0.43617021276595747 0.3261206453817694 0.4639048863640558
0.43638297872340426 0.33320752383982594 0.4636052760136786
0.43659574468085105 0.33841882309089377 0.45884546611281896
0.43680851063829784 0.3465601313634904 0.46165119687347334
0.4370212765957447 0.35903895080968035 0.4618300621923011
0.4372340425531915 0.37398998884154033 0.4644915311580145
0.4374468085106383 0.37834007822181226 0.4634643323514066
0.4376595744680851 0.3912826912469944 0.4629919192099778
0.4378723404255319 0.40766323337807725 0.464367176104919
0.4380851063829787 0.424271742205814 0.46229948770058954
0.43829787234042555 0.44096366844984614 0.45781059004417757
0.43851063829787235 0.4626787671398588 0.45441099791545775
0.43872340425531914 0.4845761028593815 0.4468723605033586
0.43893617021276593 0.510329137135178 0.43661252307271237
0.4391489361702128 0.5379653320391147 0.4323684150361299
0.43936170212765957 0.5598636010415241 0.4292817792706399
0.43957446808510636 0.5755695085680973 0.42745481191988266
0.4397872340425532 0.597423275778657 0.4279926123261781
0.44 0.6112120559890658 0.4305335404099832
0.4402127659574468 0.6154607294931316 0.4362430217315651
