0.0 0.4509037616023448 0.46458231558378116
0.0002127659574468085 0.4534403776630947 0.46077739149265623
0.000425531914893617 0.45251648162379166 0.45596555225240937
0.0006382978723404255 0.4514389312881764 0.44680900371881366
0.000851063829787234 0.4518099107630733 0.4301301011168133
0.0010638297872340426 0.4509037616023448 0.41093788709096774
0.001276595744680851 0.45212911421645874 0.3993527648249764
0.0014893617021276596 0.4499457405021967 0.39134238476599575
0.001702127659574468 0.45147783313994017 0.38935026868588185
0.0019148936170212765 0.45188080117244755 0.3845455286660247
0.002127659574468085 0.4537395057216926 0.38727752129421456
0.002340425531914894 0.4534577621690001 0.3976121918122972
0.002553191489361702 0.456032228659181 0.4110725574552213
0.0027659574468085106 0.4571317528515323 0.4286672072394787
0.0029787234042553193 0.45971340102731184 0.44362888553221747
0.0031914893617021275 0.46165119687347334 0.45797039476794693
0.003404255319148936 0.46312674859400066 0.46557933988463035
0.003617021276595745 0.4636052760136786 0.46740119070354463
0.003829787234042553 0.46456488871471824 0.4615989162662845
0.004042553191489362 0.4633066618315917 0.458869385254209
0.00425531914893617 0.4605080974089919 0.4599828925993886
0.004468085106382979 0.4569021337242597 0.4640377767785841
0.004680851063829788 0.45523204175026427 0.4740596508901267
0.004893617021276595 0.45481191988275516 0.48725080610723864
0.005106382978723404 0.4539860836444936 0.49509156516785896
0.005319148936170213 0.45191429741685024 0.4929667074833602
0.005531914893617021 0.45066904588409107 0.48380921010553996
0.00574468085106383 0.44919815069968433 0.47112262419672674
0.005957446808510639 0.45105689279107286 0.45863740818325854
0.006170212765957446 0.45183954850535224 0.4472159807708671
0.006382978723404255 0.44814568423479734 0.43396236474569555
0.006595744680851064 0.4460185637518319 0.42545975534731667
0.006808510638297872 0.4474314538448943 0.4214273184998789
0.007021276595744681 0.44713820086948364 0.41560888279384406
0.00723404255319149 0.447959952278753 0.4099315527244572
0.007446808510638298 0.4472336914737929 0.4010994304897818
0.007659574468085106 0.44844940979569375 0.391233830537719
0.007872340425531916 0.4477442889895157 0.3783932205234671
0.008085106382978723 0.4504062406082245 0.36982147889592215
0.008297872340425531 0.45188080117244755 0.3629498593534428
0.00851063829787234 0.4533708395206101 0.35482394736423484
0.008723404255319148 0.4538348803126526 0.3452606775513463
0.008936170212765958 0.4521199561875498 0.33585224734534164
0.009148936170212766 0.4575735740795429 0.34130586523733475
0.009361702127659575 0.45676599902296044 0.34469828637022304
0.009574468085106383 0.45759327184030496 0.36301297549706435
0.00978723404255319 0.45926797923650736 0.38193615166436645
0.01 0.4603775907007154 0.40266316143216946
0.010212765957446808 0.4614871744623605 0.4218993346317695
0.010425531914893617 0.46165119687347334 0.4422460691657477
0.010638297872340425 0.45863688813127046 0.4611945383073798
0.010851063829787235 0.457743038593063 0.47947410243441035
0.011063829787234043 0.4563294862631932 0.4874076137786082
0.01127659574468085 0.4548098971927205 0.49290634966658237
0.01148936170212766 0.45703296873693355 0.49904567025134483
0.011702127659574468 0.4569867661021458 0.5035371025620606
0.011914893617021277 0.4594367718082728 0.509982483528612
0.012127659574468085 0.4607693615330804 0.507810067242569
0.012340425531914893 0.46262823644357587 0.5127967186454297
0.012553191489361702 0.4629266405418587 0.5141129295607304
0.01276595744680851 0.46317268576668863 0.5108387526069711
0.01297872340425532 0.46371937643566064 0.501025216715787
0.013191489361702127 0.46394488838684195 0.48883588266073236
0.013404255319148937 0.4636052760136786 0.4761302594725368
0.013617021276595745 0.4636052760136786 0.46298706246118926
0.013829787234042552 0.4635596014483584 0.4508276373268111
0.014042553191489362 0.4602304737153339 0.44572277469314064
0.01425531914893617 0.4583097685808411 0.4434977546238487
0.01446808510638298 0.4601084509151221 0.4384084068347368
0.014680851063829787 0.4585515242219735 0.4343783658811969
0.014893617021276596 0.4561064246913121 0.4359307028123519
0.015106382978723404 0.4557889594528579 0.44102134893701267
0.015319148936170212 0.4557889594528579 0.45231453268059446
0.015531914893617021 0.4556984854302043 0.46130747546194584
0.01574468085106383 0.45458461380275217 0.4702411072541247
0.015957446808510637 0.4531121842722808 0.4817673452766216
0.016170212765957447 0.4508856725772944 0.4885650076139209
0.016382978723404256 0.4486622158290939 0.4972849149922933
0.016595744680851062 0.447205912311309 0.49919931851612087
0.01680851063829787 0.44431135994255283 0.49698920495111726
0.01702127659574468 0.4448059762403592 0.49272802476366007
0.01723404255319149 0.4401563263312165 0.4882996647225998
0.017446808510638297 0.44045145681263964 0.48421475511166595
0.017659574468085106 0.43987359739715787 0.4851084876886703
0.017872340425531916 0.4382022471910112 0.4857356748623372
0.018085106382978722 0.4409026221748071 0.4804456924319345
0.01829787234042553 0.44057990466883945 0.47311590592499136
0.01851063829787234 0.43928124923206213 0.46354589868211143
0.01872340425531915 0.4381087421684632 0.4605806522808228
0.018936170212765956 0.4354351895845558 0.45692273307380116
0.019148936170212766 0.43713326266599123 0.45433299843452535
0.019361702127659575 0.44047305240210066 0.45688052816573843
0.01957446808510638 0.44040471440409884 0.4574946505201805
0.01978723404255319 0.442000045910997 0.4580148883756947
0.02 0.44728850407328324 0.45690282678671124
0.02021276595744681 0.4469978657176189 0.4528668903252878
0.020425531914893616 0.4527246712251662 0.44823898192680495
0.020638297872340425 0.45321684126711426 0.4501939300511756
0.020851063829787235 0.45756383768873504 0.45289835826678154
0.02106382978723404 0.459251513457964 0.46057187710604347
0.02127659574468085 0.4616950256352528 0.46191843838113494
0.02148936170212766 0.46182730793376975 0.462276014322983
0.02170212765957447 0.46165119687347334 0.46543477942675093
0.021914893617021276 0.46314965657431717 0.4664452708361139
0.022127659574468085 0.45804791405197715 0.466679628672531
0.022340425531914895 0.45648790476458095 0.4735898069071504
0.0225531914893617 0.45547102780792703 0.48196432207748313
0.02276595744680851 0.45341612513289303 0.48454186216559253
0.02297872340425532 0.4498264868158043 0.48612730373425717
0.023191489361702126 0.44485342141026984 0.48705422569614076
0.023404255319148935 0.45028525993275537 0.4879429078848734
0.023617021276595745 0.4402608896585096 0.4945307114432587
0.023829787234042554 0.4439236294396409 0.4816056071576841
0.02404255319148936 0.44257766735440257 0.4777510918780958
0.02425531914893617 0.4404177619092768 0.4763067904250122
0.02446808510638298 0.44238813148738504 0.4772236032039468
0.024680851063829785 0.4431778941778082 0.47712460173560783
0.024893617021276595 0.441133365901319 0.4776646978965561
0.025106382978723404 0.44192391478308474 0.4837947117375775
0.025319148936170214 0.44473991477301733 0.4859766496564673
0.02553191489361702 0.4460365173785899 0.49390247950023775
0.02574468085106383 0.44809580108667274 0.4946242258676904
0.02595744680851064 0.44918552958400193 0.49197307462930745
0.026170212765957445 0.4495770533511086 0.4879592987929447
0.026382978723404255 0.44987335430356995 0.48192066283960183
0.026595744680851064 0.44802893658733 0.4761338999891089
0.026808510638297874 0.4473924184375673 0.47326896882630676
0.02702127659574468 0.45116027002908143 0.47638316606590714
0.02723404255319149 0.44555052549702207 0.47547517980213616
0.0274468085106383 0.4451243044378753 0.4730859408181936
0.027659574468085105 0.44652817928003713 0.4660689706820889
0.027872340425531914 0.4451521561411988 0.45925458989539075
0.028085106382978724 0.4472012930194813 0.4410304940390343
0.028297872340425533 0.4445220661314932 0.41991044728781984
0.02851063829787234 0.44430660809204914 0.40011479525383636
0.02872340425531915 0.4500961594551519 0.3776273792094351
0.02893617021276596 0.45020709259045805 0.3608844506411038
0.029148936170212764 0.44897388626350443 0.34286383394415754
0.029361702127659574 0.4466651430895634 0.32827295928052325
0.029574468085106383 0.4528578407425501 0.31247432778246687
0.029787234042553193 0.4531725102965516 0.30787525299716934
0.03 0.45512155946224636 0.31676271272591416
0.03021276595744681 0.4583912231074244 0.34068259969513565
0.030425531914893618 0.460288054511406 0.37072307395004517
0.030638297872340424 0.46397370429094914 0.39605195887040606
0.030851063829787233 0.4632447917749723 0.4161446818144821
0.031063829787234043 0.46262823644357587 0.4284838434657626
0.03127659574468085 0.4674709798917705 0.4364392128612393
0.03148936170212766 0.46623617056467836 0.445853702674683
0.03170212765957447 0.47246491525582707 0.45317666913520416
0.031914893617021274 0.4734686172131101 0.4633834656964276
0.03212765957446809 0.4674837330666817 0.47139189134709203
0.03234042553191489 0.46887587272949993 0.4757422345338811
0.0325531914893617 0.46496038626888514 0.4850500227047889
0.03276595744680851 0.4701390083846119 0.48558111562714323
0.03297872340425532 0.468705835112403 0.4896264089927626
0.033191489361702124 0.4684904738641915 0.4929764512685663
0.03340425531914894 0.4680983478467731 0.49506660526567065
0.03361702127659574 0.46297379426887236 0.49797443987991735
0.033829787234042556 0.46429897527007324 0.49764533928254007
0.03404255319148936 0.46320794922397407 0.49367856188784803
0.03425531914893617 0.46262823644357587 0.4904126072527918
0.03446808510638298 0.46262823644357587 0.487153548791826
0.03468085106382979 0.4611651223275905 0.4824194008360744
0.03489361702127659 0.4623707351086265 0.4786471215676414
0.035106382978723406 0.45782111606681064 0.47633802141451126
0.03531914893617021 0.458409680050405 0.4678696776386704
0.03553191489361702 0.4557889594528579 0.46174294512486436
0.03574468085106383 0.4553123729482675 0.4570758174866364
0.03595744680851064 0.45124891688202184 0.4502134510429907
0.036170212765957444 0.45312303861482256 0.44673040544966197
0.036382978723404256 0.45310155976323707 0.44491858292770853
0.03659574468085106 0.4514117492496349 0.44402554888714935
0.03680851063829787 0.4509037616023448 0.44618818901687046
0.03702127659574468 0.4495398095226208 0.4449496752023484
0.03723404255319149 0.4457818058128135 0.44723236126095306
0.0374468085106383 0.44955588219919823 0.4479726428920372
0.03765957446808511 0.44301672477290005 0.4472431242621186
0.03787234042553191 0.4414202053957845 0.45369146056541987
0.038085106382978726 0.44334048210662935 0.45386998900297104
0.03829787234042553 0.44406448461162684 0.4588019363244637
0.03851063829787234 0.44286581193938024 0.4618291213287449
0.03872340425531915 0.4421321400617761 0.4616729314638279
0.03893617021276596 0.4406755262705744 0.4644371755217882
0.03914893617021276 0.4413116298204721 0.4641377931143115
0.039361702127659576 0.4404704214297169 0.4627852839928261
0.03957446808510638 0.4401563263312165 0.4570477026797483
0.03978723404255319 0.44040789763718025 0.45676599902296044
0.04 0.44423528595596046 0.4559119923012923
0.04021276595744681 0.4450415241817294 0.4513158134550964
0.04042553191489362 0.44582727156292096 0.4511053431040297
0.040638297872340426 0.4479993344174369 0.4493447819082917
0.04085106382978723 0.44894968246213973 0.44479557962985367
0.041063829787234045 0.4482299857370208 0.44406448461162684
0.04127659574468085 0.4546014102173769 0.4415786968646244
0.04148936170212766 0.4492702592047329 0.4383396372235511
0.04170212765957447 0.44992672203224227 0.4382022471910112
0.041914893617021276 0.45114652274715855 0.43747036676206147
0.04212765957446808 0.459236435024585 0.4323400097703958
0.042340425531914895 0.45639321772264546 0.43267746498800014
0.0425531914893617 0.4529501295265313 0.43508655091274107
0.04276595744680851 0.45188080117244755 0.4398254863624535
0.04297872340425532 0.4506764436509774 0.43970169042848145
0.043191489361702126 0.44992672203224227 0.44104934795763967
0.04340425531914894 0.44828163924699105 0.44128786407879594
0.043617021276595745 0.45077666314404324 0.44206803931865435
0.04382978723404255 0.4451103895754847 0.44322517582903476
0.044042553191489364 0.4460185637518319 0.4443211665649946
0.04425531914893617 0.44543864692651447 0.44200324113929523
0.044468085106382976 0.4448659795184011 0.444465232065014
0.04468085106382979 0.4480551082668912 0.4465689325680239
0.044893617021276595 0.44806451364806255 0.4473519067639772
0.0451063829787234 0.44699560332193444 0.451388930443467
0.045319148936170214 0.45290090288493534 0.45623229763569345
0.04553191489361702 0.45193093744968504 0.45676599902296044
0.045744680851063826 0.4517096033351132 0.46093095405937234
0.04595744680851064 0.44992672203224227 0.4632136053384262
0.046170212765957445 0.44931959744371147 0.4595262608136155
0.04638297872340425 0.4475930364937403 0.453293494289568
0.046595744680851064 0.44699560332193444 0.4468508754866168
0.04680851063829787 0.44643941378362356 0.43766088916493434
0.047021276595744683 0.4460185637518319 0.42700460233945026
0.04723404255319149 0.4437042230652261 0.41660363157965513
0.047446808510638296 0.4430874450415241 0.4129954729267674
0.04765957446808511 0.438229251800139 0.4019437646607043
0.047872340425531915 0.43952970090229926 0.3943607916221782
0.04808510638297872 0.4352711284807034 0.39616203933902333
0.048297872340425534 0.43457393575772046 0.3994692607483991
0.04851063829787234 0.4333170493404983 0.3987206963021848
0.048723404255319146 0.4355611110138659 0.3988496315017282
0.04893617021276596 0.43854796338105495 0.399436326076937
0.049148936170212765 0.43995007033922656 0.40374536585558374
0.04936170212765957 0.4472258338795547 0.4085176555816924
0.049574468085106384 0.4518388746833036 0.410942967702808
0.04978723404255319 0.4491858746185319 0.42016443386097446
0.05 0.45186268886358333 0.44069545807023125
0.05021276595744681 0.4566898250655095 0.4554080896656029
0.050425531914893615 0.45994165643048673 0.4720744392462634
0.05063829787234043 0.46421529782831294 0.48580736999423646
0.050851063829787234 0.46215942297666635 0.49311175279739133
0.05106382978723404 0.4670835357945655 0.4970864676753506
0.05127659574468085 0.4669179496029997 0.4978016609672691
0.05148936170212766 0.4617478476947016 0.5025902079965539
0.051702127659574465 0.4663584796133188 0.5033970257218835
0.05191489361702128 0.4651905066504541 0.49992185825534635
0.052127659574468084 0.46688304696247834 0.49524865306814003
0.05234042553191489 0.46470232086441526 0.48979683782298244
0.0525531914893617 0.4636052760136786 0.48651226959890365
0.05276595744680851 0.46622762486538605 0.48476601170018435
0.05297872340425532 0.4660209312533369 0.48113810090432885
0.05319148936170213 0.4655593551538837 0.476924765621042
0.053404255319148934 0.4655593551538837 0.469808515417977
0.05361702127659575 0.4653247607321497 0.4561795129686254
0.05382978723404255 0.4607515426175955 0.44654577619399555
0.05404255319148936 0.456820355989923 0.44251738980602917
0.05425531914893617 0.45821038041321466 0.4378305628609978
0.05446808510638298 0.45338242469034135 0.43626259371590204
0.054680851063829784 0.45266196528974684 0.4335129247933015
0.0548936170212766 0.45244331706229574 0.4330357913955742
0.0551063829787234 0.4511183113917979 0.4340795391211478
0.05531914893617021 0.45005197281321624 0.4411083992236298
0.05553191489361702 0.44992672203224227 0.4392307529185315
0.05574468085106383 0.45062172156110636 0.4455686981648986
0.055957446808510634 0.44838374719169705 0.4631915042803771
0.05617021276595745 0.44835005736496375 0.4816674502937593
0.05638297872340425 0.4433399045393737 0.4971705122226454
0.056595744680851066 0.4427417968876863 0.5032230024799046
0.05680851063829787 0.4427724890518629 0.5017259050482389
0.05702127659574468 0.44060277002386133 0.49017933154465493
0.05723404255319149 0.44188561616594424 0.4758138417704097
0.0574468085106383 0.44308658305374243 0.4509244493091039
0.057659574468085104 0.44319711170122106 0.4364475806358602
0.05787234042553192 0.44406448461162684 0.419826716224035
0.05808510638297872 0.44406448461162684 0.4077770986490986
0.05829787234042553 0.4444403143716299 0.4049079714673332
0.05851063829787234 0.443338794472894 0.4113194799355017
0.05872340425531915 0.441133365901319 0.4225885072597256
0.058936170212765954 0.4404952638901293 0.43927958568021186
0.05914893617021277 0.44089984735361426 0.4792434912120281
0.05936170212765957 0.44256091256952873 0.4978368510816017
0.059574468085106386 0.44438187625649733 0.5078521513599291
0.05978723404255319 0.44435728110404443 0.5224281041916649
0.06 0.44327669945338116 0.537354055127539
0.06021276595744681 0.4413033242488753 0.5478429060486005
0.06042553191489362 0.4381803790185977 0.5503868523735009
0.06063829787234042 0.43722520762090866 0.5411701229111732
0.060851063829787236 0.4377051519123862 0.5274214241646757
0.06106382978723404 0.4381280258329111 0.5121603690864076
0.06127659574468085 0.4376343509520082 0.4977100234519764
0.06148936170212766 0.4368835351540101 0.4819502137815858
0.06170212765957447 0.4345839977597785 0.4673740910529885
0.06191489361702127 0.43669497797780066 0.4516008306776797
0.062127659574468086 0.433567094847154 0.4370608159474372
0.06234042553191489 0.4325060514928571 0.43005384718526785
0.0625531914893617 0.4361108891726807 0.42160866192249186
0.0627659574468085 0.43477083669771016 0.41472975351266506
0.06297872340425532 0.43223102821284615 0.4078401013301834
0.06319148936170213 0.4303859306301905 0.3987276821754262
0.06340425531914894 0.43384037916961893 0.388129165751267
0.06361702127659574 0.436934561674144 0.37496066183844645
0.06382978723404255 0.4396193822650578 0.3653790907063042
0.06404255319148935 0.44651314852492446 0.3575904176695062
0.06425531914893617 0.44874127813453213 0.35374165584386574
0.06446808510638298 0.44467781082225016 0.36682130831935467
0.06468085106382979 0.4485035959775902 0.37282546259514127
0.06489361702127659 0.4484286645553197 0.37716977218136805
0.0651063829787234 0.4455361087290047 0.38440442321312845
0.06531914893617022 0.44681058695261866 0.3940677694082532
0.06553191489361702 0.4493662020574725 0.40274082190844424
0.06574468085106383 0.45073472577191315 0.41225493546456143
0.06595744680851064 0.4472271268053548 0.42664447972791136
0.06617021276595744 0.4509037616023448 0.4347538069704352
0.06638297872340425 0.4509037616023448 0.44262601697015835
0.06659574468085107 0.4513486412964973 0.43784464767865633
0.06680851063829787 0.4515283765379354 0.43165521908473
0.06702127659574468 0.44939296687170466 0.42355572298477084
0.06723404255319149 0.4510296244704656 0.41051555037040593
0.06744680851063829 0.4505914434695107 0.3972467555899024
0.06765957446808511 0.44769815043379096 0.3880584265699059
0.06787234042553192 0.4495489766678872 0.37961015438636686
0.06808510638297872 0.44896532544777906 0.3747572470769002
0.06829787234042553 0.44835279250566207 0.38336632832581957
0.06851063829787234 0.45417982345166197 0.3931853660545351
0.06872340425531914 0.4593952546815739 0.4072102638334146
0.06893617021276596 0.45416365738073844 0.43203910760477376
0.06914893617021277 0.4568842155080473 0.4620179930371659
0.06936170212765957 0.4584040928724784 0.498466650634451
0.06957446808510638 0.46104303739175057 0.5335300478372121
0.06978723404255319 0.45898948836864806 0.5717548645395834
0.06999999999999999 0.4645608354215198 0.6037944981080978
0.07021276595744681 0.46333470348918127 0.6269813852765846
0.07042553191489362 0.4606791644741155 0.6411784625017656
0.07063829787234042 0.45738970216269514 0.6373738375963018
0.07085106382978723 0.4544427292752634 0.6128312657346286
0.07106382978723404 0.45072702277495424 0.5813067995528278
0.07127659574468086 0.44855106641198705 0.5501555826611594
0.07148936170212766 0.4471741113642946 0.5186110273173532
0.07170212765957447 0.4433631956248763 0.49890466330067784
0.07191489361702127 0.44410465285471856 0.4826238802555379
0.07212765957446808 0.4451942822413715 0.4690697304676175
0.07234042553191489 0.44628188318185064 0.4603345997233797
0.0725531914893617 0.44736912782216687 0.45452485202156623
0.07276595744680851 0.4479726428920372 0.45041701413686436
0.07297872340425532 0.44737487209043864 0.44992672203224227
0.07319148936170213 0.44841677509581424 0.4549008232408214
0.07340425531914893 0.44894968246213973 0.4543014220286407
0.07361702127659574 0.44988448891627597 0.45663929967506156
0.07382978723404256 0.450694032737199 0.4589997166500266
0.07404255319148936 0.4488800756156295 0.46317269607773126
0.07425531914893617 0.4516885035642422 0.4640976836809989
0.07446808510638298 0.4500320215502469 0.4574271400390494
0.07468085106382978 0.4502824863794012 0.44908375028461645
0.0748936170212766 0.4489948925102032 0.44401927456356327
0.07510638297872341 0.44930319497466115 0.4418403909263619
0.07531914893617021 0.44821487049020375 0.44774667364874327
0.07553191489361702 0.4496657914621721 0.4533130191725123
0.07574468085106383 0.4508852030090325 0.4567103232430235
0.07595744680851063 0.4501170691539061 0.45745751791056727
0.07617021276595745 0.4527167188236176 0.4527221257548301
0.07638297872340426 0.4551404644396433 0.4421232966222638
0.07659574468085106 0.4533973095684805 0.43231003135325674
0.07680851063829787 0.453405775662704 0.41923578811757345
0.07702127659574468 0.45712641699031764 0.4048995303419478
0.0772340425531915 0.451043871934714 0.3910956754301257
0.0774468085106383 0.4514571048968585 0.3833583842463418
0.07765957446808511 0.45358656681890436 0.37995234322547833
0.07787234042553191 0.4538348803126526 0.3956282763907128
0.07808510638297872 0.45198804428375927 0.4165583635500837
0.07829787234042553 0.45818480947259044 0.42669014236191827
0.07851063829787235 0.45543919551010054 0.442218783858675
0.07872340425531915 0.4565221000215529 0.45359242487571744
0.07893617021276596 0.4541160759262919 0.46364499687165034
0.07914893617021276 0.45566467958010504 0.4719015126535903
0.07936170212765957 0.45384707492730636 0.47239863214460187
0.07957446808510638 0.4556803402981533 0.4703902434270443
0.0797872340425532 0.4538348803126526 0.4686954432964303
0.08 0.45387345835324877 0.4602883768974095
0.08021276595744681 0.4547929266997031 0.4510936934328652
0.08042553191489361 0.45571513559850874 0.4436780358763176
0.08063829787234042 0.4592962419307914 0.4325655976077236
0.08085106382978724 0.4568885273164949 0.430426773394702
0.08106382978723405 0.45665720758548195 0.4255007327796776
0.08127659574468085 0.45492895283637375 0.4257347986869148
0.08148936170212766 0.4560496020936184 0.4292793104052063
0.08170212765957446 0.4574949895735164 0.4422909279925363
0.08191489361702127 0.4548702987796448 0.45453948503060343
0.08212765957446809 0.45567946082136807 0.4591496245758191
0.0823404255319149 0.45226098187982317 0.45881512334000946
0.0825531914893617 0.4536955574429179 0.4587200781631655
0.08276595744680851 0.4502841468551027 0.4551693447056156
0.08297872340425531 0.4491284228866338 0.45481191988275516
0.08319148936170212 0.44894968246213973 0.44923308712623555
0.08340425531914894 0.449424629106567 0.44984528318849826
0.08361702127659575 0.4494607747583095 0.4533237880164829
0.08382978723404255 0.4485151400759273 0.4543598388961801
0.08404255319148936 0.45377146796911266 0.4499795656518589
0.08425531914893616 0.4496285571803629 0.44908545740578437
0.08446808510638298 0.44754553565329563 0.44333309522676373
0.08468085106382979 0.44699560332193444 0.43793775223493636
0.0848936170212766 0.44612634807364104 0.4335986847119661
0.0851063829787234 0.4424297569415301 0.4306414118062773
0.08531914893617021 0.44329511008709016 0.42801652139885343
0.08553191489361701 0.4430550196608347 0.425720673636686
0.08574468085106383 0.4405728168783485 0.4238590215498213
0.08595744680851064 0.4388668526565404 0.4241913904768104
0.08617021276595745 0.4382022471910112 0.42748044254612677
0.08638297872340425 0.4388115849775056 0.43069059952343763
0.08659574468085106 0.4401563263312165 0.4313422687912068
0.08680851063829788 0.4401563263312165 0.4306862120607197
0.08702127659574468 0.44185798575929874 0.42910968605912875
0.08723404255319149 0.4442646803201542 0.42805539904546486
0.0874468085106383 0.4449391448499465 0.43007879263484183
0.0876595744680851 0.44681181033225253 0.43451659831474454
0.08787234042553191 0.4476778990673908 0.4401726458673723
0.08808510638297873 0.4470137687485055 0.4468139490562239
0.08829787234042553 0.4477198510730588 0.45061684207755565
0.08851063829787234 0.44910855811695355 0.4524487587849057
0.08872340425531915 0.44947944835680154 0.4519632933916685
0.08893617021276595 0.4497062192912488 0.4501472247732357
0.08914893617021276 0.4520791061412516 0.44581543035838844
0.08936170212765958 0.45420022012070044 0.44186404551741465
0.08957446808510638 0.4545042567745489 0.4440104343661428
0.08978723404255319 0.4530478658730123 0.44890428336384625
0.09 0.45182351887391103 0.45970922229197236
0.0902127659574468 0.45597371683499793 0.47356876223148875
0.09042553191489362 0.4578121005996403 0.4852118594075578
0.09063829787234043 0.46168265990646373 0.49519464360983423
0.09085106382978723 0.4642204885562412 0.5031427395533333
0.09106382978723404 0.46096268762372683 0.5088528983943361
0.09127659574468085 0.4636052760136786 0.5022368102535666
0.09148936170212765 0.4636052760136786 0.4892332329369713
0.09170212765957447 0.46135927565304785 0.4740349690988075
0.09191489361702128 0.4596446596563485 0.4663790204932273
0.09212765957446808 0.4582182516132966 0.46109614326433385
0.09234042553191489 0.45686607169585475 0.4543352436771241
0.0925531914893617 0.45611280206576144 0.44860930465506044
0.0927659574468085 0.45404418718918677 0.4460185637518319
0.09297872340425532 0.45081507298357837 0.44604073590652354
0.09319148936170213 0.4474570798978238 0.44688023417796213
0.09340425531914893 0.44888732459045827 0.4501484721028075
0.09361702127659574 0.44992672203224227 0.4523345796945729
0.09382978723404255 0.45033119853283393 0.4556891762466921
0.09404255319148937 0.450470476782388 0.4588305480933546
0.09425531914893617 0.44904719924563896 0.46038160695287306
0.09446808510638298 0.44705510968941053 0.4639111204145542
0.09468085106382979 0.44505038985755324 0.46457936035850655
0.09489361702127659 0.4428250316069799 0.47248610328944995
0.0951063829787234 0.4401563263312165 0.4749003320036725
0.09531914893617022 0.43925625236044025 0.4811919882755251
0.09553191489361702 0.43722520762090866 0.481593150814015
0.09574468085106383 0.43817131293274325 0.48216902784562765
0.09595744680851064 0.44138680305037536 0.4810652697009969
0.09617021276595744 0.44176343390435274 0.47756692643107973
0.09638297872340426 0.44267502022308364 0.4747651361032474
0.09659574468085107 0.441330723188443 0.4699609066521041
0.09680851063829787 0.4430754220563587 0.462568121517749
0.09702127659574468 0.4419887496849793 0.4570131038744095
0.09723404255319149 0.44160243366202695 0.44930092848855385
0.09744680851063829 0.4441320169110706 0.43939241278540814
0.09765957446808511 0.44830389174103397 0.4316775120724019
0.09787234042553192 0.4492067394129216 0.41742698733952266
0.09808510638297872 0.4493248511719562 0.40002747298878627
0.09829787234042553 0.45148727373681297 0.38897029928821486
0.09851063829787234 0.45101519511843496 0.380471341113577
0.09872340425531914 0.4490669731853984 0.380498267193329
0.09893617021276596 0.4534829934078664 0.3778369259875225
0.09914893617021277 0.4521853806657656 0.38752279172597376
0.09936170212765957 0.4525703933962623 0.3927982298049557
0.09957446808510638 0.45089948523437634 0.39521464429048153
0.09978723404255319 0.4484062767270946 0.39564613994155473
0.1 0.44733188029139737 0.39448767426349196
0.10021276595744681 0.450847075909186 0.3971240709768335
0.10042553191489362 0.45270184591724855 0.40076275387650984
0.10063829787234042 0.4520112386956479 0.4078475599023306
0.10085106382978723 0.4512672067019214 0.42423092185108485
0.10106382978723404 0.4509037616023448 0.44514864506707225
0.10127659574468086 0.4508609382335733 0.46904717765822074
0.10148936170212766 0.4494814214751159 0.4869808955181685
0.10170212765957447 0.44768439305151714 0.5006417128768458
0.10191489361702127 0.4457374417810098 0.5082610869398007
0.10212765957446808 0.4442649220802416 0.5016347482863432
0.10234042553191489 0.442575838599617 0.48510199655147446
0.1025531914893617 0.444914833343355 0.47821178593975583
0.10276595744680851 0.44875702644060556 0.47546736229886266
0.10297872340425532 0.44962858868927447 0.4766875633091791
0.10319148936170212 0.4494394698625381 0.48069459518304447
0.10340425531914893 0.44894968246213973 0.48681829418888406
0.10361702127659575 0.45147366644954284 0.492765229681839
0.10382978723404256 0.4543633725363316 0.4937092014522745
0.10404255319148936 0.45410504833733467 0.4829948533168031
0.10425531914893617 0.45756323068364907 0.46270623646660936
0.10446808510638297 0.454258338900948 0.44202992018955034
0.10468085106382978 0.45406148560925946 0.41994984271607944
0.1048936170212766 0.457743038593063 0.4015120590681523
0.1051063829787234 0.457743038593063 0.3869800378173106
0.10531914893617021 0.45812127860491525 0.3767745124364353
0.10553191489361702 0.4591336140472745 0.3707865168539326
0.10574468085106382 0.4610637157382062 0.37260864752718326
0.10595744680851064 0.46262823644357587 0.3780303425831667
0.10617021276595745 0.46161264415590064 0.38864309813878817
0.10638297872340426 0.45795667883623636 0.4039084372013276
0.10659574468085106 0.4574159211329004 0.4189799476283518
0.10680851063829787 0.45816459602004733 0.43161103635397785
0.10702127659574467 0.4554515914727334 0.444841094752042
0.1072340425531915 0.4562546587553049 0.46058287537295384
0.1074468085106383 0.4570791995165283 0.4685279119535903
0.1076595744680851 0.4560383803278415 0.47383322560500796
0.10787234042553191 0.4557889594528579 0.4768482116030355
0.10808510638297872 0.45374901563567754 0.49224341798777055
0.10829787234042552 0.4543746978424384 0.5053517479702209
0.10851063829787234 0.4546884730598526 0.5184499621044054
0.10872340425531915 0.45348965799154123 0.5344666875235928
0.10893617021276596 0.4550658891420939 0.5452463363181231
0.10914893617021276 0.45455752066852406 0.5495847581827065
0.10936170212765957 0.453524777834205 0.547940781520949
0.10957446808510639 0.4557889594528579 0.5431117590431915
0.1097872340425532 0.45454707417650925 0.5320982051173428
0.11 0.4538348803126526 0.5173733416319842
0.1102127659574468 0.4538348803126526 0.49129593503569213
0.11042553191489361 0.4522534300291361 0.4617964885882558
0.11063829787234042 0.45354704144335284 0.43343863523028503
0.11085106382978724 0.45205172209810884 0.40890257159283305
0.11106382978723404 0.44992516142885414 0.38249382505789425
0.11127659574468085 0.44959247555214593 0.3713350276973643
0.11148936170212766 0.4567113168666925 0.36628821465080863
0.11170212765957446 0.45082401676064726 0.3719729692631448
0.11191489361702127 0.45249080529670244 0.3872152542509892
0.11212765957446809 0.4521589984783802 0.406011562039607
0.1123404255319149 0.4536944397598276 0.42550677707935025
0.1125531914893617 0.45487370734768584 0.4400983921558813
0.1127659574468085 0.4534612705221872 0.4518234477138623
0.11297872340425531 0.4577060937048721 0.4594911754353618
0.11319148936170213 0.45510881618255017 0.4615769727985246
0.11340425531914894 0.4529408713356329 0.4606741573033708
0.11361702127659574 0.455651763585878 0.46081135317035066
0.11382978723404255 0.45505932121868237 0.4641252102327453
0.11404255319148936 0.4547058924433961 0.47069954790152474
0.11425531914893616 0.4557010899030723 0.47183688773472926
0.11446808510638298 0.45654775132823866 0.47924044666339244
0.11468085106382979 0.4578824017237584 0.4880588383613354
0.1148936170212766 0.46041863649276615 0.5025066841285182
0.1151063829787234 0.4606741573033708 0.510757444431611
0.11531914893617021 0.4579261674481655 0.5224721743695265
0.11553191489361703 0.45675353751813186 0.52612957774783
0.11574468085106383 0.4511704228845235 0.5233380204310258
0.11595744680851064 0.45088295457557137 0.5161989565850307
0.11617021276595745 0.44872594332885696 0.49953950430006877
0.11638297872340425 0.4458818905973664 0.4834600687023491
0.11659574468085106 0.44485154392763016 0.4714758691737119
0.11680851063829788 0.4433182110775724 0.4611176975668305
0.11702127659574468 0.441133365901319 0.4538348803126526
0.11723404255319149 0.4418553216133781 0.4552787917367709
0.1174468085106383 0.44195010265611834 0.45850126685000026
0.1176595744680851 0.43979352851326703 0.4615111068230151
0.11787234042553191 0.43983383043816127 0.4662186747763999
0.11808510638297873 0.441133365901319 0.47049619756809075
0.11829787234042553 0.441133365901319 0.4741388376220324
0.11851063829787234 0.441133365901319 0.4778117204273734
0.11872340425531915 0.44187475155542155 0.47603671260290975
0.11893617021276595 0.44211040547142155 0.4721153091440882
0.11914893617021277 0.44211040547142155 0.4646791280629013
0.11936170212765958 0.44377042832581465 0.456247429691656
0.11957446808510638 0.4470436968099899 0.44735186601483357
0.11978723404255319 0.44725369995600217 0.4365984623264745
0.12 0.44574767200927234 0.4265842997499159
0.1202127659574468 0.4476843328308874 0.4199855389783771
0.12042553191489362 0.4498936735656854 0.4141253766439683
0.12063829787234043 0.44912240510573875 0.399471275904981
0.12085106382978723 0.45142621117988296 0.3800921090112687
0.12106382978723404 0.4544440187578523 0.3644418047927238
0.12127659574468085 0.4562600781931266 0.3531302004129558
0.12148936170212765 0.4539002511356703 0.3431025547759717
0.12170212765957447 0.45476523522155476 0.33877763434654923
0.12191489361702128 0.4516794262780941 0.3369779642382166
0.12212765957446808 0.4509037616023448 0.34251642377657104
0.12234042553191489 0.4517946339004901 0.346657485034083
0.1225531914893617 0.45356470559095596 0.3472475089309049
0.12276595744680852 0.453003309090744 0.3531585657248314
0.12297872340425532 0.45207086172201505 0.3699164245728907
0.12319148936170213 0.45110880647179563 0.3953334871824906
0.12340425531914893 0.4524761976701201 0.4238750665098536
0.12361702127659574 0.45216796648215574 0.44872537035113047
0.12382978723404255 0.45259687125900044 0.4710874007540192
0.12404255319148937 0.4544978142138219 0.48532664451700763
0.12425531914893617 0.45111384750499167 0.49629940664054933
0.12446808510638298 0.45560847814458405 0.49450957964041375
0.12468085106382978 0.45353025138799746 0.4873272782227274
0.12489361702127659 0.45486201058567893 0.47651792565348927
0.1251063829787234 0.45030290482056196 0.4645771371861379
0.12531914893617022 0.4504184622881697 0.4553101010804349
0.125531914893617 0.4487278688644548 0.45083774739318394
0.12574468085106383 0.4479726428920372 0.4503487661344876
0.12595744680851065 0.4495707016519501 0.4485066734624754
0.12617021276595744 0.44992672203224227 0.45066043987870785
0.12638297872340426 0.4510233723701841 0.4610329896068887
0.12659574468085105 0.4545312099066991 0.4742232469889662
0.12680851063829787 0.4533627529214926 0.48863453180853317
0.1270212765957447 0.45481191988275516 0.5024360048345502
0.12723404255319148 0.45481191988275516 0.5104613917177812
0.1274468085106383 0.45598835194045667 0.512457254518808
0.1276595744680851 0.45480521411958796 0.5052677098731089
0.12787234042553192 0.45448987795252244 0.4912298570097615
0.1280851063829787 0.45481191988275516 0.4800215101732046
0.12829787234042553 0.453652996932452 0.470512175673496
0.12851063829787235 0.4522449113237566 0.4628588182112253
0.12872340425531914 0.45188080117244755 0.45609890721471885
0.12893617021276596 0.4505139286684981 0.45110113530475393
0.12914893617021275 0.4486234503209009 0.4492750861765716
0.12936170212765957 0.44857859187546073 0.45016158042898674
0.1295744680851064 0.4500661782395418 0.45369500104585025
0.12978723404255318 0.4513843685951012 0.4562695664456142
0.13 0.4522416901164757 0.45857044374310113
0.1302127659574468 0.45309518571324314 0.4609391619613942
0.13042553191489362 0.45371723417536586 0.458484785888592
0.13063829787234044 0.45312627770033514 0.4573028729385306
0.13085106382978723 0.4542580936478686 0.456299248054521
0.13106382978723405 0.4553829204985586 0.45863123213295265
0.13127659574468084 0.4541240308345713 0.4640040145399436
0.13148936170212766 0.45328052229508004 0.46759309860531123
0.13170212765957448 0.4553453485605754 0.4722217355912296
0.13191489361702127 0.45676599902296044 0.47435271128480694
0.1321276595744681 0.4557747166333558 0.4738570700900046
0.13234042553191488 0.4528578407425501 0.4709031633748582
0.1325531914893617 0.4528578407425501 0.4649246416410206
0.1327659574468085 0.4528578407425501 0.4639360645378173
0.13297872340425532 0.4522468221352532 0.46659690638314366
0.13319148936170214 0.4509037616023448 0.463536335887054
0.13340425531914893 0.4509037616023448 0.46165119687347334
0.13361702127659575 0.4509037616023448 0.46251834922365825
0.13382978723404254 0.44850246916623565 0.45928294962868205
0.13404255319148936 0.4460185637518319 0.45426406281758414
0.13425531914893618 0.4422783477047974 0.4500946642656181
0.13446808510638297 0.4415706599669616 0.4460868647110436
0.1346808510638298 0.44253394810350705 0.44351098767360975
0.13489361702127659 0.44192029004667616 0.4431596376652311
0.1351063829787234 0.4435234827960918 0.4473710682906695
0.13531914893617022 0.4430086661696636 0.45449680439531304
0.13553191489361702 0.4440491366010112 0.46527460332549103
0.13574468085106384 0.44380256231723564 0.47382886669602486
0.13595744680851063 0.44732295009322226 0.4838157631895882
0.13617021276595745 0.448726155691009 0.4902088711775793
0.13638297872340424 0.45079322972553876 0.48900830483634583
0.13659574468085106 0.449755911949636 0.49060197175345455
0.13680851063829788 0.45052581936773606 0.493216011784503
0.13702127659574467 0.45188080117244755 0.4952296784689362
0.1372340425531915 0.4511410424446257 0.49436806437142045
0.13744680851063829 0.4483602793265091 0.4964369849626946
0.1376595744680851 0.45169564693549247 0.4875171112885284
0.13787234042553193 0.4497666176740404 0.48055157084271766
0.13808510638297872 0.4476209720953239 0.46837311808086246
0.13829787234042554 0.4506545662295788 0.46088386883421373
0.13851063829787233 0.44992672203224227 0.4557889594528579
0.13872340425531915 0.450813158290669 0.45312965067757777
0.13893617021276597 0.4507734472955661 0.452141429786005
0.13914893617021276 0.44992672203224227 0.44917609646284307
0.13936170212765958 0.452243828991565 0.44699560332193444
0.13957446808510637 0.45197986419340475 0.44962953296937064
0.1397872340425532 0.4567613835133556 0.4381884006621966
0.13999999999999999 0.4548777240795994 0.4320767929830187
0.1402127659574468 0.45528365355777173 0.4270843691030889
0.14042553191489363 0.4533990269663421 0.4192625693696845
0.14063829787234042 0.45443522793373403 0.4138468773335459
0.14085106382978724 0.4538348803126526 0.4093947619767161
0.14106382978723403 0.4514755326308183 0.4073241835973723
0.14127659574468085 0.4492248776268692 0.40623513654235527
0.14148936170212767 0.4440744982620245 0.4043348799775873
0.14170212765957446 0.4449293073545041 0.4058477245504005
0.14191489361702128 0.4450973787395174 0.41039830276583483
0.14212765957446807 0.4456869832921575 0.4028630324374808
0.1423404255319149 0.44489160449169907 0.4023274897239062
0.1425531914893617 0.4466206384518875 0.4022788929272241
0.1427659574468085 0.4464786813915504 0.4006146258873944
0.14297872340425533 0.4475484033406395 0.4017561040131251
0.14319148936170212 0.4460242100248609 0.40497725553449426
0.14340425531914894 0.4450415241817294 0.4074695193215148
0.14361702127659573 0.44590773690213176 0.4157099350014531
0.14382978723404255 0.44698938653504344 0.42932807283050467
0.14404255319148937 0.4459145965630775 0.4416118669737781
0.14425531914893616 0.4454542371009586 0.4563111578280282
0.14446808510638298 0.44865154081831293 0.4672152926502622
0.14468085106382977 0.45167472113821916 0.47171737247558204
0.1448936170212766 0.44894968246213973 0.47185755885734887
0.1451063829787234 0.4480626475185916 0.46926183974633245
0.1453191489361702 0.4463585337533149 0.46551648471953716
0.14553191489361703 0.44661334170595035 0.4628407527817104
0.14574468085106382 0.4460185637518319 0.46165119687347334
0.14595744680851064 0.4460185637518319 0.4597508095371639
0.14617021276595746 0.44505957173922556 0.4572635425867598
0.14638297872340425 0.4449609797892795 0.4555706721194235
0.14659574468085107 0.44687056035796024 0.4530245646945157
0.14680851063829786 0.44699560332193444 0.4522128145880002
0.14702127659574468 0.44857540850477107 0.44832623951106515
0.14723404255319147 0.45073441690352056 0.44173268745093003
0.1474468085106383 0.45001416924694154 0.4359707061982974
0.14765957446808511 0.4492661601585252 0.43262888098583513
0.1478723404255319 0.44856175760123324 0.42942334589576037
0.14808510638297873 0.4478875458465387 0.42528641371280174
0.14829787234042552 0.4471820090947643 0.41540889918796153
0.14851063829787234 0.447926034630207 0.412799218368344
0.14872340425531916 0.4494220419826674 0.4140588437564177
0.14893617021276595 0.45188080117244755 0.42075051544850856
0.14914893617021277 0.45188080117244755 0.43670377793694715
0.14936170212765956 0.4504807529351494 0.4564028742758866
0.14957446808510638 0.45111457213919604 0.47726555224364603
0.1497872340425532 0.450769157262332 0.4955261593620195
0.15 0.45104045643087853 0.5054711948143726
0.15021276595744681 0.45427075172550824 0.5069745690300299
0.1504255319148936 0.4521383061144031 0.5019013199487505
0.15063829787234043 0.4493404658424062 0.4974108775870026
0.15085106382978725 0.44992672203224227 0.4951570274434848
0.15106382978723404 0.4503076998929355 0.4915584456859604
0.15127659574468086 0.44926782099879004 0.4913713691274398
0.15148936170212765 0.4496360309483565 0.49017913846237227
0.15170212765957447 0.45446856793396984 0.48749435620243675
0.15191489361702126 0.45514265823498085 0.48899312934977146
0.15212765957446808 0.4533031675679808 0.49300284903599734
0.1523404255319149 0.4537245419365928 0.5008271122392006
0.1525531914893617 0.4538348803126526 0.5056097895917098
0.15276595744680851 0.45746584895138936 0.5072024704793969
0.1529787234042553 0.4542225125119225 0.501699207151776
0.15319148936170213 0.45216179710208276 0.4899595596719655
0.15340425531914895 0.45252165749437945 0.4748360167346916
0.15361702127659574 0.450615503687422 0.4603646573003627
0.15382978723404256 0.44947486745939375 0.44588377492943676
0.15404255319148935 0.45118406011131834 0.42877221159794116
0.15425531914893617 0.4533364203700893 0.4140851288548004
0.154468085106383 0.45165373428440075 0.405755798495551
0.15468085106382978 0.452498734305901 0.39922094412675235
0.1548936170212766 0.45198983424659844 0.39727561832085345
0.1551063829787234 0.45091729854250434 0.40198409839641763
0.15531914893617021 0.4511542395640831 0.4127405979912817
0.155531914893617 0.4538348803126526 0.4248027121678396
0.15574468085106383 0.45442316023806706 0.4366472086122585
0.15595744680851065 0.4557889594528579 0.4451959198425691
0.15617021276595744 0.45626533835243666 0.44992672203224227
0.15638297872340426 0.45501333383272474 0.45051094376232076
0.15659574468085105 0.4545308903619766 0.45020775155302084
0.15680851063829787 0.45319610989073034 0.45235043702027966
0.1570212765957447 0.45469615400010394 0.45377699737132704
0.15723404255319148 0.4527448955092663 0.45193727378908943
0.1574468085106383 0.4512281246503609 0.45383092988659823
0.1576595744680851 0.4528578407425501 0.45980194938385965
0.15787234042553192 0.4522276878929083 0.4629433128683968
0.15808510638297874 0.4511897237425796 0.46560701099532165
0.15829787234042553 0.45113978839370816 0.4704445530043966
0.15851063829787235 0.45080232802252973 0.4678177350335344
0.15872340425531914 0.45188080117244755 0.4634980972406226
0.15893617021276596 0.4512274983663165 0.45805511680065936
0.15914893617021275 0.4501394082070859 0.4504384856860455
0.15936170212765957 0.4490580810850163 0.44200055488433176
0.1595744680851064 0.44699806127751884 0.43722397864311646
0.15978723404255318 0.44894968246213973 0.43581134183917436
0.16 0.4493910746233581 0.431457225447959
0.1602127659574468 0.4502407083115303 0.42677421826294903
0.16042553191489362 0.4485164905902315 0.42094750240802303
0.16063829787234044 0.44747407409616263 0.41419443464773564
0.16085106382978723 0.4474781436996931 0.40746735658382877
0.16106382978723405 0.44670411932362986 0.4010459739111368
0.16127659574468084 0.4461452844993247 0.3949590646115119
0.16148936170212766 0.447644555887082 0.39228860884095224
0.16170212765957448 0.4483030651392463 0.39456233199072266
0.16191489361702127 0.4509037616023448 0.39818561889944387
0.1621276595744681 0.4509037616023448 0.4079051714812847
0.16234042553191488 0.4505531558001143 0.42106420194869826
0.1625531914893617 0.44992672203224227 0.43835113602218906
0.1627659574468085 0.4496857809211174 0.45839948629842214
0.16297872340425532 0.44931184003959834 0.4770198195497165
0.16319148936170214 0.4518116387369271 0.48868554680391707
0.16340425531914893 0.44818291410563926 0.49917749427006863
0.16361702127659575 0.4488057238699704 0.5022549830412741
0.16382978723404254 0.4472747230303469 0.49933693995419665
0.16404255319148936 0.4509422104923347 0.49562141480105176
0.16425531914893618 0.45116943792173314 0.49629326875838997
0.16446808510638297 0.4496704604483433 0.4826416581261486
0.1646808510638298 0.4484367011338396 0.46665799136030495
0.16489361702127658 0.44885718359676335 0.4535053328001849
0.1651063829787234 0.44902044378774747 0.4342369465733991
0.16531914893617022 0.44533794982153674 0.41113063987536336
0.16553191489361702 0.4443455333702177 0.39044793938038264
0.16574468085106384 0.4450415241817294 0.37083151772743733
0.16595744680851063 0.4450415241817294 0.3529808197087791
0.16617021276595745 0.44604033567038076 0.3363724127148532
0.16638297872340424 0.44731840792948974 0.32735774387857497
0.16659574468085106 0.4497065335113191 0.3313379531816238
0.16680851063829788 0.4515922901334071 0.33420328620157624
0.16702127659574467 0.4500806779450384 0.34273660728347755
0.1672340425531915 0.4500628246561865 0.3616694137478392
0.16744680851063828 0.4549364751826795 0.38695617683385497
0.1676595744680851 0.4555564439704166 0.4095862338160101
0.16787234042553192 0.45549408726115304 0.4346175693930598
0.16808510638297872 0.45540782678606445 0.4547635040765171
0.16829787234042554 0.4544004800168441 0.47337463082321435
0.16851063829787233 0.4494055526395652 0.4886257432349113
0.16872340425531915 0.44931674528872756 0.501223991413826
0.16893617021276597 0.45079992233129695 0.5150155022755959
0.16914893617021276 0.4499467587344342 0.5320481376763395
0.16936170212765958 0.4538348803126526 0.5429396015949108
0.16957446808510637 0.4540599459893031 0.5531142970594651
0.1697872340425532 0.45382163089930194 0.5600285959527185
0.17 0.45188080117244755 0.5636987776624224
0.1702127659574468 0.45188080117244755 0.560971345389705
0.17042553191489362 0.45188080117244755 0.5544940774424415
0.17063829787234042 0.45536497011952975 0.5463125839022881
0.17085106382978724 0.4584276174759718 0.5345305345970818
0.17106382978723403 0.4579315517436396 0.5223472157359716
0.17127659574468085 0.45863855872527926 0.5140049301541145
0.17148936170212767 0.45790722689917923 0.5055906128104037
0.17170212765957446 0.4627845088977866 0.504914526996618
0.17191489361702128 0.45798903259587637 0.5063490230953791
0.17212765957446807 0.4583634118333669 0.5066879765174859
0.1723404255319149 0.45914497914376584 0.5080817827214967
0.1725531914893617 0.45894787965258554 0.5052703531339148
0.1727659574468085 0.4584236242389412 0.493455113699711
0.17297872340425532 0.4571385361144303 0.4763559684464631
0.17319148936170212 0.4522443320972061 0.4552890040116869
0.17340425531914894 0.45001341114492527 0.44392000275715515
0.17361702127659576 0.4528578407425501 0.4396030298320995
0.17382978723404255 0.4538709928515308 0.4423636934986667
0.17404255319148937 0.4560361458781885 0.4463717841929976
0.17425531914893616 0.4543349809087141 0.4561732519388171
0.17446808510638298 0.4520743630803695 0.4624346745356539
0.17468085106382977 0.45298367962795094 0.4629119700051431
0.1748936170212766 0.45306995745283685 0.46033346786412854
0.1751063829787234 0.45617823348419223 0.4538864304353945
0.1753191489361702 0.4474268720926773 0.4481882772774086
0.17553191489361702 0.45167418445670465 0.44197266099425964
0.17574468085106382 0.4494906674545706 0.4385333713539238
0.17595744680851064 0.45050008950510406 0.431362970200293
0.17617021276595746 0.44699560332193444 0.4292682316206658
0.17638297872340425 0.4460890726933437 0.42504746746538224
0.17659574468085107 0.44616459601403846 0.42003140588033844
0.17680851063829786 0.44565051284355967 0.41670737664875435
0.17702127659574468 0.44428505844941946 0.4212461710426141
0.1772340425531915 0.44629189619518267 0.4292518488200376
0.1774468085106383 0.450793997867627 0.4328823280185701
0.1776595744680851 0.45106167053885204 0.43987009440926134
0.1778723404255319 0.4483394527556847 0.44540721397908606
0.17808510638297873 0.44972219457231566 0.4591402013539213
0.17829787234042552 0.44910000476333056 0.46563446091684124
0.17851063829787234 0.44894968246213973 0.47641312339585723
0.17872340425531916 0.4496007187080131 0.4870503440858012
0.17893617021276595 0.4482501579117713 0.49319780280384573
0.17914893617021277 0.44699560332193444 0.4968640054987042
0.17936170212765956 0.44849068761760513 0.4957885319460304
0.17957446808510638 0.4493615636747282 0.48839519625664307
0.1797872340425532 0.44831691495599557 0.4819363090252144
0.18 0.45003915646865944 0.4705712186811849
0.1802127659574468 0.447883889110027 0.45596684100087403
0.1804255319148936 0.44616580158441044 0.441240616417213
0.18063829787234043 0.44692066533773583 0.4319624740738819
0.18085106382978725 0.44606450607051545 0.421120900434684
0.18106382978723404 0.44987057463033114 0.408096499574042
0.18127659574468086 0.44507269600997046 0.3986842587915321
0.18148936170212765 0.4460034484230204 0.3856537250088324
0.18170212765957447 0.44506932128839993 0.37500044330771914
0.18191489361702126 0.44412687297257447 0.36473711435047407
0.18212765957446808 0.4460185637518319 0.3585604676730276
0.1823404255319149 0.4460185637518319 0.35461309258173696
0.1825531914893617 0.4460185637518319 0.35775602708258053
0.1827659574468085 0.44685480594839017 0.36979239319441537
0.1829787234042553 0.44699560332193444 0.3829156055421217
0.18319148936170213 0.44884575747316735 0.3950532026813274
0.18340425531914895 0.44992672203224227 0.40273408003523836
0.18361702127659574 0.44916924835698524 0.4084848536284825
0.18382978723404256 0.4472718635524214 0.4170195514875905
0.18404255319148935 0.4492808974026594 0.42639504278870144
0.18425531914893617 0.44858744488319724 0.438114192528881
0.184468085106383 0.4493380870181063 0.4475721819756983
0.18468085106382978 0.45431665336543026 0.4587065846986181
0.1848936170212766 0.4534188157717315 0.46876162791685244
0.1851063829787234 0.45201033602213125 0.47807209548816676
0.1853191489361702 0.45368137502903505 0.4873404914899642
0.185531914893617 0.4547873046261275 0.4950920795666107
0.18574468085106383 0.4537062146560806 0.5054652175798938
0.18595744680851065 0.45309527050911524 0.5199541798015379
0.18617021276595744 0.4538348803126526 0.5294857107069109
0.18638297872340426 0.4524797382602803 0.5319980459208598
0.18659574468085105 0.4524652235085898 0.5247112236917164
0.18680851063829787 0.4522180752907277 0.5134690768736488
0.1870212765957447 0.4492976816925204 0.5004250163194947
0.18723404255319148 0.4495654102853425 0.48442170368579407
0.1874468085106383 0.4504085346439661 0.4713411064945696
0.1876595744680851 0.44992672203224227 0.4579793443628455
0.18787234042553191 0.4496015514514123 0.44699713114954714
0.18808510638297873 0.44894968246213973 0.4436821509484819
0.18829787234042553 0.44947402394189073 0.4388297257746131
0.18851063829787235 0.45140837320680244 0.4374614216037312
0.18872340425531914 0.4509394373868882 0.43685196005148336
0.18893617021276596 0.45330489714421657 0.43384703250893436
0.18914893617021278 0.45606585085065354 0.4327593067059981
0.18936170212765957 0.455744154297004 0.43100742023968974
0.1895744680851064 0.45481191988275516 0.4324896778412239
0.18978723404255318 0.45634561328219053 0.4310165092413453
0.19 0.4541536952823395 0.43473977019789195
0.1902127659574468 0.4567659525553126 0.4352711284807034
0.19042553191489361 0.4532309485077368 0.43741176150350203
0.19063829787234043 0.4565315334735996 0.4395544316400911
0.19085106382978723 0.45188080117244755 0.44778796416981953
0.19106382978723405 0.4524229039115792 0.45432026349853993
0.19127659574468084 0.4549811710170738 0.4625846418107394
0.19148936170212766 0.45331790077896633 0.4690074533978778
0.19170212765957448 0.45294934132193293 0.4705850605707874
0.19191489361702127 0.4519403896190501 0.47090327856614667
0.1921276595744681 0.4500723802114398 0.4730843553563093
0.19234042553191488 0.44992672203224227 0.46678482254392384
0.1925531914893617 0.4535456562495489 0.46505321304345215
0.19276595744680852 0.45018778567874873 0.45806741904689946
0.19297872340425531 0.45146824240636024 0.453009762780478
0.19319148936170213 0.4505686208739326 0.4454334301404101
0.19340425531914893 0.45188080117244755 0.4336409507991989
0.19361702127659575 0.4513338464047023 0.42983897586244535
0.19382978723404254 0.4515634361431945 0.4280895419783887
0.19404255319148936 0.4526548809676904 0.4290029715103686
0.19425531914893618 0.4528578407425501 0.43200334350254177
0.19446808510638297 0.4528578407425501 0.4352442077335157
0.1946808510638298 0.45188080117244755 0.43558472867772763
0.19489361702127658 0.45188080117244755 0.43907692146212257
0.1951063829787234 0.4515497793336383 0.4434344928266583
0.19531914893617022 0.4513422920338331 0.44689562461480836
0.19553191489361701 0.4535369246739706 0.44962876639356025
0.19574468085106383 0.4534821192308059 0.4528984625802689
0.19595744680851063 0.4528578407425501 0.4600601006120191
0.19617021276595745 0.4564268992402041 0.46343572612230044
0.19638297872340427 0.457743038593063 0.4675962834473254
0.19659574468085106 0.457743038593063 0.47152152080645965
0.19680851063829788 0.4573139744615564 0.47239863214460187
0.19702127659574467 0.4557889594528579 0.4727232285189485
0.1972340425531915 0.45447693238804654 0.4711889599400188
0.19744680851063828 0.45560724891470117 0.4690403554986217
0.1976595744680851 0.45708138985545665 0.4661592697462624
0.19787234042553192 0.45676599902296044 0.46458231558378116
0.19808510638297872 0.4558820473202693 0.46458231558378116
0.19829787234042554 0.4664707988986039 0.46361123927053155
0.19851063829787233 0.4569433911343126 0.4609890023074039
0.19872340425531915 0.45492139626617273 0.4632768468634259
0.19893617021276597 0.45568594706886606 0.4627312488275677
0.19914893617021276 0.4530578183086852 0.46262823644357587
0.19936170212765958 0.45856459630246793 0.46262823644357587
0.19957446808510637 0.4557889594528579 0.46949779693777066
0.1997872340425532 0.4557290259921789 0.4715414594958573
0.2 0.4548826886650318 0.47323413415015114
0.2002127659574468 0.45233906209771185 0.47007852800131317
0.20042553191489362 0.4534029646105723 0.46642318655804443
0.20063829787234042 0.45538372488557644 0.46246166600803623
0.20085106382978724 0.46085795765218207 0.4565821986741492
0.20106382978723403 0.45663179801306036 0.44825986116223815
0.20127659574468085 0.45671694302401217 0.4442116526084716
0.20148936170212767 0.4538933996414865 0.44211040547142155
0.20170212765957446 0.45464406036476995 0.4414389673994808
0.20191489361702128 0.45355400801957024 0.4382022471910112
0.20212765957446807 0.45321342681912347 0.4364243168081443
0.2023404255319149 0.45305692079370413 0.43176113030260127
0.2025531914893617 0.4528261605618712 0.42657281289181687
0.2027659574468085 0.45441538837055084 0.42238563752367586
0.20297872340425532 0.452740637421132 0.42228300198647495
0.20319148936170212 0.4550824872758189 0.4185675064401556
0.20340425531914894 0.4557889594528579 0.4231601578269039
0.20361702127659576 0.4559197672068608 0.42430568028623694
0.20382978723404255 0.45779468153573016 0.4197927281303012
0.20404255319148937 0.453120843356985 0.4208785375435996
0.20425531914893616 0.4542113467525714 0.421969040939186
0.20446808510638298 0.45383141679890476 0.4235501171532203
0.20468085106382977 0.45165245192423453 0.426934470846206
0.2048936170212766 0.4551857059602802 0.4291455088829746
0.2051063829787234 0.4518265037126356 0.4327018879336378
0.2053191489361702 0.4509037616023448 0.44454535189625627
0.20553191489361702 0.4518167513705363 0.47779622841040503
0.20574468085106382 0.4506789256481099 0.48689883418981544
0.20595744680851064 0.45208798341692996 0.49795940634769414
0.20617021276595746 0.45169060619122553 0.5088718800213216
0.20638297872340425 0.44590389878432996 0.508750953604694
0.20659574468085107 0.44316832784984056 0.500975428102526
0.20680851063829786 0.4371251684323803 0.4892555403289128
0.20702127659574468 0.43608815679759494 0.4819920445415809
0.2072340425531915 0.43073242696351416 0.4775148275506639
0.2074468085106383 0.428284872524191 0.4753787438435078
0.2076595744680851 0.426143129427989 0.4769491870733236
0.2078723404255319 0.42832124736223215 0.48075877055435046
0.20808510638297872 0.4243542202977614 0.4840798819821547
0.20829787234042554 0.42552742793846565 0.486561256717958
0.20851063829787234 0.42903381285597364 0.4836693406620849
0.20872340425531916 0.4341218304532357 0.476109534340152
0.20893617021276595 0.4347251025539835 0.4611911477401239
0.20914893617021277 0.435159439227768 0.4395706819325512
0.20936170212765956 0.4414126332288815 0.4152912620917012
0.20957446808510638 0.44018228730670916 0.39737427305064393
0.2097872340425532 0.44442962969662425 0.37695968053226503
0.21 0.4485769618786203 0.3594046038553516
0.2102127659574468 0.4524437218010126 0.35350779663181947
0.2104255319148936 0.4562034885651765 0.35873666439769325
0.21063829787234042 0.45676599902296044 0.3742785982012084
0.21085106382978724 0.45865393650098596 0.3944679290559916
0.21106382978723404 0.4575204525597822 0.421390285146316
0.21127659574468086 0.45988954779528873 0.43936427219313434
0.21148936170212765 0.462343328605964 0.45296001893827775
0.21170212765957447 0.46169653351053236 0.4520168110836247
0.2119148936170213 0.4597999199384638 0.4462759878855658
0.21212765957446808 0.46165119687347334 0.4317400718050163
0.2123404255319149 0.4608446335248278 0.42032040024489015
0.2125531914893617 0.46023628072160794 0.4122012294378519
0.2127659574468085 0.4611572769916945 0.4157411372721068
0.2129787234042553 0.4602926429194694 0.4216390817199652
0.21319148936170212 0.4606741573033708 0.42987922855203736
0.21340425531914894 0.4590411812335875 0.44622030636355303
0.21361702127659574 0.4587200781631655 0.4610407610112131
0.21382978723404256 0.45753436947656156 0.47672412865801506
0.21404255319148935 0.45481191988275516 0.48358870443740304
0.21425531914893617 0.4562558348896078 0.4905629104091894
0.214468085106383 0.45811413998997735 0.4891692124958945
0.21468085106382978 0.4571545212056591 0.4851001465559355
0.2148936170212766 0.45973104376083695 0.4851001465559355
0.2151063829787234 0.45825453696860396 0.4857050516396272
0.2153191489361702 0.45676599902296044 0.48964741273556694
0.21553191489361703 0.45511380708320814 0.498397247705436
0.21574468085106382 0.45840277343206637 0.5033465936567856
0.21595744680851064 0.4529139357285356 0.508380811280441
0.21617021276595744 0.4541276785228415 0.5013183760979549
0.21638297872340426 0.450417410162848 0.48948164620251633
0.21659574468085105 0.45015575700851385 0.4768228473058129
0.21680851063829787 0.44607968910411405 0.46690314683767925
0.2170212765957447 0.4450415241817294 0.4589741530669118
0.21723404255319148 0.4450415241817294 0.4543876618931914
0.2174468085106383 0.4411651154170329 0.4482061502249142
0.2176595744680851 0.44261555740382297 0.4486350907036723
0.2178723404255319 0.4430874450415241 0.44894968246213973
0.21808510638297873 0.4498372151813579 0.449658201479589
0.21829787234042553 0.44766391877853734 0.4431383122711272
0.21851063829787234 0.4450506378830467 0.43650837692063704
0.21872340425531914 0.44267679028806695 0.43051339297532504
0.21893617021276596 0.4475601671643914 0.42518586054813257
0.21914893617021278 0.45452450460432686 0.4157303370786516
0.21936170212765957 0.44538055001239296 0.41810351789329675
0.2195744680851064 0.4455761113583261 0.42212716167586395
0.21978723404255318 0.44777639150518506 0.42487441528741404
0.22 0.4473577550926704 0.4332349875339194
0.2202127659574468 0.4460185637518319 0.43996676142196167
0.2204255319148936 0.444311090532385 0.4496707319985539
0.22063829787234043 0.4450298761394574 0.46055767688065063
0.22085106382978723 0.44855340087098483 0.46820692707861006
0.22106382978723405 0.44524354530045324 0.4755648379971502
0.22127659574468084 0.4466403293205384 0.4805258314897758
0.22148936170212766 0.4475549897232419 0.4803566819379348
0.22170212765957448 0.44805458828709976 0.47817892417015473
0.22191489361702127 0.44766535409238495 0.47599950162536014
0.2221276595744681 0.44549346979200205 0.4708233502651122
0.22234042553191488 0.44333117151496443 0.46519163176738193
0.2225531914893617 0.4450062161219998 0.4540290746411652
0.22276595744680852 0.445931893101382 0.4430244368062274
0.2229787234042553 0.44464715963065965 0.43017100473951225
0.22319148936170213 0.4452265340014419 0.4194534855393494
0.22340425531914893 0.4482541964662889 0.413498903334084
0.22361702127659575 0.44654961977276453 0.4102290107354434
0.22382978723404254 0.4476368459195856 0.4133797582714908
0.22404255319148936 0.445742388532204 0.4187040095584292
0.22425531914893618 0.4484493026240874 0.4273059968543676
0.22446808510638297 0.4460578756936331 0.4303597226689897
0.2246808510638298 0.45148551960984057 0.4345905500825561
0.22489361702127658 0.44776032562477225 0.43722520762090866
0.2251063829787234 0.44699560332193444 0.43755132256393975
0.22531914893617022 0.4465577716688986 0.43732658388493956
0.225531914893617 0.4432889747893129 0.4340644968807909
0.22574468085106383 0.4443996260203214 0.4323400097703958
0.22595744680851063 0.4460185637518319 0.4295690528674463
0.22617021276595745 0.4483326141252897 0.43614535273484445
0.22638297872340427 0.45335761303167504 0.4461365222161747
0.22659574468085106 0.45204542103447615 0.4604165479082587
0.22680851063829788 0.4547346072519378 0.47546891359038085
0.22702127659574467 0.450119270359402 0.4856634936031109
0.2272340425531915 0.4516760837265713 0.5018029145662365
0.22744680851063828 0.4509037616023448 0.5117306669425897
0.2276595744680851 0.4509037616023448 0.5159442357817111
0.22787234042553192 0.44984484162142935 0.5132705332672848
0.22808510638297871 0.4502201840447325 0.5051277070357412
0.22829787234042553 0.45164720609837666 0.4942753742873619
0.22851063829787233 0.45102930168318905 0.4825729291648117
0.22872340425531915 0.4518628381934241 0.4716012223647337
0.22893617021276597 0.45108575396568446 0.4644003232204415
0.22914893617021276 0.4528578407425501 0.45979129285792636
0.22936170212765958 0.4531663119886089 0.4486412112160809
0.22957446808510637 0.4538348803126526 0.44551590336244945
0.2297872340425532 0.4542476785288083 0.4388080197421758
0.23 0.45481191988275516 0.43317683737960283
0.2302127659574468 0.4561548262030262 0.42778188667957023
0.23042553191489362 0.4581493083994648 0.4227341140266686
0.23063829787234041 0.45842129254613323 0.42159257449926724
0.23085106382978723 0.4580738371882314 0.42192337309443567
0.23106382978723405 0.4590755301296399 0.4250577778346903
0.23127659574468085 0.4600707304628471 0.4309033419784032
0.23148936170212767 0.4594653942551467 0.43895794356554385
0.23170212765957446 0.457743038593063 0.45067437144802264
0.23191489361702128 0.4568021716380539 0.46233885552282783
0.23212765957446807 0.45496809077554573 0.4704445530043966
0.2323404255319149 0.4538348803126526 0.4707857507374505
0.2325531914893617 0.4541300650169995 0.4749638090266616
0.2327659574468085 0.45481191988275516 0.48541945529224434
0.23297872340425532 0.4549171996317981 0.49441990143207337
0.23319148936170211 0.4557889594528579 0.49877870053737183
0.23340425531914893 0.4557343640621127 0.49872410514662663
0.23361702127659575 0.4545970634531643 0.4973719481080874
0.23382978723404255 0.45306346420269633 0.4932766323064199
0.23404255319148937 0.45437059840967814 0.486596970478743
0.23425531914893616 0.4517024049420314 0.4742648930686609
0.23446808510638298 0.4567289580522284 0.46748565356603994
0.2346808510638298 0.45352411164876194 0.4650820187634401
0.2348936170212766 0.45205145368727434 0.4605503803074021
0.2351063829787234 0.4494548345537283 0.45161056233753744
0.2353191489361702 0.44825077383089795 0.43874418393237274
0.23553191489361702 0.44909342267192365 0.42925057990111165
0.23574468085106381 0.44857234423799447 0.4241463549854298
0.23595744680851063 0.44699560332193444 0.4236724356770995
0.23617021276595745 0.4472449385824516 0.42924076168743486
0.23638297872340425 0.4476369249275227 0.44074383276911683
0.23659574468085107 0.4441873518512878 0.4467805856525277
0.23680851063829786 0.4474890614719451 0.45127632439733245
0.23702127659574468 0.44273240316333545 0.4588677874773831
0.2372340425531915 0.4429923027249096 0.4552876314658278
0.2374468085106383 0.4421445580872537 0.4510403720656735
0.2376595744680851 0.4410692772169536 0.44894968246213973
0.2378723404255319 0.43936334497728413 0.44913374067831013
0.23808510638297872 0.4421438068478981 0.451847399795971
0.23829787234042554 0.44610211337947414 0.4478890932643948
0.23851063829787233 0.4490399493244351 0.44426980865193366
0.23872340425531915 0.45191663449464786 0.4391076201167131
0.23893617021276595 0.450667816397736 0.4335751670462187
0.23914893617021277 0.4515816167476469 0.43068511505499113
0.23936170212765956 0.45188080117244755 0.4303859306301905
0.23957446808510638 0.45307032308411394 0.431362970200293
0.2397872340425532 0.4557889594528579 0.431362970200293
0.24 0.4546455274776152 0.431362970200293
0.2402127659574468 0.4526458493121272 0.4317454942701329
0.2404255319148936 0.45511157929825097 0.43404227508452686
0.24063829787234042 0.4549750409496641 0.4353526890141579
0.24085106382978724 0.4523003326769208 0.43763913730437654
0.24106382978723404 0.45321484832797027 0.442824420642262
0.24127659574468086 0.4499551348379489 0.4487201791812712
0.24148936170212765 0.4516044426971107 0.4570060826588314
0.24170212765957447 0.4509324490381211 0.4674417157046482
0.2419148936170213 0.45238918843843395 0.4627453995196049
0.24212765957446808 0.4491448683180342 0.46399564772546753
0.2423404255319149 0.44962221750443665 0.46312331893143877
0.2425531914893617 0.44894968246213973 0.4565154305659486
0.2427659574468085 0.44792035590235474 0.45378259332297033
0.2429787234042553 0.44578390799454143 0.4558870790610327
0.24319148936170212 0.4424684652563869 0.46031609751840546
0.24340425531914894 0.44306118256238086 0.46293640798084795
0.24361702127659574 0.44618561220467046 0.4607771058896203
0.24382978723404256 0.44536618733630423 0.4580677017476379
0.24404255319148935 0.44412138859402067 0.443941004777432
0.24425531914893617 0.4477664491950721 0.4328531135223268
0.244468085106383 0.444220805747127 0.42374208753207415
0.24468085106382978 0.4447721673325042 0.4204465659067375
0.2448936170212766 0.44406448461162684 0.4221910593860093
0.2451063829787234 0.44455178222433633 0.42402906256281475
0.2453191489361702 0.4450415241817294 0.4276754321134716
0.24553191489361703 0.4450415241817294 0.4291382831792999
0.24574468085106382 0.4458588252013365 0.4277742890208735
0.24595744680851064 0.4460185637518319 0.42373772235497764
0.24617021276595744 0.44674860703467656 0.41646038036149646
0.24638297872340426 0.44324852950725974 0.41167162710819444
0.24659574468085105 0.4450107454344426 0.40690620220044155
0.24680851063829787 0.44893194204717696 0.41178669796831574
0.2470212765957447 0.4530549321740673 0.41530010296430714
0.24723404255319148 0.4547004712097859 0.42019573872390886
0.2474468085106383 0.4558028246553329 0.4264916375522552
0.2476595744680851 0.45676599902296044 0.43516765656002715
0.2478723404255319 0.45411161647358955 0.4416491785365267
0.24808510638297873 0.45481191988275516 0.45780134637426945
0.24829787234042552 0.45519623225318656 0.46169899029118794
0.24851063829787234 0.457743038593063 0.47009354153540694
0.24872340425531914 0.4582389965162617 0.47903455900260516
0.24893617021276596 0.45810804695298296 0.4902323672567112
0.24914893617021278 0.45481191988275516 0.4989728718598288
0.24936170212765957 0.45405184371861945 0.5053471253922573
0.2495744680851064 0.4541135635490014 0.5120375814214028
0.24978723404255318 0.4547945322267485 0.5153883732291158
0.25 0.4538348803126526 0.5123823593764814
0.2502127659574468 0.4538348803126526 0.5040631851241967
0.25042553191489364 0.4554530364168453 0.4992825850913906
0.25063829787234043 0.45488045695860985 0.48151715314666144
0.2508510638297872 0.457599764150793 0.4734473089358394
0.251063829787234 0.4545850562488032 0.4735793403372251
0.25127659574468086 0.4580905207706916 0.4621102245770667
0.25148936170212766 0.452521829316929 0.4629332531624364
0.25170212765957445 0.4530832354444773 0.4608495740254535
0.2519148936170213 0.45481191988275516 0.45969711773326827
0.2521276595744681 0.45256782667048445 0.4602581410363359
0.2523404255319149 0.4509037616023448 0.4606741573033708
0.2525531914893617 0.4509037616023448 0.4567364055064546
0.2527659574468085 0.45180149061934144 0.45489123043586127
0.2529787234042553 0.44992235240486445 0.45188954042720314
0.2531914893617021 0.44913394944019663 0.45358919100857675
0.25340425531914895 0.45221021404873 0.45058554778480725
0.25361702127659574 0.45217761485750635 0.45355866940346157
0.25382978723404254 0.44951605703701486 0.4547871084237722
0.2540425531914894 0.45038383925026276 0.4587410132078529
0.2542553191489362 0.44956352693126683 0.4609248066715224
0.25446808510638297 0.44992672203224227 0.4649087778836574
0.25468085106382976 0.45137824478608646 0.46726215610090843
0.2548936170212766 0.45020473192533145 0.46667539967053084
0.2551063829787234 0.4480189652126171 0.4665363947239862
0.2553191489361702 0.45188080117244755 0.46464489779802687
0.25553191489361704 0.45146476128918206 0.4551648996279597
0.25574468085106383 0.4505795545192162 0.4518785920120892
0.2559574468085106 0.45099382584025915 0.4481527713678656
0.2561702127659574 0.4493673378389585 0.44545917955854814
0.25638297872340426 0.45163895209669264 0.44235225454717647
0.25659574468085106 0.45521349010733153 0.44348901526610046
0.25680851063829785 0.45312526866825964 0.4378492061142309
0.2570212765957447 0.45181850166991194 0.4382437801927016
0.2572340425531915 0.44961768458595736 0.4401563263312165
0.2574468085106383 0.45308817202250157 0.4404052290946001
0.25765957446808513 0.451265475535967 0.4429419355694297
0.2578723404255319 0.45188080117244755 0.44791744154825325
0.2580851063829787 0.45188080117244755 0.4511036384943386
0.2582978723404255 0.45188080117244755 0.4560975265686004
0.25851063829787235 0.45188080117244755 0.4642820967794587
0.25872340425531914 0.450950090791311 0.4692821966784294
0.25893617021276594 0.4510304442574107 0.47173829921216404
0.2591489361702128 0.45268209409196125 0.4768340303767788
0.2593617021276596 0.45188080117244755 0.48069269256543484
0.25957446808510637 0.45066997211953513 0.48371949730152886
0.2597872340425532 0.4494641086784157 0.48263164119945434
0.26 0.44992672203224227 0.48334844727180504
0.2602127659574468 0.4472139462665657 0.48073213727873726
0.2604255319148936 0.44681385968273235 0.4760567254117181
0.26063829787234044 0.44699560332193444 0.46905302889510875
0.26085106382978723 0.4460818528455317 0.465749222434983
0.261063829787234 0.44793755901429233 0.4644244381339293
0.2612765957446809 0.446141977966617 0.45467823151979203
0.26148936170212767 0.44770862186253485 0.4450942205470001
0.26170212765957446 0.44887026722418283 0.4353056191315626
0.26191489361702125 0.44699560332193444 0.42470808588863546
0.2621276595744681 0.44757323364712825 0.4165721226528087
0.2623404255319149 0.44866268664487113 0.4082559079157748
0.2625531914893617 0.4496886325521449 0.4059599413776258
0.26276595744680853 0.44992672203224227 0.40013686159578193
0.2629787234042553 0.4508680996593647 0.39347239862417294
0.2631914893617021 0.4479726428920372 0.37974886486909715
0.26340425531914896 0.4477170258861189 0.3681933951989315
0.26361702127659575 0.4456782141679447 0.36547881299070695
0.26382978723404255 0.4438632099341531 0.3749546174463484
0.26404255319148934 0.44282693819470514 0.38869816820164477
0.2642553191489362 0.4454804403931414 0.4097688925107576
0.264468085106383 0.44851059975602103 0.43087735311296366
0.26468085106382977 0.43953358958884403 0.4483807073516897
0.2648936170212766 0.43928243326557287 0.4601291921630929
0.2651063829787234 0.4427882947825866 0.46153153676989833
0.2653191489361702 0.4411678469930424 0.45589240272802795
0.265531914893617 0.4413018720999452 0.445602717540601
0.26574468085106384 0.4430874450415241 0.4315232524873378
0.26595744680851063 0.4429111615014187 0.417875659958008
0.2661702127659574 0.442534483393569 0.40880790485266766
0.2663829787234043 0.4438360192143126 0.40384057482095226
0.26659574468085107 0.44328678861640414 0.39910098608261
0.26680851063829786 0.44501897289527953 0.39616699439014996
0.2670212765957447 0.4476781953967739 0.3994151118821708
0.2672340425531915 0.44699560332193444 0.40009770395701016
0.2674468085106383 0.4465514070424284 0.40231868535454046
0.2676595744680851 0.44533887064309535 0.4104627925807681
0.26787234042553193 0.4492353587824151 0.4182557688594077
0.2680851063829787 0.44786464965452644 0.4265120699514479
0.2682978723404255 0.4499898947983459 0.43839176548932196
0.26851063829787236 0.45188080117244755 0.4512763381727559
0.26872340425531915 0.45293865728556165 0.4644427939761195
0.26893617021276595 0.4550263398715606 0.4767356304026231
0.26914893617021274 0.4563506067074322 0.47938416407436624
0.2693617021276596 0.45676599902296044 0.4808418416207381
0.2695744680851064 0.45789739904630605 0.4823233882988709
0.26978723404255317 0.4592299780938942 0.48977476651520196
0.27 0.45969711773326827 0.5023055369326821
0.2702127659574468 0.46182163184741737 0.5122669959381586
0.2704255319148936 0.4631524205157346 0.5149355177311719
0.27063829787234045 0.4616164854124786 0.5127250819405177
0.27085106382978724 0.460049573962597 0.5052966610565554
0.27106382978723403 0.45947182011164006 0.49339309126425657
0.2712765957446808 0.45815033488038814 0.4825739665355637
0.2714893617021277 0.4571400715764196 0.4719617723114611
0.27170212765957447 0.45637862152383657 0.46438432892307263
0.27191489361702126 0.45914121001007147 0.4634705001373877
0.2721276595744681 0.45879070931392824 0.46730154084180103
0.2723404255319149 0.4582584845660541 0.47147544495037896
0.2725531914893617 0.4587200781631655 0.4749126388566436
0.2727659574468085 0.45575113540130674 0.47333784766315345
0.27297872340425533 0.45481191988275516 0.46911083913055573
0.2731914893617021 0.45224039212500894 0.46677612202569385
0.2734042553191489 0.4509909896588694 0.46920582926472026
0.27361702127659576 0.45379127317120826 0.46465499415285505
0.27382978723404255 0.4490301995396854 0.4666974288790776
0.27404255319148935 0.45010611756190405 0.4692080559828386
0.2742553191489362 0.45119473687137795 0.47327155795170117
0.274468085106383 0.452662629985445 0.4765024940744058
0.2746808510638298 0.4543210407909361 0.47728854860865033
0.27489361702127657 0.4542179338821 0.47452483242304677
0.2751063829787234 0.4524203323692373 0.47054657582787357
0.2753191489361702 0.44946231935491493 0.4710798346459825
0.275531914893617 0.45077552809220156 0.4622923644241896
0.27574468085106385 0.45011336658560175 0.45750973290136365
0.27595744680851064 0.45288241884177693 0.4526990971640708
0.27617021276595743 0.4476994965025309 0.45133450839343503
0.2763829787234042 0.4466069948480656 0.447983679662898
0.2765957446808511 0.44501453457990986 0.4455435387676904
0.27680851063829787 0.4446779718842414 0.4466320510244465
0.27702127659574466 0.4472192463558567 0.448447418104686
0.2772340425531915 0.44712905521045754 0.4514804455068784
0.2774468085106383 0.44508187839964686 0.46432001316731736
0.2776595744680851 0.4563864924277372 0.45796441744027655
0.27787234042553194 0.44630684384450603 0.45828765802415433
0.27808510638297873 0.44886294791661957 0.4530351364284872
0.2782978723404255 0.4446368980017776 0.4526900535323511
0.2785106382978723 0.444888409816388 0.4472896961828731
0.27872340425531916 0.44681949231034823 0.44184342928524944
0.27893617021276595 0.4501064564599397 0.4383819816187086
0.27914893617021275 0.4479726428920372 0.4351437237466703
0.2793617021276596 0.4473118652856659 0.4356156441233433
0.2795744680851064 0.4508446917137915 0.4354783503724346
0.2797872340425532 0.4486316617590344 0.44339397701423633
0.27999999999999997 0.4497859301206287 0.4414149497245462
0.2802127659574468 0.44988453919005045 0.4363325337351897
0.2804255319148936 0.44894968246213973 0.4385202929915895
0.2806382978723404 0.4483998929597751 0.4401563263312165
0.28085106382978725 0.4477736314859582 0.44054534041322835
0.28106382978723404 0.45144698391140736 0.4401344453216119
0.28127659574468084 0.45018867416578956 0.4416100908590225
0.2814893617021277 0.4479726428920372 0.44164607570413367
0.2817021276595745 0.4496512395461982 0.44281196255548
0.28191489361702127 0.4480149462935305 0.4421315571721682
0.28212765957446806 0.44790336585967 0.44406448461162684
0.2823404255319149 0.4468770754973701 0.44394595678706245
0.2825531914893617 0.4460358786957228 0.443104759985415
0.2827659574468085 0.4460185637518319 0.44500524058003815
0.28297872340425534 0.44506241065342095 0.44695383037855124
0.28319148936170213 0.44991739043671486 0.4469676085353523
0.2834042553191489 0.44894968246213973 0.44425581307004125
0.2836170212765957 0.44877633524418087 0.44664890888601677
0.28382978723404256 0.4485351139053065 0.44476028867509476
0.28404255319148936 0.450323027263812 0.44129034799063854
0.28425531914893615 0.4483401882619501 0.4361997782847507
0.284468085106383 0.44727451524415823 0.4352711284807034
0.2846808510638298 0.44722773931887183 0.43378132133437297
0.2848936170212766 0.44699560332193444 0.4333170493404983
0.2851063829787234 0.44699560332193444 0.4342510673062787
0.2853191489361702 0.4460185637518319 0.4373609087364736
0.285531914893617 0.4466845112583219 0.43917928676111373
0.2857446808510638 0.4485413418921081 0.44001051484519427
0.28595744680851065 0.4453905075304819 0.44211040547142155
0.28617021276595744 0.4467641800416605 0.4417375973265073
0.28638297872340424 0.44664025058979767 0.44157749666873214
0.2865957446808511 0.4450415241817294 0.4452925127494853
0.2868085106382979 0.44692075855066093 0.44609340852310564
0.28702127659574467 0.4487082896368828 0.44430587743688377
0.28723404255319146 0.44894968246213973 0.4483209874942695
0.2874468085106383 0.44991422194206376 0.45087876142198774
0.2876595744680851 0.45060081868370744 0.4552934174909446
0.2878723404255319 0.4553089871795426 0.46094598502762635
0.28808510638297874 0.44960637475412624 0.4668407442663479
0.28829787234042553 0.44982188005229384 0.47033971102444827
0.2885106382978723 0.45145429518213437 0.4730731933138677
0.28872340425531917 0.45188080117244755 0.47634553651668127
0.28893617021276596 0.45188080117244755 0.47806308173483786
0.28914893617021276 0.45188080117244755 0.48005428383223786
0.28936170212765955 0.4537309354161499 0.47836481446172
0.2895744680851064 0.4513136236406803 0.4798257814810736
0.2897872340425532 0.4530805979591068 0.46966160041622584
0.29 0.4505381099079949 0.4634853605007314
0.2902127659574468 0.44992672203224227 0.4592529294267242
0.2904255319148936 0.44938995939348225 0.4530086605516401
0.2906382978723404 0.44894968246213973 0.45352274044219126
0.2908510638297872 0.4532090473115092 0.4522394887450498
0.29106382978723405 0.45398609229929116 0.45172958918580897
0.29127659574468084 0.45725220518138077 0.45017213873808337
0.29148936170212764 0.4520103278839629 0.4527930773867924
0.2917021276595745 0.45109153942483127 0.45676599902296044
0.2919148936170213 0.45327600656708156 0.4578114135842891
0.29212765957446807 0.45350449325993025 0.46263176684059204
0.2923404255319149 0.4517919643111428 0.46458231558378116
0.2925531914893617 0.45229786521563137 0.46346236452994355
0.2927659574468085 0.45323605636801617 0.46059535365022297
0.2929787234042553 0.45462645910718896 0.45890553893873176
0.29319148936170214 0.4530198209134216 0.45513588022449813
0.29340425531914893 0.4528142448334381 0.4518590032178915
0.2936170212765957 0.4489579061089376 0.4499308338556412
0.29382978723404257 0.44899746945019886 0.4477337079517416
0.29404255319148936 0.45003830337797995 0.4429758636957864
0.29425531914893616 0.4503467571845819 0.44173906919291295
0.29446808510638295 0.4485650174294756 0.4401563263312165
0.2946808510638298 0.4511329539335839 0.4406548911571256
0.2948936170212766 0.44858671217861124 0.44174743518789306
0.2951063829787234 0.4484518110130065 0.4420917021432576
0.29531914893617023 0.44835727704228073 0.4454570667209601
0.295531914893617 0.44867739832874654 0.44770035875864395
0.2957446808510638 0.44894968246213973 0.4479726428920372
0.29595744680851066 0.4524245090734717 0.453184882809035
0.29617021276595745 0.44995945515295654 0.4538348803126526
0.29638297872340424 0.452948445447022 0.4541972991305403
0.29659574468085104 0.4537467927070738 0.45765495098748415
0.2968085106382979 0.4527166761827976 0.457189492702218
0.2970212765957447 0.45224203343507596 0.45915526933932566
0.29723404255319147 0.4540710745279877 0.4565298048076254
0.2974468085106383 0.45567756635067097 0.4546347641623035
0.2976595744680851 0.45574398829397406 0.45088127602290307
0.2978723404255319 0.45284094946211095 0.44830958360236406
0.29808510638297875 0.45481191988275516 0.4460004310109268
0.29829787234042554 0.45481191988275516 0.44230847485686275
0.29851063829787233 0.4520730125026835 0.4427951323164394
0.2987234042553191 0.4514085187613269 0.44157317356457804
0.298936170212766 0.45148613492003503 0.44055099258362895
0.29914893617021276 0.4509037616023448 0.44249180196493426
0.29936170212765956 0.4505543948797018 0.44469215745908636
0.2995744680851064 0.44992672203224227 0.44483539548784745
0.2997872340425532 0.450356555235945 0.4460185637518319
0.3 0.4504333753234789 0.445548177472966
0.3002127659574468 0.44898271939539036 0.4455135255001553
0.30042553191489363 0.4472225132749128 0.44489336932614537
0.3006382978723404 0.4460185637518319 0.4437457105451064
0.3008510638297872 0.44594154778555123 0.4457875158529899
0.30106382978723406 0.44506521615905814 0.44315852097351044
0.30127659574468085 0.44423740931909195 0.4430874450415241
0.30148936170212765 0.44406448461162684 0.4430874450415241
0.3017021276595745 0.44406448461162684 0.4461432386160368
0.3019148936170213 0.4420180003505043 0.4443912954350728
0.3021276595744681 0.4414509736810683 0.441133365901319
0.30234042553191487 0.4430874450415241 0.4407049968061649
0.3025531914893617 0.4430874450415241 0.438374376124006
0.3027659574468085 0.44213518731939444 0.4348197814676116
0.3029787234042553 0.44315245389084545 0.43180273334835345
0.30319148936170215 0.44173776373891055 0.42708217018737166
0.30340425531914894 0.43764713105390496 0.42256961406936977
0.30361702127659573 0.4391494147505789 0.42256961406936977
0.3038297872340425 0.44109061110796155 0.4244809384162176
0.3040425531914894 0.44207234662558165 0.4264397135039402
0.30425531914893617 0.4410650708069095 0.4256373229684967
0.30446808510638296 0.4401563263312165 0.42804008805332905
0.3046808510638298 0.44055578332318257 0.4332720760849833
0.3048936170212766 0.4430988403832564 0.4391678914193814
0.3051063829787234 0.44406448461162684 0.43868285366640264
0.30531914893617024 0.44406448461162684 0.44810767427513715
0.30553191489361703 0.4442387722058327 0.44997029393079374
0.3057446808510638 0.44742814243698714 0.4507676364885823
0.3059574468085106 0.4479726428920372 0.4540989912692246
0.30617021276595746 0.4479726428920372 0.4606084942214682
0.30638297872340425 0.44884825770001807 0.46077558206549246
0.30659574468085105 0.4503370654867807 0.463448923352653
0.3068085106382979 0.45157845749834336 0.465931707375778
0.3070212765957447 0.44957088892442015 0.4673063654733288
0.3072340425531915 0.44894968246213973 0.467513434294089
0.30744680851063827 0.4528631587867191 0.4645769975396121
0.3076595744680851 0.45348825713666757 0.46337419389635526
0.3078723404255319 0.45136153484061836 0.460964537016063
0.3080851063829787 0.45219483323959525 0.4583885744116881
0.30829787234042555 0.45134520747043166 0.45686014685688947
0.30851063829787234 0.45409093789359767 0.4552364252725703
0.30872340425531913 0.4537834038010853 0.45414340133216435
0.308936170212766 0.4528578407425501 0.450703940166878
0.3091489361702128 0.45106181701864395 0.4535187694800543
0.30936170212765957 0.4508738514194405 0.4528578407425501
0.30957446808510636 0.44992672203224227 0.4528578407425501
0.3097872340425532 0.4506997005267154 0.4528578407425501
0.31 0.4528578407425501 0.4528578407425501
0.3102127659574468 0.45529520860981065 0.45383278788945425
0.31042553191489364 0.4566484661376406 0.45645377856588887
0.31063829787234043 0.4551738923858822 0.457743038593063
0.3108510638297872 0.45481191988275516 0.4591958414188091
0.311063829787234 0.45481191988275516 0.45969711773326827
0.31127659574468086 0.45481191988275516 0.4578558051227527
0.31148936170212765 0.4538547183097785 0.4615718448849698
0.31170212765957445 0.4528644695445338 0.4626269106831791
0.3119148936170213 0.45748174844963624 0.4614770034445222
0.3121276595744681 0.45467114337456327 0.4597675059873642
0.3123404255319149 0.4533591647304982 0.4598386173234574
0.3125531914893617 0.45498206273641517 0.4560579250250055
0.3127659574468085 0.4528578407425501 0.45676599902296044
0.3129787234042553 0.4533550119106414 0.4572631701910518
0.3131914893617021 0.4532209530640551 0.4583569658416605
0.31340425531914895 0.4535801375011727 0.4587200781631655
0.31361702127659574 0.4538348803126526 0.46204545086241655
0.31382978723404253 0.4528873489505132 0.4673658932542733
0.3140425531914894 0.4509037616023448 0.4664519308223538
0.3142553191489362 0.45149989828081055 0.4655593551538837
0.31446808510638297 0.4526992082368919 0.4655593551538837
0.31468085106382976 0.44992672203224227 0.46402901903249405
0.3148936170212766 0.44992672203224227 0.45961087640980214
0.3151063829787234 0.44992672203224227 0.4573930575057535
0.3153191489361702 0.4505612042364184 0.4554970346146083
0.31553191489361704 0.45221343534619013 0.45418837743752044
0.31574468085106383 0.45150949961936276 0.45609182846136676
0.3159574468085106 0.4481356111813945 0.4556259911635004
0.31617021276595747 0.4474987925846292 0.4562628097602658
0.31638297872340426 0.4473695836844711 0.45337672262259393
0.31659574468085105 0.4455745320945501 0.45188080117244755
0.31680851063829785 0.44915989611839136 0.451057126785115
0.3170212765957447 0.4461826793916857 0.44809572962192756
0.3172340425531915 0.4470695762128877 0.4430288641382821
0.3174468085106383 0.4476622763499646 0.4297651975460453
0.3176595744680851 0.44623181443006366 0.425731394975969
0.3178723404255319 0.4477971947925469 0.41946304725957173
0.3180851063829787 0.44805986637790773 0.4202578503729194
0.3182978723404255 0.450292968898414 0.4266614676733328
0.31851063829787235 0.44894968246213973 0.43399533845039906
0.31872340425531914 0.4493292139686986 0.4424335153705698
0.31893617021276593 0.44943636676027254 0.4479799848397109
0.3191489361702128 0.4507578190250574 0.4523375707827991
0.3193617021276596 0.4497279688547173 0.4538348803126526
0.31957446808510637 0.44894968246213973 0.45631333470101276
0.3197872340425532 0.44894968246213973 0.4586366289907344
0.32 0.4519499215261369 0.4624208753825078
0.3202127659574468 0.452675087525216 0.45933161129860006
0.3204255319148936 0.45188080117244755 0.4574636636995941
0.32063829787234044 0.45188080117244755 0.4578475699099564
0.32085106382978723 0.45188080117244755 0.4611168308749985
0.321063829787234 0.4507176619646529 0.46553608446306244
0.32127659574468087 0.44992672203224227 0.47093363374684427
0.32148936170212766 0.44756301762735823 0.4771260409543697
0.32170212765957445 0.44699560332193444 0.47736575981926
0.32191489361702125 0.44702517661910673 0.4802149487054226
0.3221276595744681 0.45120613998673764 0.48043983576732585
0.3223404255319149 0.4460185637518319 0.48239494821635737
0.3225531914893617 0.4466780911114326 0.4841353584551313
0.3227659574468085 0.4466564415542047 0.4873933874638705
0.3229787234042553 0.44338990576876264 0.4873566864233791
0.3231914893617021 0.44410031791647503 0.48209736123593117
0.32340425531914896 0.44658470298348535 0.47867176990366644
0.32361702127659575 0.4478819775905201 0.47116987541653316
0.32382978723404254 0.44792200608651556 0.46731088707200247
0.32404255319148934 0.44686573583578626 0.4587087503019882
0.3242553191489362 0.45111739524939826 0.45005868569136925
0.324468085106383 0.44894968246213973 0.4395630561176645
0.32468085106382977 0.44847629225807506 0.4329041774603799
0.3248936170212766 0.44855762004223926 0.4251211362783715
0.3251063829787234 0.4510526301285879 0.41528373149992304
0.3253191489361702 0.4494335067979018 0.4013785112871304
0.325531914893617 0.44708547951969113 0.38513914231854396
0.32574468085106384 0.44992672203224227 0.3729209990076317
0.32595744680851063 0.45027563020281924 0.3611208902965669
0.3261702127659574 0.45159297381052727 0.35710796287249624
0.32638297872340427 0.4490260406452685 0.3578590512553268
0.32659574468085106 0.4477733487691314 0.3630103083016253
0.32680851063829786 0.4509806082787292 0.3731248293760594
0.3270212765957447 0.4494656028074118 0.38728658730479376
0.3272340425531915 0.4479726428920372 0.40102688876977705
0.3274468085106383 0.4479726428920372 0.41128942011336855
0.3276595744680851 0.44730792949069587 0.420071004719279
0.3278723404255319 0.44776959819176176 0.43185755250729574
0.3280851063829787 0.44709087000049574 0.4422300449344727
0.3282978723404255 0.4518143463307572 0.451020057575303
0.32851063829787236 0.4482145357166158 0.45895250271595606
0.32872340425531915 0.45012462291740857 0.4690966413754197
0.32893617021276594 0.45072849238306606 0.4765566353898609
0.32914893617021274 0.44963875268221826 0.48447278264581967
0.3293617021276596 0.4497510264575159 0.49078668840182466
0.3295744680851064 0.4514175408845685 0.4924532028288772
0.32978723404255317 0.45245404726675675 0.48947698655090094
0.33 0.45349085426607966 0.48578819864908146
0.3302127659574468 0.4567219259775345 0.4807695780586127
0.3304255319148936 0.4547000101187099 0.47771639489814344
0.33063829787234045 0.4522805215541725 0.47495229185739435
0.33085106382978724 0.45428379612431213 0.47755670455395993
0.33106382978723403 0.45135597626997787 0.47739688366202304
0.3312765957446808 0.45559622209492256 0.4791608141921459
0.33148936170212767 0.4528860172232514 0.47535088321543567
0.33170212765957446 0.45653993926406106 0.47809132474604277
0.33191489361702126 0.45374366850545905 0.477505286935842
0.3321276595744681 0.4547194901220096 0.47480163082250215
0.3323404255319149 0.4557889594528579 0.46990888415237164
0.3325531914893617 0.4553732187297359 0.4657672255154447
0.3327659574468085 0.45384942684757773 0.4664854818517483
0.33297872340425533 0.455552369459779 0.4605251827090444
0.3331914893617021 0.4540752467284351 0.4614108304576909
0.3334042553191489 0.4538348803126526 0.46165119687347334
0.33361702127659576 0.45203495008815353 0.46345112709797265
0.33382978723404255 0.45188080117244755 0.4645680748139753
0.33404255319148934 0.45096016302076825 0.4682648681904978
0.3342553191489362 0.4509037616023448 0.47397496403956957
0.334468085106383 0.4486736856863637 0.47811734574988607
0.3346808510638298 0.44771969244032916 0.4784047259094359
0.33489361702127657 0.4491816056491839 0.47440205810673286
0.3351063829787234 0.45008560312882145 0.471103830381341
0.3353191489361702 0.4518279248447972 0.46761918694938964
0.335531914893617 0.4509510841263098 0.46193513201726316
0.33574468085106385 0.45572213490768154 0.4558691489070696
0.33595744680851064 0.4566701058634093 0.4488218249160715
0.33617021276595743 0.45356165382404623 0.444768297693123
0.3363829787234042 0.4491480357248383 0.4393629132804221
0.33659574468085107 0.45092689789142437 0.43203923801236127
0.33680851063829786 0.4518438112365707 0.42011936452546106
0.33702127659574466 0.44833766563002886 0.414323792045434
0.3372340425531915 0.4546656041655289 0.4089955713145238
0.3374468085106383 0.45082196896591287 0.4079140205178309
0.3376595744680851 0.45030413366026245 0.40829143214585106
0.33787234042553194 0.452414366556859 0.4101348823502419
0.33808510638297873 0.4535426746915716 0.41201396171246274
0.3382978723404255 0.45320603903689277 0.4154496940972345
0.3385106382978723 0.4527380601975022 0.4170729833538045
0.33872340425531916 0.4518406503440222 0.41908974933137294
0.33893617021276595 0.45399972394426624 0.4228993013325972
0.33914893617021274 0.452101439668875 0.4326551338512155
0.3393617021276596 0.45011567206360803 0.4401886157444901
0.3395744680851064 0.4508266168247052 0.45103220861841214
0.3397872340425532 0.44997168623984435 0.4549243304017604
0.34 0.4517527937552462 0.45969711773326827
0.3402127659574468 0.4509037616023448 0.45969711773326827
0.3404255319148936 0.4509037616023448 0.45969711773326827
0.3406382978723404 0.4490236494928158 0.4601671457606505
0.34085106382978725 0.449325723945027 0.45950909699182446
0.34106382978723404 0.4502129766749284 0.460792432945415
0.34127659574468083 0.4491281221772427 0.45526239803347635
0.3414893617021277 0.44985677015749076 0.45202070492195057
0.3417021276595745 0.4489059588584546 0.44992672203224227
0.34191489361702126 0.4479726428920372 0.44884360448894567
0.34212765957446806 0.44849553448080776 0.4436103366302947
0.3423404255319149 0.44842501531918655 0.44353981746867366
0.3425531914893617 0.4469933366647601 0.4425955252707112
0.3427659574468085 0.4473727052870235 0.43926498377151796
0.34297872340425534 0.44699560332193444 0.43482044403191766
0.34319148936170213 0.44621549339832256 0.43351397898698896
0.3434042553191489 0.4442734255661037 0.4341896184333624
0.34361702127659577 0.44510132913092537 0.43626311928810513
0.34382978723404256 0.4517575726837323 0.43856900321061715
0.34404255319148935 0.44521416063619157 0.4420531067209708
0.34425531914893615 0.44894968246213973 0.44572809349048426
0.344468085106383 0.4503169458954409 0.44881862123300265
0.3446808510638298 0.45188080117244755 0.4537652984529938
0.3448936170212766 0.4505114300703787 0.4551042739018234
0.3451063829787234 0.4515199126477909 0.45321872926720674
0.3453191489361702 0.4500643909582742 0.45104143052837675
0.345531914893617 0.4489051803733001 0.45103726786886383
0.3457446808510638 0.4479726428920372 0.4543343726921822
0.34595744680851065 0.4479726428920372 0.45774129336190533
0.34617021276595744 0.4487129667466011 0.4646426689996773
0.34638297872340423 0.4505176313333193 0.46418447141721686
0.3465957446808511 0.4500567219010737 0.4669934348187632
0.3468085106382979 0.44706597574665724 0.467513434294089
0.34702127659574467 0.4538348803126526 0.47274601214449957
0.3472340425531915 0.45344708841252823 0.4757251025748256
0.3474468085106383 0.4509538221245391 0.4730666786987349
0.3476595744680851 0.451471010817438 0.470717746574403
0.3478723404255319 0.45428073573579214 0.46955284215811754
0.34808510638297874 0.4538348803126526 0.46859912282596716
0.34829787234042553 0.45252797783426785 0.46685998305489645
0.3485106382978723 0.4532295233113567 0.46451331151562253
0.34872340425531917 0.45247783684019793 0.46428379774990597
0.34893617021276596 0.45258459415666946 0.46387852259955925
0.34914893617021275 0.45206779146038323 0.4643953252958455
0.34936170212765955 0.455454149353075 0.46368897853862434
0.3495744680851064 0.4538983772655197 0.46354177906081157
0.3497872340425532 0.4557889594528579 0.46136268095181404
0.35 0.45504518504920644 0.45920126813083395
0.3502127659574468 0.4525036698497396 0.45880555127149447
0.3504255319148936 0.4522950814828946 0.4590170360615825
0.3506382978723404 0.4509816985685874 0.4572350345664511
0.35085106382978726 0.4483917795739321 0.45495352415202484
0.35106382978723405 0.4473282388019456 0.4535022448326415
0.35127659574468084 0.4477410852326581 0.45234391649120564
0.35148936170212763 0.44626502124779394 0.45188080117244755
0.3517021276595745 0.44987382617371213 0.45091698556697735
0.3519148936170213 0.4451374773031123 0.4511916209664937
0.35212765957446807 0.4458169907691798 0.4530285883820442
0.3523404255319149 0.4450415241817294 0.45055537328716455
0.3525531914893617 0.44461526261955575 0.45188080117244755
0.3527659574468085 0.447275814085646 0.45134557959344423
0.3529787234042553 0.44733253447524063 0.44960666782384406
0.35319148936170214 0.4437269137601722 0.44665803247048
0.35340425531914893 0.4456930679768352 0.4460185637518319
0.3536170212765957 0.44309082246687953 0.444044220059494
0.35382978723404257 0.4439483084213096 0.4377375424297423
0.35404255319148936 0.44217749793802663 0.43270168147948035
0.35425531914893615 0.43884620010410547 0.4261224652918496
0.354468085106383 0.43883821839838516 0.4235466536394723
0.3546808510638298 0.4408996904598134 0.42336081260732306
0.3548936170212766 0.4431920249114405 0.4234420737695561
0.3551063829787234 0.4407292198754026 0.425904878805594
0.3553191489361702 0.44067124427907 0.42853744414119427
0.355531914893617 0.4423727083381541 0.4303859306301905
0.3557446808510638 0.44576314158265845 0.43306162717132485
0.35595744680851066 0.44925021871413257 0.43504562737466684
0.35617021276595745 0.4473365079162035 0.4404515567127809
0.35638297872340424 0.4489465164152105 0.4450351920878709
0.35659574468085103 0.44710675847135856 0.44894968246213973
0.3568085106382979 0.4479726428920372 0.45096589474010584
0.3570212765957447 0.44932497586624204 0.457743038593063
0.35723404255319147 0.4505477679381763 0.45729869418163926
0.3574468085106383 0.45168356521991304 0.45676599902296044
0.3576595744680851 0.4538348803126526 0.45676599902296044
0.3578723404255319 0.4538348803126526 0.45676599902296044
0.35808510638297875 0.4494892266200161 0.46284991419265165
0.35829787234042554 0.4528578407425501 0.45676599902296044
0.35851063829787233 0.45279721428469955 0.4568872519386616
0.3587234042553191 0.4513658201558167 0.45889173850204246
0.35893617021276597 0.44923349908264343 0.4605485675947794
0.35914893617021276 0.44992672203224227 0.46183689463680366
0.35936170212765955 0.44942298278181353 0.4586592003016557
0.3595744680851064 0.45077979204485263 0.45615596249538953
0.3597872340425532 0.45116061049197814 0.4543485780919193
0.36 0.44922940606747597 0.4504861692429148
0.3602127659574468 0.44894968246213973 0.4489740126868632
0.3604255319148936 0.4498545657125537 0.4530411607960788
0.3606382978723404 0.4491836377218214 0.4428534897818424
0.3608510638297872 0.4502133830945938 0.44165114978213227
0.36106382978723406 0.4472668380923276 0.44406448461162684
0.36127659574468085 0.4468290691034928 0.4421585282973861
0.36148936170212764 0.44701782754395425 0.44066151428278244
0.3617021276595745 0.4465262350140269 0.4415045436093934
0.3619148936170213 0.4485912031721873 0.44468304489177696
0.3621276595744681 0.44828334024888944 0.4443751819684791
0.36234042553191487 0.4479726428920372 0.44406448461162684
0.3625531914893617 0.4460185637518319 0.4440812391775834
0.3627659574468085 0.44632357123853605 0.4448381858572599
0.3629787234042553 0.4488867304968825 0.44312941301836223
0.36319148936170215 0.44704325347366014 0.44420743506680394
0.36340425531914894 0.4480859448523806 0.4465423954805606
0.36361702127659573 0.4496338951745177 0.44342955139771306
0.3638297872340425 0.45166286247783666 0.44408554156995866
0.36404255319148937 0.4485382974434255 0.441133365901319
0.36425531914893616 0.44870635558304 0.43991299945211676
0.36446808510638296 0.4452943899859598 0.439397728918525
0.3646808510638298 0.4456852567559721 0.4426822520054378
0.3648936170212766 0.4479726428920372 0.44211040547142155
0.3651063829787234 0.4466975005125106 0.44296050039110596
0.36531914893617023 0.44765962504213574 0.44493718489842893
0.365531914893617 0.4484012644577552 0.44501756489399613
0.3657446808510638 0.4465785651188765 0.4457444887127607
0.3659574468085106 0.44760997486377957 0.4457668602382444
0.36617021276595746 0.44663301434056535 0.44571133845746524
0.36638297872340425 0.44663015992548655 0.44663015992548655
0.36659574468085104 0.44758576685071993 0.44817593037950526
0.3668085106382979 0.4473424885534315 0.45084014547795653
0.3670212765957447 0.449003636025014 0.4525501454068073
0.3672340425531915 0.44992672203224227 0.4523326835561292
0.36744680851063827 0.44992672203224227 0.4529229612034198
0.3676595744680851 0.4508646457867333 0.455984324575869
0.3678723404255319 0.4534022915117146 0.4595889705330337
0.3680851063829787 0.4500854599511649 0.4587597626428962
0.36829787234042555 0.45081646773484085 0.46227906097356
0.36851063829787234 0.4565750443862918 0.47018994682217174
0.36872340425531913 0.45354494068696877 0.466418230084407
0.368936170212766 0.45216203359544127 0.46347193371255707
0.36914893617021277 0.4513145900199987 0.46149581413867835
0.36936170212765956 0.4522140574657718 0.4602373920155618
0.36957446808510636 0.452630240200876 0.45969711773326827
0.3697872340425532 0.4500643409918755 0.45969711773326827
0.37 0.45090046403093803 0.4597070104474885
0.3702127659574468 0.4499869072461354 0.4624476808018966
0.37042553191489364 0.4518718583716397 0.4606831001041786
0.3706382978723404 0.4528578407425501 0.45867267410915835
0.3708510638297872 0.45290366779710495 0.4568118260775153
0.371063829787234 0.4551845626740973 0.45909272095450765
0.37127659574468086 0.45441514145836825 0.4583232997387786
0.37148936170212765 0.4582388737677258 0.457743038593063
0.37170212765957444 0.45634404510210574 0.4594195749086443
0.3719148936170213 0.45484371920902866 0.45686139700178097
0.3721276595744681 0.45206815498713593 0.4574932335068118
0.3723404255319149 0.4549371769625984 0.4543359086320255
0.3725531914893617 0.4569399666603908 0.46112929396118235
0.3727659574468085 0.4574626639038981 0.45928082754149535
0.3729787234042553 0.4571349351166525 0.4599362851159866
0.3731914893617021 0.4591214231144597 0.4600984626845622
0.37340425531914895 0.4583889933741585 0.46393636080268563
0.37361702127659574 0.4554049444870026 0.4655593551538837
0.37382978723404253 0.45797128916953 0.4631898281888025
0.3740425531914894 0.4560221923758762 0.46442682696843557
0.37425531914893617 0.4540321177900606 0.46558753193637054
0.37446808510638296 0.4601564200582116 0.4663638156422665
0.37468085106382976 0.45481191988275516 0.46416048644207686
0.3748936170212766 0.454122822487853 0.46125004165377154
0.3751063829787234 0.45095729931934253 0.45681953673995795
0.3753191489361702 0.45016024598953175 0.4566277651738433
0.37553191489361704 0.45383678319135556 0.4555432724013049
0.37574468085106383 0.45308392626451377 0.45308392626451377
0.3759574468085106 0.4527919050556315 0.45185442689768013
0.37617021276595747 0.4480832732028726 0.4499543796099511
0.37638297872340426 0.45188080117244755 0.45078231164174576
0.37659574468085105 0.45209323655369643 0.45013915741349114
0.37680851063829784 0.4522757578856597 0.45177688588768034
0.3770212765957447 0.451643559362694 0.4542047791928272
0.3772340425531915 0.4528578407425501 0.45571961787851206
0.3774468085106383 0.45186322012590635 0.45825792994792597
0.3776595744680851 0.45286017335198103 0.4592080147958591
0.3778723404255319 0.45481191988275516 0.4596774918391343
0.3780851063829787 0.45481191988275516 0.4586403023636769
0.37829787234042556 0.4542430984564032 0.4573348204493124
0.37851063829787235 0.4542924757170983 0.45499746616638886
0.37872340425531914 0.4544870817053598 0.45188080117244755
0.37893617021276593 0.45458772914931783 0.44999867908078456
0.3791489361702128 0.4561995284496294 0.44699560332193444
0.3793617021276596 0.455448276695014 0.4483133256498809
0.37957446808510636 0.4538348803126526 0.44941647027586085
0.3797872340425532 0.45272050093281946 0.4495068721520563
0.38 0.45188080117244755 0.4478086937796294
0.3802127659574468 0.45188080117244755 0.4469943689117806
0.3804255319148936 0.45292997106360683 0.4490218127831965
0.38063829787234044 0.45438960572478154 0.4488172712079845
0.38085106382978723 0.45304527026957503 0.4479726428920372
0.381063829787234 0.45188080117244755 0.4466326713752554
0.38127659574468087 0.45034800232039496 0.44448576489977953
0.38148936170212766 0.4534968467565769 0.44495701579271046
0.38170212765957445 0.4498609751279826 0.4391135398568541
0.3819148936170213 0.44825199849207864 0.4366664964208257
0.3821276595744681 0.45068694583093105 0.43114615442887927
0.3823404255319149 0.44857145428960205 0.4309280377272466
0.3825531914893617 0.4450415241817294 0.4323400097703958
0.3827659574468085 0.4450415241817294 0.4320029741512759
0.3829787234042553 0.4450415241817294 0.43078431515053234
0.3831914893617021 0.4444397253809505 0.4320391103700063
0.38340425531914896 0.44267591397667316 0.431362970200293
0.38361702127659575 0.44315733879821445 0.4339803035172752
0.38382978723404254 0.4446960526743115 0.43498503192543664
0.38404255319148933 0.44430577708299274 0.43870857150302095
0.3842553191489362 0.4432166131795467 0.4342212263066563
0.384468085106383 0.44496550736174173 0.4333170493404983
0.38468085106382977 0.44303302095223607 0.4301138101837504
0.3848936170212766 0.4426074599352763 0.4255007327796776
0.3851063829787234 0.44421013619486055 0.4260549914375901
0.3853191489361702 0.44288730297493945 0.4317277481892309
0.38553191489361704 0.44406448461162684 0.437704471032966
0.38574468085106384 0.44406448461162684 0.4408722356423184
0.38595744680851063 0.44838598767590526 0.4452481965736634
0.3861702127659574 0.4465942492777512 0.45018415469494566
0.38638297872340427 0.44791693374631275 0.4594464265775083
0.38659574468085106 0.45018680946357664 0.4679469133463129
0.38680851063829785 0.4528578407425501 0.47364204172646207
0.3870212765957447 0.45353098203143144 0.4796071521429801
0.3872340425531915 0.457618623262658 0.48310459563892866
0.3874468085106383 0.4570849870727453 0.485319497062708
0.3876595744680851 0.455541389765103 0.48388877647899503
0.3878723404255319 0.4540917291759713 0.4831460674157304
0.3880851063829787 0.4518892225028615 0.4831292247549025
0.3882978723404255 0.45427934380339957 0.47595238979672577
0.38851063829787236 0.4524890516643554 0.4659281442320784
0.38872340425531915 0.4548042999934418 0.459297158038051
0.38893617021276594 0.45274914987888 0.45274973898034415
0.3891489361702128 0.4524551029169094 0.44848975666355867
0.3893617021276596 0.44972471284793797 0.4450250210060198
0.3895744680851064 0.45183214160800217 0.4409256006821274
0.38978723404255317 0.4494617355555398 0.43591119484745344
0.39 0.45189063462590046 0.4362457096874429
0.3902127659574468 0.45565509096911044 0.43580660241569324
0.3904255319148936 0.4545641923262288 0.43967474187416655
0.39063829787234045 0.4538348803126526 0.441133365901319
0.39085106382978724 0.4538348803126526 0.44360097030222345
0.39106382978723403 0.4533140816107362 0.4490787981296001
0.3912765957446808 0.4598122843085265 0.45343265017179074
0.39148936170212767 0.4576848331983813 0.4585121966423161
0.39170212765957446 0.4566421591915511 0.4614035172106547
0.39191489361702125 0.4509709576827612 0.4626170370968398
0.3921276595744681 0.45178767519943136 0.4674203083210728
0.3923404255319149 0.4509037616023448 0.4673618640698443
0.3925531914893617 0.45059079194533214 0.4701315833473839
0.39276595744680853 0.4495004365637835 0.46946751343429405
0.3929787234042553 0.4500327988896162 0.46838439700681755
0.3931914893617021 0.4509037616023448 0.46423222713027223
0.3934042553191489 0.4532132371444879 0.46185841126286153
0.39361702127659576 0.4520675398463695 0.4598838564071902
0.39382978723404255 0.45277884006122493 0.45971686790359956
0.39404255319148934 0.44908844242367063 0.46074353728413625
0.3942553191489362 0.4509192637535803 0.4617132054784154
0.394468085106383 0.4519381527761958 0.4659608163801215
0.3946808510638298 0.45236923757397235 0.4707699549160095
0.39489361702127657 0.44907069028777014 0.46262823644357587
0.3951063829787234 0.448646858484648 0.46180260886221913
0.3953191489361702 0.4503662328013806 0.4606741573033708
0.395531914893617 0.45126686513778663 0.4559836564339657
0.39574468085106385 0.45348572976397744 0.44821763024229766
0.39595744680851064 0.4491656498270463 0.43952483454496427
0.39617021276595743 0.4529477073653296 0.4338447557967033
0.3963829787234043 0.45218270938305316 0.4298219337924878
0.39659574468085107 0.4475476357557807 0.4316687846010828
0.39680851063829786 0.4501194950154499 0.43077147659660586
0.39702127659574465 0.4503385882174498 0.4302837258303988
0.3972340425531915 0.4514611562305786 0.4319203648285268
0.3974468085106383 0.4512416345383521 0.4323765890083147
0.3976595744680851 0.45188080117244755 0.43391853905510275
0.39787234042553193 0.4527454169805258 0.4333170493404983
0.3980851063829787 0.45294453013804725 0.43554292477701184
0.3982978723404255 0.45055162141668714 0.4390883670281848
0.3985106382978723 0.4499001286779708 0.4420572187628786
0.39872340425531916 0.45188080117244755 0.4461395289621191
0.39893617021276595 0.45188080117244755 0.4518370775949256
0.39914893617021274 0.45188080117244755 0.45401866168190175
0.3993617021276596 0.45084226489536844 0.45654281367788707
0.3995744680851064 0.44894968246213973 0.458710642105595
0.3997872340425532 0.4489794919502366 0.45380507082455573
0.4 0.45142732699815363 0.4513572357766387
0.4002127659574468 0.45188080117244755 0.4469576983997086
0.4004255319148936 0.45188080117244755 0.44265865731999604
0.4006382978723404 0.45188080117244755 0.44297462114343283
0.40085106382978725 0.4527833200803972 0.44579500176537323
0.40106382978723404 0.45380302517720905 0.4489815375975833
0.40127659574468083 0.4529861229708532 0.44992672203224227
0.4014893617021277 0.4531217239288216 0.4508775972106836
0.40170212765957447 0.4515971131653848 0.4552215834387326
0.40191489361702126 0.4511455272481135 0.45902727371389046
0.40212765957446805 0.4494162241711792 0.4606741573033708
0.4023404255319149 0.4494724262763933 0.4611284530592198
0.4025531914893617 0.4484741498352586 0.46307779475411687
0.4027659574468085 0.44857112088262036 0.46458231558378116
0.40297872340425533 0.4511339511275837 0.4667665842492251
0.4031914893617021 0.45188080117244755 0.46837443008345353
0.4034042553191489 0.4499401774198939 0.4684904738641915
0.40361702127659577 0.4509037616023448 0.4681081197192906
0.40382978723404256 0.45064359375106205 0.4650390194513182
0.40404255319148935 0.4491517752501892 0.463217802622652
0.40425531914893614 0.44697787086139934 0.4616334644129381
0.404468085106383 0.44540940173159566 0.46006499528313455
0.4046808510638298 0.4472643924628754 0.45673329335840696
0.4048936170212766 0.4471010790741692 0.4549173956349899
0.4051063829787234 0.44894968246213973 0.4487896035139707
0.4053191489361702 0.44805562855753056 0.44264041808921956
0.405531914893617 0.4432961202999894 0.43932162529735547
0.4057446808510638 0.44460299814579535 0.4360686635394166
0.40595744680851065 0.4470270001755591 0.4352868269075157
0.40617021276595744 0.448328467415727 0.43593756052759974
0.40638297872340423 0.4482761475675762 0.43422756336711565
0.4065957446808511 0.44699560332193444 0.4303783528760913
0.40680851063829787 0.44699560332193444 0.4291685445526333
0.40702127659574466 0.4475228708301909 0.4276409502276008
0.4072340425531915 0.4488711524710865 0.42561852776625747
0.4074468085106383 0.44955036007746346 0.42490005516435386
0.4076595744680851 0.4502721001559422 0.42521444945697495
0.4078723404255319 0.4504373685905795 0.42554498632624943
0.40808510638297874 0.4498204313598838 0.42278730129380576
0.4082978723404255 0.4531813124150644 0.4251640120020438
0.4085106382978723 0.4525245353639605 0.42974219643867745
0.40872340425531917 0.45200025017026046 0.43684541303987107
0.40893617021276596 0.45417040740120274 0.4437584992186244
0.40914893617021275 0.45481191988275516 0.44811102017925886
0.40936170212765954 0.451287122915747 0.4533556786708998
0.4095744680851064 0.45481191988275516 0.45386774916542144
0.4097872340425532 0.45481191988275516 0.45743788202112284
0.41 0.4550241577009338 0.45417520642821935
0.4102127659574468 0.45515519402223487 0.45346521474900503
0.4104255319148936 0.453441815561429 0.4555868047692895
0.4106382978723404 0.4528578407425501 0.45429793586192385
0.41085106382978726 0.4552358868332923 0.4560009429281263
0.41106382978723405 0.45457898051367274 0.45603699285319793
0.41127659574468084 0.45211235671877914 0.4575114830467314
0.41148936170212763 0.4528189100851514 0.4626087711148765
0.4117021276595745 0.45120715156960906 0.46180289185710544
0.41191489361702127 0.45314308797708874 0.4631987309126533
0.41212765957446806 0.4546703905982514 0.46458231558378116
0.4123404255319149 0.4557889594528579 0.46403122752113674
0.4125531914893617 0.4544189425065972 0.4636052760136786
0.4127659574468085 0.45546709018953935 0.4619730661367919
0.4129787234042553 0.45295541945269274 0.46259571020686163
0.41319148936170214 0.45481191988275516 0.46165119687347334
0.41340425531914893 0.45481191988275516 0.46165119687347334
0.4136170212765957 0.4544620432644162 0.46165119687347334
0.41382978723404257 0.4538348803126526 0.4631000289174163
0.41404255319148936 0.4550646865432388 0.46396741246848816
0.41425531914893615 0.4542955689793037 0.4636052760136786
0.414468085106383 0.4604344625561545 0.4614054152658446
0.4146808510638298 0.45713055384870305 0.4606741573033708
0.4148936170212766 0.45743911274022536 0.45984908065968705
0.4151063829787234 0.457743038593063 0.45718020579865415
0.4153191489361702 0.4543742462483037 0.45929259328152994
0.415531914893617 0.45635560053818636 0.4580166375829124
0.4157446808510638 0.45847091597528566 0.4585954970692256
0.41595744680851066 0.4551873961099442 0.4604864191897763
0.41617021276595745 0.4538391005624232 0.46164697662370274
0.41638297872340424 0.4538348803126526 0.4624259765916319
0.4165957446808511 0.4532481370231876 0.4602829951103941
0.4168085106382979 0.4518390871899313 0.45965540375075203
0.41702127659574467 0.4551148575560917 0.461224537792327
0.41723404255319146 0.4545973733361596 0.46230062656847143
0.4174468085106383 0.4535158997419834 0.4629472170142451
0.4176595744680851 0.45305923726115144 0.4595256642375709
0.4178723404255319 0.4546177649958275 0.4604800024164431
0.41808510638297874 0.4509206527688922 0.4607079396364656
0.41829787234042554 0.4526423844975959 0.46425913121634993
0.41851063829787233 0.4513262889915666 0.46143993317886245
0.4187234042553191 0.453871324013249 0.4599985017895715
0.41893617021276597 0.454849123905426 0.4577802426157337
0.41914893617021276 0.4508193567528579 0.4543535801751246
0.41936170212765955 0.45481153046067 0.44992691674328494
0.4195744680851064 0.4481428687867363 0.44118886524953815
0.4197872340425532 0.4498770196963873 0.4360824935979563
0.42 0.44728907921883637 0.42618429645287825
0.42021276595744683 0.44870083042412906 0.423777137095543
0.4204255319148936 0.4479726428920372 0.42130231153549985
0.4206382978723404 0.448788910880074 0.4202074009351462
0.4208510638297872 0.4488517875560433 0.41963849535906195
0.42106382978723406 0.4479726428920372 0.42296268127339154
0.42127659574468085 0.4471772826566647 0.4292958546218094
0.42148936170212764 0.44792364592677164 0.4294578880253535
0.4217021276595745 0.44789015037670626 0.43372951191715303
0.4219148936170213 0.44762843540736375 0.4388350792764405
0.4221276595744681 0.4495815334110965 0.44009780003788174
0.42234042553191486 0.44894968246213973 0.4382022471910112
0.4225531914893617 0.4485145700569253 0.4364617975701534
0.4227659574468085 0.4490589716800173 0.43157826694065055
0.4229787234042553 0.44992672203224227 0.42679870873015974
0.42319148936170214 0.44847298513943695 0.42332012744046943
0.42340425531914894 0.4463259052225307 0.42503972057362943
0.42361702127659573 0.4516069270657705 0.4245693388940212
0.4238297872340426 0.44608550218263837 0.42785644250472143
0.42404255319148937 0.4471799636761842 0.43387013040324746
0.42425531914893616 0.44856355949346555 0.43743000125366294
0.42446808510638295 0.44912191463848417 0.44176594111873274
0.4246808510638298 0.4479726428920372 0.445609655558696
0.4248936170212766 0.4479726428920372 0.4533015126368667
0.4251063829787234 0.44871832426235403 0.45527463628232656
0.42531914893617023 0.44894968246213973 0.45996567612105244
0.425531914893617 0.45382252330628114 0.46359786180985574
0.4257446808510638 0.4509037616023448 0.46262823644357587
0.4259574468085106 0.45045260534535053 0.4619515020580845
0.42617021276595746 0.44996335608374594 0.4590213353188641
0.42638297872340425 0.4523188767020475 0.45599073647466304
0.42659574468085104 0.4523131824502142 0.4527455637279808
0.4268085106382979 0.44988766512390477 0.4505520438067523
0.4270212765957447 0.44894968246213973 0.4491945493451925
0.4272340425531915 0.4497403158319332 0.4505309492017266
0.4274468085106383 0.45165809835755755 0.45003807343968727
0.4276595744680851 0.451891664209607 0.4528578407425501
0.4278723404255319 0.45271848323425934 0.45327591326742234
0.4280851063829787 0.45188080117244755 0.4549703220186377
0.42829787234042555 0.45188080117244755 0.45445604441531595
0.42851063829787234 0.45188080117244755 0.455722388125041
0.42872340425531913 0.45383419414999787 0.45285852690520484
0.428936170212766 0.451677851225245 0.4495302496793149
0.42914893617021277 0.4527256878775387 0.44530582991175216
0.42936170212765956 0.45279382561918985 0.4429594147948036
0.42957446808510635 0.4516890635179214 0.44132510355584514
0.4297872340425532 0.45248466330968046 0.44242658581288863
0.43 0.45398180058068915 0.4471535525039039
0.4302127659574468 0.45363690977497717 0.45071006210409437
0.43042553191489363 0.45481191988275516 0.4506293229173154
0.4306382978723404 0.45401462097335754 0.45648485396812855
0.4308510638297872 0.452933687725625 0.4613478089411737
0.43106382978723407 0.4519431568382683 0.4667234617214485
0.43127659574468086 0.4534635394739393 0.4730175335424574
0.43148936170212765 0.45103454469797655 0.4779377454732734
0.43170212765957444 0.45143763503482903 0.4832769431896739
0.4319148936170213 0.44992672203224227 0.4857524203703252
0.4321276595744681 0.44992672203224227 0.4840209762282098
0.4323404255319149 0.4494251562880073 0.4825923178347604
0.4325531914893617 0.44951451874969456 0.4768259309800935
0.4327659574468085 0.4492581293890429 0.47234693335520894
0.4329787234042553 0.4497250095377107 0.4698709384233572
0.4331914893617021 0.44992672203224227 0.4614797149507392
0.43340425531914895 0.45381514998298905 0.45959846608495053
0.43361702127659574 0.45247587307764214 0.4544299522178472
0.43382978723404253 0.44992672203224227 0.451407474483535
0.4340425531914894 0.45026890148100984 0.4495845425834747
0.43425531914893617 0.45179758655279256 0.44760894503646814
0.43446808510638296 0.4507144671075813 0.4444110335256053
0.4346808510638298 0.44765891839793004 0.443732827073629
0.4348936170212766 0.4485471326312569 0.4425129553023044
0.4351063829787234 0.44804311114541523 0.44211040547142155
0.4353191489361702 0.4479726428920372 0.44397938351183885
0.43553191489361703 0.4481435703794843 0.44159762300908006
0.4357446808510638 0.4492531409684724 0.43948274526744646
0.4359574468085106 0.4494862698544405 0.4397158741534147
0.43617021276595747 0.44952599189215386 0.43917928676111373
0.43638297872340426 0.45134458634910934 0.44130608323641424
0.43659574468085105 0.45188080117244755 0.4445923844423092
0.43680851063829784 0.44996240158416695 0.44695992377000976
0.4370212765957447 0.45136326621882383 0.44992672203224227
0.4372340425531915 0.4550602921601685 0.450423466587069
0.4374468085106383 0.4550289055639777 0.45188080117244755
0.4376595744680851 0.4538348803126526 0.4508579610070878
0.4378723404255319 0.45254798813978764 0.44992672203224227
0.4380851063829787 0.4504165720913784 0.4433376911674317
0.43829787234042555 0.44908310297145937 0.43860250871897016
0.43851063829787235 0.4497783042002225 0.43654500371484556
