0.0 0.43917928676111373 0.45188080117244755
0.0002127659574468085 0.44151506499656107 0.45129685661358565
0.000425531914893617 0.4430874450415241 0.45185187667685334
0.0006382978723404255 0.442474839594547 0.4538348803126526
0.000851063829787234 0.44087773087383264 0.45562432550505744
0.0010638297872340426 0.44005282159189096 0.4602601383460688
0.001276595744680851 0.4392769734169943 0.4571567456464826
0.0014893617021276596 0.43917928676111373 0.4575253499276173
0.001702127659574468 0.4399121694379809 0.45847592126993
0.0019148936170212765 0.4393997401130281 0.4579634919449773
0.002127659574468085 0.43995340013625023 0.45696892521792665
0.002340425531914894 0.44173273055919127 0.4544013926809981
0.002553191489361702 0.44211040547142155 0.451409485175014
0.0027659574468085106 0.44375884583447006 0.4509037616023448
0.0029787234042553193 0.4449672857473929 0.4536121650096432
0.0031914893617021275 0.44318688444103727 0.45486163958251175
0.003404255319148936 0.4469976232860827 0.45677609884370185
0.003617021276595745 0.44788856057868054 0.46207160844025663
0.003829787234042553 0.44755611237169984 0.46747057647359525
0.004042553191489362 0.4505515209596321 0.472358790965584
0.00425531914893617 0.45232007329242235 0.4747919834047818
0.004468085106382979 0.4534258456098307 0.4753297508549097
0.004680851063829788 0.45522961006064455 0.47323765623292186
0.004893617021276595 0.45426581061116394 0.47316020656544877
0.005106382978723404 0.4529832794606982 0.47082086915884097
0.005319148936170213 0.4528578407425501 0.4723720536772766
0.005531914893617021 0.4538348803126526 0.4733756717147044
0.00574468085106383 0.4530956154902174 0.4728828284997476
0.005957446808510639 0.450523348495883 0.46951952704219
0.006170212765957446 0.44941481153345 0.4670483052227786
0.006382978723404255 0.44575398739282923 0.46495687823864057
0.006595744680851064 0.4402152489428779 0.4597560403449297
0.006808510638297872 0.43917928676111373 0.45783467516339876
0.007021276595744681 0.44383224314752157 0.4555180110780684
0.00723404255319149 0.4380778872908435 0.44832788296130116
0.007446808510638298 0.4372646618258635 0.4442617556364009
0.007659574468085106 0.44010060696473924 0.44314316440800133
0.007872340425531916 0.439739137121317 0.443691251038158
0.008085106382978723 0.4427504949903386 0.44211040547142155
0.008297872340425531 0.4432710869659973 0.4436972007626805
0.00851063829787234 0.4442968645180002 0.44470668832388466
0.008723404255319148 0.4486677808109062 0.4442022300341719
0.008936170212765958 0.4533782744869507 0.4436609031998459
0.009148936170212766 0.45481191988275516 0.4398004555884891
0.009361702127659575 0.45767058684840867 0.43727350878401156
0.009574468085106383 0.4588125410355814 0.4371327447484928
0.00978723404255319 0.45984515393856074 0.4359520956402212
0.01 0.4604022409052033 0.43402217251243336
0.010212765957446808 0.4600988423299248 0.43532567232378105
0.010425531914893617 0.4590710152667903 0.4392710085487316
0.010638297872340425 0.459068743917382 0.4421448843176948
0.010851063829787235 0.45890483676504407 0.4438797260097483
0.011063829787234043 0.4596456083210501 0.4459155449273956
0.01127659574468085 0.4576679663526529 0.447370964523985
0.01148936170212766 0.4572307445497832 0.45188080117244755
0.011702127659574468 0.458836158880343 0.4507328560352139
0.011914893617021277 0.4571853289009105 0.44839197276998727
0.012127659574468085 0.4582951353516032 0.44950177922067996
0.012340425531914893 0.459405927409306 0.4492408727861019
0.012553191489361702 0.46214994313605046 0.4481320739945457
0.01276595744680851 0.46169732239068734 0.44704172883914844
0.01297872340425532 0.4625796424115528 0.44513871224577556
0.013191489361702127 0.4636052760136786 0.4407171379897844
0.013404255319148937 0.4625754829000359 0.435889004348889
0.013617021276595745 0.4590611896488135 0.4354733553058278
0.013829787234042552 0.45969711773326827 0.42943959681774
0.014042553191489362 0.4566636187244495 0.4278251516882216
0.01425531914893617 0.45481191988275516 0.42671383664662405
0.01446808510638298 0.4521923006434278 0.4290973915891077
0.014680851063829787 0.4538348803126526 0.43035645016363405
0.014893617021276596 0.4538348803126526 0.4300419198543494
0.015106382978723404 0.45527871656419383 0.43418335109142303
0.015319148936170212 0.4583127749827204 0.43787738077258676
0.015531914893617021 0.45667348308042144 0.4422954373564997
0.01574468085106383 0.4564562249193484 0.4447317500781173
0.015957446808510637 0.4527641866823438 0.44424116171360606
0.016170212765957447 0.45372991400519913 0.4459135974443784
0.016382978723404256 0.45000883942405984 0.44528787635718203
0.016595744680851062 0.45003649307893984 0.4481894600228884
0.01680851063829787 0.44699560332193444 0.44894968246213973
0.01702127659574468 0.4474471576764419 0.44804657375312495
0.01723404255319149 0.4479726428920372 0.44865843140135936
0.017446808510638297 0.4479726428920372 0.44992672203224227
0.017659574468085106 0.44716146529351564 0.44992672203224227
0.017872340425531916 0.44699560332193444 0.45174491408903655
0.018085106382978722 0.4469532998244428 0.4519654081674308
0.01829787234042553 0.4463426385781095 0.4539969177257914
0.01851063829787234 0.4471089754916814 0.45567558728311097
0.01872340425531915 0.4450415241817294 0.45857133242616704
0.018936170212765956 0.4450415241817294 0.4613253051644986
0.019148936170212766 0.4450415241817294 0.4659865109131726
0.019361702127659575 0.4450415241817294 0.4688495699783514
0.01957446808510638 0.4450415241817294 0.46946751343429405
0.01978723404255319 0.4450415241817294 0.47110463508833733
0.02 0.44126522202624185 0.4676452904190118
0.02021276595744681 0.441133365901319 0.4655593551538837
0.020425531914893616 0.4409061158185606 0.4651048549883669
0.020638297872340425 0.43944850056583423 0.4636052760136786
0.020851063829787235 0.437242199575079 0.4636052760136786
0.02106382978723404 0.4374606739472812 0.46057401127249065
0.02127659574468085 0.4367427778613327 0.4609092821576834
0.02148936170212766 0.43710343061169404 0.46165119687347334
0.02170212765957447 0.43722520762090866 0.46165119687347334
0.021914893617021276 0.4382022471910112 0.461952960167492
0.022127659574468085 0.4388146534095958 0.46576349056007854
0.022340425531914895 0.44084614557253965 0.4653875134088688
0.0225531914893617 0.4401563263312165 0.46232098838011265
0.02276595744680851 0.4414545514262511 0.46165119687347334
0.02297872340425532 0.44084101790849517 0.46108959009021616
0.023191489361702126 0.4405520475687886 0.45930139649569596
0.023404255319148935 0.44355342261204744 0.4579133925929228
0.023617021276595745 0.44499229621584885 0.4540317921761748
0.023829787234042554 0.4459396429387593 0.4557889594528579
0.02404255319148936 0.4450415241817294 0.4557889594528579
0.02425531914893617 0.4464070537197222 0.4557889594528579
0.02446808510638298 0.4484783507551703 0.45626029115982736
0.024680851063829785 0.44737084327902876 0.4555623997969437
0.024893617021276595 0.44555886575694986 0.4533751823177706
0.025106382978723404 0.44671296610118666 0.45536500362173626
0.025319148936170214 0.4450789358547177 0.4548306257192493
0.02553191489361702 0.4422246425701798 0.4631483276186457
0.02574468085106383 0.4430874450415241 0.4606337765415812
0.02595744680851064 0.44440040111342927 0.4632770369957023
0.026170212765957445 0.44471758125991356 0.46308384085598014
0.026382978723404255 0.44445538658334316 0.4630190307356981
0.026595744680851064 0.4474584620455448 0.46406813473728875
0.026808510638297874 0.44882349496180857 0.4654331676535525
0.02702127659574468 0.4498424519868741 0.461988277054946
0.02723404255319149 0.44894968246213973 0.45667906731413244
0.0274468085106383 0.44938599855718825 0.45354400291595365
0.027659574468085105 0.45241349824128246 0.452147149706865
0.027872340425531914 0.4534443014554458 0.4528578407425501
0.028085106382978724 0.4539021755817661 0.45129133848372593
0.028297872340425533 0.45677442129887763 0.45058088917094974
0.02851063829787234 0.4569569224793107 0.4509037616023448
0.02872340425531915 0.455850229096978 0.4563983811582401
0.02893617021276596 0.4569640051426691 0.4580730487925774
0.029148936170212764 0.4589141346568071 0.46204099913623004
0.029361702127659574 0.4561138622154516 0.4587224094454872
0.029574468085106383 0.4572210013579711 0.4535809826778856
0.029787234042553193 0.45656939655030826 0.4469926169253553
0.03 0.45435197469616484 0.44216755466834334
0.03021276595744681 0.4538348803126526 0.43775097185124817
0.030425531914893618 0.45286625569336864 0.4343193337630565
0.030638297872340424 0.45297613744323484 0.4358932779487519
0.030851063829787233 0.4540830059831168 0.43306892367003413
0.031063829787234043 0.45556771506262034 0.43196211218046315
0.03127659574468085 0.4582908328577871 0.431362970200293
0.03148936170212766 0.4585184281672726 0.431362970200293
0.03170212765957447 0.457743038593063 0.43205097569407047
0.031914893617021274 0.45529818872629635 0.43152505981480677
0.03212765957446809 0.45745586576192065 0.4322442854933483
0.03234042553191489 0.4548656199748272 0.42946259115216
0.0325531914893617 0.4562886736262497 0.431362970200293
0.03276595744680851 0.4538348803126526 0.4310738194567668
0.03297872340425532 0.45425081124077044 0.4312177924864262
0.033191489361702124 0.45753472939375905 0.433973695476998
0.03340425531914894 0.46170969332612344 0.4339294114187999
0.03361702127659574 0.460245428669207 0.4349055878567442
0.033829787234042556 0.45885968111577335 0.43862087495068247
0.03404255319148936 0.46144837108802095 0.438269855786162
0.03425531914893617 0.4607010900398129 0.4382291799274533
0.03446808510638298 0.463459185569496 0.44106032067922774
0.03468085106382979 0.46238471287720606 0.44030302953196304
0.03489361702127659 0.4663122996418507 0.4409092708191835
0.035106382978723406 0.46319897120793085 0.44083072174434584
0.03531914893617021 0.45831828499606814 0.44291399180561647
0.03553191489361702 0.4590398142368146 0.44536126025537837
0.03574468085106383 0.45966306870538565 0.44699560332193444
0.03595744680851064 0.45681613455872255 0.4463609554537868
0.036170212765957444 0.4534964168325483 0.449075287245578
0.036382978723404256 0.45639559608952257 0.4508111608689853
0.03659574468085106 0.453732891447215 0.44898367875061895
0.03680851063829787 0.4510666196062944 0.4497638640282927
0.03702127659574468 0.45099836690418116 0.45100869575476127
0.03723404255319149 0.44852244250922607 0.4557889594528579
0.0374468085106383 0.45021618106291783 0.45634984399557804
0.03765957446808511 0.4484162096059082 0.45745891733626826
0.03787234042553191 0.4493572658277817 0.4616791427694749
0.038085106382978726 0.4455140832102196 0.4573330698571487
0.03829787234042553 0.4430371191366145 0.45967195478081346
0.03851063829787234 0.4416023439237092 0.4588764041706289
0.03872340425531915 0.44406448461162684 0.4594185637186237
0.03893617021276596 0.44406448461162684 0.4594990343625495
0.03914893617021276 0.44406448461162684 0.4596400162153748
0.039361702127659576 0.44406448461162684 0.4645047758230209
0.03957446808510638 0.44329971760365494 0.4606305312223429
0.03978723404255319 0.4439831935727764 0.4596158266944178
0.04 0.44782390614795425 0.46252907861418724
0.04021276595744681 0.4450415241817294 0.4614040796897601
0.04042553191489362 0.44535728044161826 0.4639508030640033
0.040638297872340426 0.44556878122933913 0.46352780148856154
0.04085106382978723 0.44561967390899465 0.4634260161292505
0.041063829787234045 0.4460185637518319 0.4619201559999008
0.04127659574468085 0.44685134507749835 0.46165119687347334
0.04148936170212766 0.4460409299152397 0.4606965234667786
0.04170212765957447 0.4449329255533448 0.45926272321972994
0.041914893617021276 0.44406448461162684 0.45558869939296015
0.04212765957446808 0.44406448461162684 0.4546293582639783
0.042340425531914895 0.4431387523157848 0.4538348803126526
0.0425531914893617 0.441133365901319 0.4542719805956753
0.04276595744680851 0.4428296170697552 0.45537733693890065
0.04297872340425532 0.44128117789792776 0.4564847861312826
0.043191489361702126 0.44263686508690975 0.4575928452748582
0.04340425531914894 0.4411878330796163 0.457743038593063
0.043617021276595745 0.44133034920164965 0.4589170614634962
0.04382978723404255 0.44262348334418694 0.46044217645470226
0.044042553191489364 0.4429497353455083 0.4589705699555925
0.04425531914893617 0.446512048228199 0.4582365230694301
0.044468085106382976 0.44636921757394965 0.45934646391115047
0.04468085106382979 0.44677818463446506 0.45969711773326827
0.044893617021276595 0.44699560332193444 0.46058316149969214
0.0451063829787234 0.45180246305840555 0.45965794867624726
0.045319148936170214 0.44992672203224227 0.46009052388899485
0.04553191489361702 0.4502293186535473 0.4641156217535456
0.045744680851063826 0.4509037616023448 0.4587200781631655
0.04595744680851064 0.4513253593699106 0.45703368709290265
0.046170212765957445 0.4524059123746029 0.45533703108491064
0.04638297872340425 0.45220274364056245 0.4551338623508701
0.046595744680851064 0.4526662453596505 0.45559736406995827
0.04680851063829787 0.4537736787561203 0.4548731214392875
0.047021276595744683 0.4501210483407262 0.4557889594528579
0.04723404255319149 0.4528578407425501 0.45542425971582223
0.047446808510638296 0.45311626148478656 0.4543517217971256
0.04765957446808511 0.4538348803126526 0.454265823754983
0.047872340425531915 0.45485274565804723 0.4513718684997502
0.04808510638297872 0.4545094328618691 0.4515435248978393
0.048297872340425534 0.45614574837641547 0.45034022246327227
0.04851063829787234 0.455865959006751 0.44992672203224227
0.048723404255319146 0.45481191988275516 0.44813650958819473
0.04893617021276596 0.4553169764567168 0.45006200064574203
0.049148936170212765 0.45753080567201415 0.4468674954360273
0.04936170212765957 0.45643234876748195 0.4495930717767638
0.049574468085106384 0.45671951289242757 0.4475538523027851
0.04978723404255319 0.4559567389939722 0.445423130552135
0.05 0.4562619822727169 0.4435914617917676
0.05021276595744681 0.4559658692481091 0.444687704591227
0.050425531914893615 0.4575966961748009 0.44323378745978614
0.05063829787234043 0.45590222946770675 0.44320071505637293
0.050851063829787234 0.45755527291823195 0.4450415241817294
0.05106382978723404 0.45676599902296044 0.4460004206510893
0.05127659574468085 0.45676599902296044 0.4483956420641682
0.05148936170212766 0.45828956079265415 0.44894968246213973
0.051702127659574465 0.45969711773326827 0.4502027814674834
0.05191489361702128 0.45969711773326827 0.4501500382961594
0.052127659574468084 0.4605853413833929 0.4481502747319929
0.05234042553191489 0.46165119687347334 0.4470767931669216
0.0525531914893617 0.46165119687347334 0.44792710365792765
0.05276595744680851 0.46104016779236534 0.4424764159604161
0.05297872340425532 0.4592570366494236 0.4415734469851636
0.05319148936170213 0.45929328321145213 0.4444032256645677
0.053404255319148934 0.458284996719367 0.44107614020317776
0.05361702127659575 0.4594122376684784 0.44084848583652914
0.05382978723404255 0.45795511487067353 0.438520361607427
0.05404255319148936 0.4567972438505275 0.44014591138869413
0.05425531914893617 0.4591388419677384 0.4394584246438787
0.05446808510638298 0.45551911236243553 0.44059367172047437
0.054680851063829784 0.45320191287527894 0.43917928676111373
0.0548936170212766 0.45197052893125134 0.43917928676111373
0.0551063829787234 0.45352251001445326 0.4365206096735009
0.05531914893617021 0.45065620158922354 0.4352711284807034
0.05553191489361702 0.44904990584047916 0.4387783932477559
0.05574468085106383 0.4460859855512617 0.43722520762090866
0.055957446808510634 0.4486481012855658 0.43722520762090866
0.05617021276595745 0.44699560332193444 0.43722520762090866
0.05638297872340425 0.4474123399316163 0.43889215405963566
0.056595744680851066 0.44742475047432845 0.4394896886481931
0.05680851063829787 0.446318515900713 0.43887933461223266
0.05702127659574468 0.4492573283231866 0.4424180513324684
0.05723404255319149 0.4480474396536721 0.442147803852239
0.0574468085106383 0.4460185637518319 0.4442583966364232
0.057659574468085104 0.4462459722867585 0.44738301496139155
0.05787234042553192 0.44735040049571034 0.45152600399867165
0.05808510638297872 0.4479726428920372 0.4526957598095879
0.05829787234042553 0.4490302205762847 0.45534070872487903
0.05851063829787234 0.44927301815773724 0.46297970207241373
0.05872340425531915 0.449731671300826 0.4610624728531822
0.058936170212765954 0.4481006184195275 0.45969711773326827
0.05914893617021277 0.4479059131851894 0.4604739681828275
0.05936170212765957 0.44683267468607824 0.4574986456392786
0.059574468085106386 0.44592138260778147 0.4561317075218334
0.05978723404255319 0.44489761772917663 0.45477594326961696
0.06 0.44122985779234924 0.45393137220368285
0.06021276595744681 0.44211040547142155 0.45481191988275516
0.06042553191489362 0.44240301438649016 0.45481191988275516
0.06063829787234042 0.44406448461162684 0.45538005314160895
0.060851063829787236 0.44370493338416245 0.4594391806180943
0.06106382978723404 0.44257917572442335 0.46403454720258125
0.06127659574468085 0.44373412437699344 0.4661779522217583
0.06148936170212766 0.4434910975034052 0.46205484933535435
0.06170212765957447 0.44406448461162684 0.4630972662549934
0.06191489361702127 0.4435021077856567 0.46473002966561866
0.062127659574468086 0.4437420203681168 0.46490477982729117
0.06234042553191489 0.4476590835094039 0.4667390749224475
0.0625531914893617 0.44894968246213973 0.4712924865749276
0.0627659574468085 0.4481638472979909 0.4731844673087507
0.06297872340425532 0.44964264704968193 0.4733756717147044
0.06319148936170213 0.44814425337023367 0.46891950005968264
0.06340425531914894 0.4479726428920372 0.46674232962676215
0.06361702127659574 0.4488846637968304 0.465624373819193
0.06382978723404255 0.4450506001608561 0.46263504342792094
0.06404255319148935 0.44592154176683846 0.45989116170325517
0.06425531914893617 0.4444432156021197 0.4630371795279393
0.06446808510638298 0.4479551153560623 0.45776932989702535
0.06468085106382979 0.4470437701174723 0.45588529304393366
0.06489361702127659 0.4479231886357631 0.4548613741390293
0.0651063829787234 0.4468480420368121 0.4551987143123685
0.06531914893617022 0.44627931051233133 0.45188080117244755
0.06553191489361702 0.4466241291250562 0.4522522753693258
0.06574468085106383 0.44508709605934166 0.452392106896305
0.06595744680851064 0.4472254589610125 0.4508271430559856
0.06617021276595744 0.4487483496450194 0.4511050944194652
0.06638297872340425 0.4492818197534131 0.45122621274175945
0.06659574468085107 0.4513381014417301 0.4516094513070888
0.06680851063829787 0.4532543196189236 0.4505072827259714
0.06702127659574468 0.45448756118308997 0.45188476464355454
0.06723404255319149 0.4565683828015088 0.45461430366130373
0.06744680851063829 0.45877133865747755 0.4545035843723396
0.06765957446808511 0.46060636323796617 0.4522098036467288
0.06787234042553192 0.46165119687347334 0.4501256559026094
0.06808510638297872 0.46200736745739013 0.4493058530460565
0.06829787234042553 0.4614057278667779 0.44911171631437696
0.06851063829787234 0.4620433886277591 0.4479726428920372
0.06872340425531914 0.4614346635374851 0.4500710775895679
0.06893617021276596 0.4581587845898591 0.45188080117244755
0.06914893617021277 0.457743038593063 0.45415600310599863
0.06936170212765957 0.45895869073726436 0.4588280898133611
0.06957446808510638 0.45574337440428797 0.46010933682780225
0.06978723404255319 0.4528578407425501 0.45871135453728773
0.06999999999999999 0.4524016035904983 0.45683056428895935
0.07021276595744681 0.4507522938002869 0.45541279032880433
0.07042553191489362 0.44952374530316724 0.45567301414429645
0.07063829787234042 0.45058218748551876 0.45645674212575876
0.07085106382978723 0.45022682201914316 0.4514340804174452
0.07106382978723404 0.4509037616023448 0.44805605180060054
0.07127659574468086 0.45134671497361933 0.45499164338456377
0.07148936170212766 0.455017172368461 0.44838482007384883
0.07170212765957447 0.45521028187235796 0.44583824816093476
0.07191489361702127 0.45563745405958667 0.4454542912701451
0.07212765957446808 0.45676599902296044 0.4443624021298765
0.07234042553191489 0.45699447299130563 0.44044794399628345
0.0725531914893617 0.45839639563657264 0.43792223702950706
0.07276595744680851 0.46356307883015013 0.4357079442322595
0.07297872340425532 0.46326699640030006 0.4346134688889629
0.07319148936170213 0.4615996887295329 0.4327512673395363
0.07340425531914893 0.4600474177641653 0.431362970200293
0.07361702127659574 0.45864141319295104 0.4314809676556147
0.07382978723404256 0.4568921714802645 0.43410483022464474
0.07404255319148936 0.4584240741065358 0.43097793874345003
0.07425531914893617 0.4556153267135743 0.43116211849258823
0.07446808510638298 0.4529343438037447 0.43324054627930364
0.07468085106382978 0.4533985141840168 0.4365706584279547
0.0748936170212766 0.4551046227883918 0.44024186841427476
0.07510638297872341 0.4493020712720734 0.4409671873538145
0.07531914893617021 0.45007614909706095 0.4453403783113666
0.07553191489361702 0.45181400514649406 0.44901647848809323
0.07574468085106383 0.451616754051193 0.44921372958339423
0.07595744680851063 0.45141950295589195 0.4494109806786952
0.07617021276595745 0.4512222518605909 0.4496082317739963
0.07638297872340426 0.45102500076528984 0.4498054828692973
0.07659574468085106 0.4509037616023448 0.44878704968019584
0.07680851063829787 0.45103633074023886 0.44608484832077894
0.07702127659574468 0.4528578407425501 0.44699560332193444
0.0772340425531915 0.4528578407425501 0.44769704030399166
0.0774468085106383 0.4531993692304692 0.4506097790080806
0.07765957446808511 0.45338518001788064 0.45233050146721954
0.07787234042553191 0.4528578407425501 0.45334793484620306
0.07808510638297872 0.45339198714246337 0.4543690267125659
0.07829787234042553 0.4544828195063391 0.45416398068906866
0.07851063829787235 0.455527350196086 0.4574120318793062
0.07872340425531915 0.45741308421160165 0.46115626530128134
0.07893617021276596 0.4540590170848836 0.46257220225051815
0.07914893617021276 0.4566075592186275 0.4646879421200031
0.07936170212765957 0.45350016410182736 0.4667037528293989
0.07957446808510638 0.45053418056803357 0.4680520825358545
0.0797872340425532 0.4477679245436457 0.4683090316017272
0.08 0.4474420819974726 0.4655313277475415
0.08021276595744681 0.4453975714221369 0.4639613232540861
0.08042553191489361 0.44358144081879947 0.4614151509692838
0.08063829787234042 0.441414749139169 0.45983780935219326
0.08085106382978724 0.441133365901319 0.45874225917169165
0.08106382978723405 0.44034723457955877 0.45481191988275516
0.08127659574468085 0.44211040547142155 0.45481191988275516
0.08148936170212766 0.44211040547142155 0.45585020219367006
0.08170212765957446 0.44338016956804227 0.4573197838941894
0.08191489361702127 0.4450415241817294 0.4572563567118005
0.08212765957446809 0.4453025919294915 0.45826517408858736
0.0823404255319149 0.44576835184377517 0.45919669391715473
0.0825531914893617 0.4485109516983024 0.45870016255468
0.08276595744680851 0.4515181792427122 0.45712862095269574
0.08297872340425531 0.44814612197205456 0.45601906318288193
0.08319148936170212 0.4487513686380737 0.4549110767947882
0.08340425531914894 0.4461149103541968 0.4557568439187363
0.08361702127659575 0.44326818522714534 0.4558793295456685
0.08382978723404255 0.44475454303184486 0.4566225084480182
0.08404255319148936 0.4430874450415241 0.4556319559991858
0.08425531914893616 0.4419290361087901 0.45423271541638816
0.08446808510638298 0.43875100855844984 0.4524295625398862
0.08468085106382979 0.439338451383529 0.45188080117244755
0.0848936170212766 0.44156874509919464 0.4497621730204802
0.0851063829787234 0.4412675788556607 0.4481068558463789
0.08531914893617021 0.44070174433752723 0.4475410213282453
0.08553191489361701 0.44021095832389406 0.447050235314612
0.08574468085106383 0.44321721084614835 0.44929126670813335
0.08595744680851064 0.4452596028297659 0.4495589933497379
0.08617021276595745 0.4468446276456471 0.4490712934063899
0.08638297872340425 0.4484296524615282 0.44858359346304183
0.08659574468085106 0.4500146772774094 0.4480958935196938
0.08680851063829788 0.45159970209329064 0.4476081935763457
0.08702127659574468 0.4531847269091718 0.44712049363299766
0.08723404255319149 0.45476975172505296 0.4466327936896496
0.0874468085106383 0.4563547765409341 0.44614509374630157
0.0876595744680851 0.45676599902296044 0.44736608615831147
0.08787234042553191 0.45653453682700124 0.4483710269722418
0.08808510638297873 0.4546922391318565 0.4439448038607282
0.08829787234042553 0.4512438820304931 0.4404964467593646
0.08851063829787234 0.45178911365421376 0.4396448846666067
0.08872340425531915 0.4524063491571193 0.4387277951756831
0.08893617021276595 0.4494999169742525 0.43600477449685376
0.08914893617021276 0.45188080117244755 0.43917928676111373
0.08936170212765958 0.45188080117244755 0.43917928676111373
0.08957446808510638 0.4550730855080515 0.43917928676111373
0.08978723404255319 0.4543855248998481 0.44549474224965746
0.09 0.4550533815851029 0.44553564034713683
0.0902127659574468 0.4557889594528579 0.44406448461162684
0.09042553191489362 0.4562324121475815 0.4450992075659819
0.09063829787234043 0.4584182530919022 0.4501995031027304
0.09085106382978723 0.4587200781631655 0.44849827080770077
0.09106382978723404 0.46037836957012457 0.44963093429899603
0.09127659574468085 0.46155180355766395 0.4543149533037083
0.09148936170212765 0.46042303495816717 0.45296967700979585
0.09170212765957447 0.45969711773326827 0.45105872871057856
0.09191489361702128 0.45969711773326827 0.4485234150625263
0.09212765957446808 0.45969711773326827 0.4463449332056731
0.09234042553191489 0.45969711773326827 0.4475489274714213
0.0925531914893617 0.46000670386814674 0.4467825795179903
0.0927659574468085 0.4581740733150331 0.4416937248066986
0.09297872340425532 0.45481191988275516 0.4443921890670199
0.09319148936170213 0.45481191988275516 0.4416107463841001
0.09340425531914893 0.4564344834833166 0.4383680049608331
0.09361702127659574 0.45392707189433096 0.4353633200623817
0.09382978723404255 0.45302252365482726 0.43722520762090866
0.09404255319148937 0.4538246260939964 0.4374226663786604
0.09425531914893617 0.44894612608299084 0.4388559778238455
0.09446808510638298 0.44699560332193444 0.44061326201686546
0.09468085106382979 0.4440382957289251 0.4434992119757265
0.09489361702127659 0.444975921221161 0.4450415241817294
0.0951063829787234 0.4468691888289085 0.4450415241817294
0.09531914893617022 0.4460321994281942 0.4450415241817294
0.09553191489361702 0.44733811283768976 0.4449273543431443
0.09574468085106383 0.448952904191731 0.44406448461162684
0.09595744680851064 0.4460185637518319 0.44444336329985296
0.09617021276595744 0.44550784520509634 0.44555224272846494
0.09638297872340426 0.4450415241817294 0.4479620296641647
0.09659574468085107 0.4458290239784289 0.44894968246213973
0.09680851063829787 0.44787139641888013 0.45265534779623595
0.09702127659574468 0.44699560332193444 0.45117279288661055
0.09723404255319149 0.446595467206391 0.4536348122548809
0.09744680851063829 0.4455310839126005 0.4531026206079857
0.09765957446808511 0.44699560332193444 0.4538348803126526
0.09787234042553192 0.44699560332193444 0.4543517316891532
0.09808510638297872 0.4475827914872355 0.45481191988275516
0.09829787234042553 0.4472956639260395 0.4554888988487529
0.09851063829787234 0.4486245969176201 0.459046946644229
0.09872340425531914 0.45085386299925645 0.45779293719615133
0.09893617021276596 0.44515672127677713 0.46435192139368564
0.09914893617021277 0.4460185637518319 0.4633891456414525
0.09936170212765957 0.4460185637518319 0.4655593551538837
0.09957446808510638 0.44566900613275195 0.46520979753480374
0.09978723404255319 0.44552995525063616 0.46507074665268794
0.1 0.4447647048799412 0.4655593551538837
0.10021276595744681 0.44406448461162684 0.4632490997543124
0.10042553191489362 0.44406448461162684 0.4640610311162053
0.10063829787234042 0.4432816881298711 0.4653651120655367
0.10085106382978723 0.44216383004152965 0.46278851015390016
0.10106382978723404 0.43917928676111373 0.4636052760136786
0.10127659574468086 0.43959280187461286 0.46339851845692903
0.10148936170212766 0.44054122033934445 0.4629243092245632
0.10170212765957447 0.438745216635874 0.4623030656379594
0.10191489361702127 0.44392044045344675 0.4618177959558578
0.10212765957446808 0.44442078981230415 0.46262823644357587
0.10234042553191489 0.4396767529532301 0.46262823644357587
0.1025531914893617 0.44092422752158794 0.4687355291052353
0.10276595744680851 0.4421082466970975 0.46458231558378116
0.10297872340425532 0.44123576775295353 0.46458231558378116
0.10319148936170212 0.4403632888088096 0.46458231558378116
0.10340425531914893 0.4407560508003236 0.46338286664556677
0.10361702127659575 0.44177044931659315 0.46241587530515116
0.10382978723404256 0.44299538853177095 0.46200756223342526
0.10404255319148936 0.44406448461162684 0.4615479586511934
0.10425531914893617 0.44406448461162684 0.4607364981610362
0.10446808510638297 0.44325636333575086 0.4663310062345019
0.10468085106382978 0.4469171544932375 0.4705772018554596
0.1048936170212766 0.4446228538294151 0.4687417613244017
0.1051063829787234 0.4442192340925016 0.463552172615668
0.10531914893617021 0.445521964115254 0.46019371736984616
0.10553191489361702 0.44638399404044354 0.45969711773326827
0.10574468085106382 0.4467883973510935 0.45948991176242726
0.10595744680851064 0.4463096270292564 0.45886560980187774
0.10617021276595745 0.4499061799541362 0.46066388626431776
0.10638297872340426 0.45088521134316556 0.4597156679924475
0.10659574468085106 0.4501710980342452 0.46042978130136786
0.10680851063829787 0.4485565894907279 0.4593040247618563
0.10702127659574467 0.45445970287451265 0.4587200781631655
0.1072340425531915 0.4526841275184333 0.4587200781631655
0.1074468085106383 0.45188080117244755 0.4594911478834935
0.1076595744680851 0.452713984061895 0.45969711773326827
0.10787234042553191 0.45096370353738296 0.45969711773326827
0.10808510638297872 0.45404177611000385 0.4545015761867283
0.10829787234042552 0.4557889594528579 0.45259979521283256
0.10851063829787234 0.45503180531708515 0.45291903454332333
0.10872340425531915 0.4573670168901911 0.4519450857908357
0.10893617021276596 0.4581934534768661 0.4501138245728956
0.10914893617021276 0.45752014134615554 0.44646435824564684
0.10936170212765957 0.45953483394416866 0.4478103591029376
0.10957446808510639 0.4607868105321361 0.4451541774104947
0.1097872340425532 0.4636092109848698 0.44660321350541693
0.11 0.467513434294089 0.4447051759645493
0.1102127659574468 0.46512166431843266 0.44406448461162684
0.11042553191489361 0.46262823644357587 0.44529177294506406
0.11063829787234042 0.46412875169263046 0.44226727562919566
0.11085106382978724 0.46725606555111865 0.4455896158468814
0.11106382978723404 0.4655044657937183 0.44411937397179224
0.11127659574468085 0.4652625137417219 0.44490548455014123
0.11148936170212766 0.4688589531089684 0.4436080643676326
0.11170212765957446 0.46519791429241547 0.44131408633205316
0.11191489361702127 0.46315607056876346 0.4425596109163367
0.11212765957446809 0.46087069140883036 0.443596181332841
0.1123404255319149 0.4574922069545075 0.441133365901319
0.1125531914893617 0.45856295628242477 0.4407553120843712
0.1127659574468085 0.4557309348621059 0.4401563263312165
0.11297872340425531 0.45545575735283483 0.43822481392097773
0.11319148936170213 0.4557889594528579 0.435668675077832
0.11340425531914894 0.45305153538100096 0.4343586537900844
0.11361702127659574 0.45564182492124083 0.43316991480888123
0.11382978723404255 0.45362069937558647 0.431362970200293
0.11404255319148936 0.4535677533629875 0.431362970200293
0.11425531914893616 0.45481191988275516 0.43186292661075926
0.11446808510638298 0.4522330869982352 0.4323400097703958
0.11468085106382979 0.4540412105053259 0.4354774586733769
0.1148936170212766 0.4534349189494285 0.43693666851746943
0.1151063829787234 0.4528578407425501 0.4379469671819903
0.11531914893617021 0.4520021252868438 0.44076939355813033
0.11553191489361703 0.45286447947215314 0.44213032166023064
0.11574468085106383 0.453971315326841 0.4453143942101061
0.11595744680851064 0.4553569082851381 0.44754059172431737
0.11617021276595745 0.45676599902296044 0.4497558687437987
0.11638297872340425 0.4545808757865066 0.4509037616023448
0.11659574468085106 0.4514813522076393 0.45434498293962167
0.11680851063829788 0.4509037616023448 0.4557889594528579
0.11702127659574468 0.45355651672282166 0.4557889594528579
0.11723404255319149 0.44983751189603 0.456944419295385
0.1174468085106383 0.4474158739556101 0.459931798721468
0.1176595744680851 0.44471380692567775 0.45774915079111544
0.11787234042553191 0.44406448461162684 0.46016712975514595
0.11808510638297873 0.4416172808089224 0.4594505554020185
0.11829787234042553 0.44090863188779644 0.4587200781631655
0.11851063829787234 0.4395624938633367 0.4610763862201389
0.11872340425531915 0.4400676289222153 0.46165119687347334
0.11893617021276595 0.4392812761903412 0.4637072654429061
0.11914893617021277 0.4409377910999209 0.46536378035248555
0.11936170212765958 0.4401563263312165 0.46488962476302964
0.11957446808510638 0.44092721309871413 0.4655593551538837
0.11978723404255319 0.44211040547142155 0.4650326393352214
0.12 0.4407755592257313 0.46391489246093603
0.1202127659574468 0.44177688941233606 0.4636052760136786
0.12042553191489362 0.44211040547142155 0.46169745383921496
0.12063829787234043 0.43954069444419747 0.46336433755828943
0.12085106382978723 0.44203544152729884 0.4636052760136786
0.12106382978723404 0.44211040547142155 0.46371408568839684
0.12127659574468085 0.4418597478459569 0.4643316579583165
0.12148936170212765 0.44074668549988133 0.464378636816554
0.12170212765957447 0.443297555584545 0.46765350798943606
0.12191489361702128 0.4440219487856506 0.46680536014605234
0.12212765957446808 0.4430874450415241 0.4631302869419564
0.12234042553191489 0.4430874450415241 0.46262823644357587
0.1225531914893617 0.4429668818934704 0.4605535941553171
0.12276595744680852 0.44185161479346613 0.45969711773326827
0.12297872340425532 0.4420771514108653 0.458753332223722
0.12319148936170213 0.44158479707109505 0.4564904781851236
0.12340425531914893 0.4368831415530999 0.45659496598905613
0.12361702127659574 0.4397090595875824 0.45721326576659443
0.12382978723404255 0.43948867981631345 0.45676599902296044
0.12404255319148937 0.43998969068431326 0.45757640294615975
0.12425531914893617 0.44396061439097223 0.4567919665781241
0.12446808510638298 0.4455076920414626 0.45676599902296044
0.12468085106382978 0.45024440706903857 0.45676599902296044
0.12489361702127659 0.45101959299267064 0.45596163121725125
0.1251063829787234 0.4480855490656822 0.4537219741390075
0.12531914893617022 0.4496378485267957 0.4521696746778941
0.125531914893617 0.44826523137736685 0.45188080117244755
0.12574468085106383 0.44602327648389256 0.44895675156023074
0.12595744680851065 0.4468563153881284 0.4507644736685388
0.12617021276595744 0.4457430507409234 0.45047774805405927
0.12638297872340426 0.4471268860361584 0.4527149459142191
0.12659574468085105 0.4510451163999829 0.45327568312878236
0.12680851063829787 0.45054984223049127 0.45485427915548443
0.1270212765957447 0.45150936569427397 0.4565802812838737
0.12723404255319148 0.45560544068341285 0.45583483914521916
0.1274468085106383 0.4550925750866653 0.4529513924771868
0.1276595744680851 0.45708788078446916 0.4538348803126526
0.12787234042553192 0.4551248901123843 0.45320893985339444
0.1280851063829787 0.45612167153664585 0.45121537700487135
0.12829787234042553 0.4571184529609076 0.449221814156348
0.12851063829787235 0.4575988363797795 0.4473958340389032
0.12872340425531914 0.4572126469316803 0.4458510762465063
0.12893617021276596 0.456826457483581 0.4443063184541092
0.12914893617021275 0.45676599902296044 0.44406448461162684
0.12936170212765957 0.46333139346661434 0.44114653152555844
0.1295744680851064 0.45997842059185706 0.4385617735992088
0.12978723404255318 0.45702006104504456 0.4373522386319507
0.13 0.46229805146298697 0.4409132425809264
0.1302127659574468 0.45969711773326827 0.44015780196128085
0.13042553191489362 0.45977789499789945 0.4411737545336346
0.13063829787234044 0.4616502495123758 0.4421108791519703
0.13085106382978723 0.45976420508895144 0.4430539013636825
0.13106382978723405 0.463026280745445 0.4439197357945684
0.13127659574468084 0.46143789116764294 0.4455094078423172
0.13148936170212766 0.4618809669391071 0.44662196856970005
0.13170212765957448 0.4631742659755428 0.4486336919178349
0.13191489361702127 0.46246396128373946 0.4487854073023032
0.1321276595744681 0.46068485332474596 0.4494221582151282
0.13234042553191488 0.4594601619691972 0.4501928943101317
0.1325531914893617 0.4588408794390623 0.4483350467197276
0.1327659574468085 0.4613176200884063 0.4497043375088643
0.13297872340425532 0.45774382909971506 0.44308882842816516
0.13319148936170214 0.4584092459758914 0.438646320854851
0.13340425531914893 0.4615480136786744 0.4352711284807034
0.13361702127659575 0.459124950423127 0.4352711284807034
0.13382978723404254 0.4601056448012727 0.4356796555487079
0.13404255319148936 0.4616599306281419 0.43657675915906313
0.13425531914893618 0.4613609797745765 0.4375992569940923
0.13446808510638297 0.4581664049592952 0.43862561355724344
0.1346808510638298 0.457734648713464 0.43967200148596464
0.13489361702127659 0.4556209391926567 0.4401563263312165
0.1351063829787234 0.45481191988275516 0.44462066621427027
0.13531914893617022 0.4559539267388396 0.44642459989389227
0.13553191489361702 0.45505727025919296 0.44858165689748314
0.13574468085106384 0.45265527046879095 0.451779516035568
0.13595744680851063 0.4520382671455409 0.4514710143739429
0.13617021276595745 0.45142126382229075 0.45116251271231783
0.13638297872340424 0.4505600834687156 0.4505600834687156
0.13659574468085106 0.4493993131047544 0.4482752364982177
0.13680851063829788 0.45150430415287945 0.4456182020514755
0.13702127659574467 0.45351358550532367 0.44374318980429783
0.1372340425531915 0.45195795295890984 0.44353738893334427
0.13744680851063829 0.4520813182477402 0.4428869279662314
0.1376595744680851 0.4521305452766924 0.44429229186899477
0.13787234042553193 0.45188080117244755 0.44761746312781775
0.13808510638297872 0.4518113975061085 0.4450762260148989
0.13829787234042554 0.4479726428920372 0.44683721883920724
0.13851063829787233 0.4470687976180997 0.4460185637518319
0.13872340425531915 0.44547522878740914 0.4460185637518319
0.13893617021276597 0.4449104259476744 0.4476807704580683
0.13914893617021276 0.44199925900281783 0.4482612739258701
0.13936170212765958 0.44252084906407496 0.45144135079892717
0.13957446808510637 0.4462018729635925 0.4513006267815158
0.1397872340425532 0.44699560332193444 0.45182473458640227
0.13999999999999999 0.4498440064662427 0.4528578407425501
0.1402127659574468 0.4485023535748707 0.45352883407345357
0.14042553191489363 0.44772397487536897 0.4561531452295751
0.14063829787234042 0.44894968246213973 0.4577748014057672
0.14085106382978724 0.44959116715086833 0.45743710878570826
0.14106382978723403 0.4480625846834362 0.4604942737205725
0.14127659574468085 0.4463339507878261 0.45931997377303396
0.14148936170212767 0.44522517531239075 0.45853642703250413
0.14170212765957446 0.4431848384517147 0.4587200781631655
0.14191489361702128 0.4430874450415241 0.46262823644357587
0.14212765957446807 0.4440253595919899 0.46333167235642525
0.1423404255319149 0.44662409531302427 0.4666738791806143
0.1425531914893617 0.4460185637518319 0.46899193370298486
0.1427659574468085 0.44665631425957814 0.4701052639420403
0.14297872340425533 0.4462154494616923 0.4712247068646389
0.14319148936170212 0.4469415916124312 0.4658834254109032
0.14340425531914894 0.44699560332193444 0.45975531995089186
0.14361702127659573 0.44894968246213973 0.4576206309215601
0.14382978723404255 0.44917948649005274 0.45768521513461263
0.14404255319148937 0.4522862016413598 0.45890454759653265
0.14425531914893616 0.4537497231422984 0.45481191988275516
0.14446808510638298 0.44794256500697044 0.4552854007252732
0.14468085106382977 0.4502144113895753 0.4564213239165757
0.1448936170212766 0.4526268803710939 0.45848911779170953
0.1451063829787234 0.4547351221316858 0.4607125561789055
0.1453191489361702 0.4540770487987008 0.461041592845398
0.14553191489361703 0.4534189754657157 0.46137062951189056
0.14574468085106382 0.4530216800843804 0.46148735753164305
0.14595744680851064 0.45413391288773053 0.4603751247282929
0.14617021276595746 0.4558548251518259 0.45900184755388773
0.14638297872340425 0.4574718297857324 0.45828545620772415
0.14659574468085107 0.45698214574073254 0.45926482429772403
0.14680851063829786 0.45817288389381533 0.457743038593063
0.14702127659574468 0.4606076974986927 0.45767657878838486
0.14723404255319147 0.4588147332324504 0.45588361452214277
0.1474468085106383 0.4563836445408227 0.4548543860039207
0.14765957446808511 0.45391699005716757 0.4538677242104586
0.1478723404255319 0.44966517022464525 0.45133305425984815
0.14808510638297873 0.44608815983393113 0.4501883809452927
0.14829787234042552 0.44640902386188597 0.4478754725120072
0.14851063829787234 0.44629581546435704 0.45119433046739915
0.14872340425531916 0.446763063798932 0.44987984055414953
0.14893617021276595 0.44699560332193444 0.44819310721233513
0.14914893617021277 0.45010078933058384 0.4479726428920372
0.14936170212765956 0.45011092857329005 0.44955830895014676
0.14957446808510638 0.448260242626127 0.44576052351695394
0.1497872340425532 0.44703943873447977 0.44037550339394316
0.15 0.45170272416504026 0.44122240440502264
0.15021276595744681 0.45053139015700233 0.4415057373466615
0.1504255319148936 0.4538867844913467 0.43897349801135443
0.15063829787234043 0.4572101837097342 0.4382022471910112
0.15085106382978725 0.4560845000084516 0.4385658415126388
0.15106382978723404 0.4606637604083707 0.43987420162690144
0.15127659574468086 0.4584643980305211 0.4401563263312165
0.15148936170212765 0.4583998395722824 0.4408131273104359
0.15170212765957447 0.45992436894647387 0.4453483836428981
0.15191489361702126 0.4608860251067845 0.4480785767937441
0.15212765957446808 0.46122389591678037 0.448247512198742
0.1523404255319149 0.4615617667267762 0.4484164476037399
0.1525531914893617 0.461899637536772 0.4485853830087378
0.15276595744680851 0.46223750834676786 0.4487543184137357
0.1529787234042553 0.46257537915676367 0.4489232538187336
0.15319148936170213 0.46262823644357587 0.447427927653642
0.15340425531914895 0.46262823644357587 0.4456239552525466
0.15361702127659574 0.4621076719957824 0.4438042023877301
0.15382978723404256 0.45908068654256534 0.4423508110576881
0.15404255319148935 0.4613247102736478 0.44341151141197577
0.15425531914893617 0.46033948370402034 0.44101281429221934
0.154468085106383 0.4612620531194506 0.44406448461162684
0.15468085106382978 0.45809235541289245 0.4451124350711152
0.1548936170212766 0.46036025215583515 0.4474056468201019
0.1551063829787234 0.45894910913234477 0.4452132974086138
0.15531914893617021 0.45563320653168715 0.44128911882248967
0.155531914893617 0.45676599902296044 0.4395492523029821
0.15574468085106383 0.45613201131870484 0.43851924104313894
0.15595744680851065 0.4555820641176428 0.4387392043411779
0.15617021276595744 0.45775117166090845 0.43749971431645474
0.15638297872340426 0.4599202792041744 0.43626022429173134
0.15659574468085105 0.46050412696477955 0.4358446634350503
0.15680851063829787 0.45543346185029043 0.43802449838972746
0.1570212765957447 0.4531342934361362 0.4379257944974251
0.15723404255319148 0.4502247526825854 0.4401563263312165
0.1574468085106383 0.4477724313966319 0.439755903340406
0.1576595744680851 0.44612124251418345 0.4399509688065133
0.15787234042553192 0.4429369030693596 0.4444403451257159
0.15808510638297874 0.43942170789231644 0.44546943868398
0.15829787234042553 0.43777083518958926 0.44765544645787386
0.15851063829787235 0.4361912137659612 0.452301404837223
0.15872340425531914 0.43606839301535466 0.45702393845125727
0.15893617021276596 0.4381018886503322 0.4595967591925893
0.15914893617021275 0.43722520762090866 0.4610193060521123
0.15936170212765957 0.43722520762090866 0.46536738052281174
0.1595744680851064 0.43809454315008484 0.46690054366158423
0.15978723404255318 0.44056362081372563 0.4703621597320559
0.16 0.44006710414212996 0.4685796960532779
0.1602127659574468 0.4404910508296554 0.46684398529721083
0.16042553191489362 0.441133365901319 0.4694589472799758
0.16063829787234044 0.4438638116265154 0.46771410727920043
0.16085106382978723 0.4439347819244525 0.46666609741116055
0.16106382978723405 0.4426956004119498 0.4679052789236633
0.16127659574468084 0.4431115270657541 0.4655593551538837
0.16148936170212766 0.43958482430601553 0.46596489269878544
0.16170212765957448 0.44108383088468806 0.46607264244725044
0.16191489361702127 0.44094132423526705 0.4655593551538837
0.1621276595744681 0.4401563263312165 0.4648484680824318
0.16234042553191488 0.43847853231712125 0.4654212125908287
0.1625531914893617 0.44301268280476824 0.46652144227663506
0.1627659574468085 0.44325083889646844 0.46458231558378116
0.16297872340425532 0.43747070619907713 0.4643368170056127
0.16319148936170214 0.43894664678645073 0.46248867662051935
0.16340425531914893 0.44055412445361264 0.4614697535481631
0.16361702127659575 0.4426453952516122 0.46376225845629576
0.16382978723404254 0.44454437686351095 0.46357076588100987
0.16404255319148936 0.44468622156943943 0.4622729338312859
0.16425531914893618 0.4450415241817294 0.45964746970623954
0.16446808510638297 0.44678123378815404 0.4578502233599532
0.1646808510638298 0.4499611232649421 0.4557373576038082
0.16489361702127658 0.45188080117244755 0.4528578407425501
0.1651063829787234 0.45269270240353016 0.4525872069988559
0.16531914893617022 0.4532045764850503 0.4494697860758902
0.16553191489361702 0.4524979110730372 0.44389303112424205
0.16574468085106384 0.4538348803126526 0.4407861788155607
0.16595744680851063 0.45541879888560766 0.4393643670447389
0.16617021276595745 0.4539412496904187 0.43733157699867475
0.16638297872340424 0.4548922506082039 0.43624816805080613
0.16659574468085106 0.4557889594528579 0.43603676120611196
0.16680851063829788 0.4564730412102959 0.4359552102381415
0.16702127659574467 0.457743038593063 0.43722520762090866
0.1672340425531915 0.4583243055721308 0.43896900855811216
0.16744680851063828 0.4587200781631655 0.44281225385192335
0.1676595744680851 0.4612608120657002 0.44469966808726047
0.16787234042553192 0.46262823644357587 0.4456374104930623
0.16808510638297872 0.4620194666689933 0.4466273335264145
0.16829787234042554 0.46165119687347334 0.44957790879659254
0.16851063829787233 0.4602968818759263 0.45056518285295805
0.16872340425531915 0.45828554945595257 0.45006234974796466
0.16893617021276597 0.45749449011061966 0.4506723674795723
0.16914893617021276 0.4571541399719235 0.4516934178956608
0.16936170212765958 0.45681378983322735 0.45271446831174944
0.16957446808510637 0.45676599902296044 0.45320953373716355
0.1697872340425532 0.45676599902296044 0.4536186772778527
0.17 0.45676599902296044 0.4540278208185418
0.1702127659574468 0.45676599902296044 0.45443696435923087
0.17042553191489362 0.45676599902296044 0.45484610789991997
0.17063829787234042 0.45676599902296044 0.455255251440609
0.17085106382978724 0.45676599902296044 0.4556643949812981
0.17106382978723403 0.45676599902296044 0.4560735385219872
0.17127659574468085 0.45676599902296044 0.4564826820626763
0.17148936170212767 0.45676599902296044 0.45689182560336544
0.17170212765957446 0.45676599902296044 0.4573009691440545
0.17191489361702128 0.45676599902296044 0.4577101126847436
0.17212765957446807 0.45612644818220005 0.45902214027458393
0.1723404255319149 0.4557889594528579 0.460671848143316
0.1725531914893617 0.4543460161473928 0.46068923466983
0.1727659574468085 0.4539694355436708 0.458214991331774
0.17297872340425532 0.45478419897222805 0.4556214993727529
0.17319148936170212 0.44978255334509915 0.4549560885698983
0.17340425531914894 0.4500359538146702 0.4553544509118457
0.17361702127659576 0.4531585286583969 0.45248217700414106
0.17382978723404255 0.45140571380170774 0.4485014599200231
0.17404255319148937 0.44967748572711946 0.44638246538432175
0.17425531914893616 0.4512077281976218 0.4460185637518319
0.17446808510638298 0.45188080117244755 0.44424016150141155
0.17468085106382977 0.45178525913800627 0.44396894257718555
0.1748936170212766 0.44918501704675917 0.4422958317177923
0.1751063829787234 0.44569163745016366 0.4417797398348511
0.1753191489361702 0.4442216305249077 0.4395892335895246
0.17553191489361702 0.44401059947480565 0.43877159468129423
0.17574468085106382 0.4468091771563202 0.4378144252791055
0.17595744680851064 0.44724519477955677 0.4382022471910112
0.17617021276595746 0.447864041435779 0.4390706853048556
0.17638297872340425 0.4488532544303045 0.44005989829938125
0.17659574468085107 0.45274955560433927 0.4411062946167663
0.17680851063829786 0.4491155529240419 0.44081980817882543
0.17702127659574468 0.44992672203224227 0.4443684910851983
0.1772340425531915 0.4494812577258961 0.4459324527944217
0.1774468085106383 0.45188095614787505 0.44816811279622865
0.1776595744680851 0.45237941237291274 0.4496774164320097
0.1778723404255319 0.4510141700092473 0.4525266155218426
0.17808510638297873 0.45185272720736713 0.45095990953250564
0.17829787234042552 0.4509037616023448 0.4528578407425501
0.17851063829787234 0.4509037616023448 0.45377370217897706
0.17872340425531916 0.45002184659091526 0.4544660869357135
0.17893617021276595 0.4495282555676568 0.45459356005910145
0.17914893617021277 0.4484939659545396 0.4557889594528579
0.17936170212765956 0.4479726428920372 0.4565792473318255
0.17957446808510638 0.4452550722264383 0.45495428524589443
0.1797872340425532 0.44499807533177216 0.45678772344793905
0.18 0.44324576444759195 0.4574263997809273
0.1802127659574468 0.44406448461162684 0.45608472019065316
0.1804255319148936 0.4445014656159296 0.45807694203586896
0.18063829787234043 0.4450415241817294 0.45969711773326827
0.18085106382978725 0.4437503605139623 0.4609882814010352
0.18106382978723404 0.4445785395067069 0.4638878385712475
0.18127659574468086 0.4450415241817294 0.46546329095177896
0.18148936170212765 0.4497981167088884 0.4676849080585607
0.18170212765957447 0.4468161515424739 0.47142159257449934
0.18191489361702126 0.4460185637518319 0.47142159257449934
0.18212765957446808 0.4451300875292322 0.4709773544631994
0.1823404255319149 0.4446502790512713 0.4716161418836856
0.1825531914893617 0.4450415241817294 0.47274059423754256
0.1827659574468085 0.4450415241817294 0.4732665391019564
0.1829787234042553 0.4398465418841177 0.475107332480575
0.18319148936170213 0.4440798780184509 0.46659796835128253
0.18340425531914895 0.44491208682191935 0.4702503969646816
0.18361702127659574 0.44324883383316477 0.467513434294089
0.18382978723404256 0.4446724875446576 0.46766543502734664
0.18404255319148935 0.44769476448730344 0.46835153466182466
0.18425531914893617 0.4460185637518319 0.4670437706245836
0.184468085106383 0.4460185637518319 0.4655593551538837
0.18468085106382978 0.4480210038530098 0.4655593551538837
0.1848936170212766 0.44992672203224227 0.4649206487847381
0.1851063829787234 0.44992672203224227 0.46529583955178583
0.1853191489361702 0.44755283902160947 0.46160288346949585
0.185531914893617 0.44781004742092156 0.4598597132043839
0.18574468085106383 0.44876508741366194 0.45652733964676906
0.18595744680851065 0.44894968246213973 0.45519806779378863
0.18617021276595744 0.44894968246213973 0.45446445298768084
0.18638297872340426 0.4488258937188817 0.4538348803126526
0.18659574468085105 0.4479936965853487 0.4538769876992756
0.18680851063829787 0.4489312873974194 0.45575216932341717
0.1870212765957447 0.4498844093526754 0.4539195056717864
0.18723404255319148 0.4516903978863454 0.4503075286044465
0.1874468085106383 0.45188080117244755 0.4485586478868103
0.1876595744680851 0.4539200192835224 0.4463412684031773
0.18787234042553191 0.45634627903975516 0.44406448461162684
0.18808510638297873 0.45416024538716393 0.4442271671488825
0.18829787234042553 0.45599647021337686 0.44421148113965353
0.18851063829787235 0.45753763039721645 0.441133365901319
0.18872340425531914 0.45969711773326827 0.4417629542220191
0.18893617021276596 0.459357151098093 0.4427474784063489
0.18914893617021278 0.4595557488581203 0.4426675192680581
0.18936170212765957 0.4613310922215818 0.4437443799597353
0.1895744680851064 0.4598182303706545 0.4419892928340353
0.18978723404255318 0.4607767353792801 0.441133365901319
0.19 0.4619524561226997 0.44098273627670587
0.1902127659574468 0.4628727295579746 0.4403028356223573
0.19042553191489361 0.45922207364913087 0.44103296680412596
0.19063829787234043 0.4596775664642313 0.44017587760025345
0.19085106382978723 0.4584992167574508 0.441133365901319
0.19106382978723405 0.45701337713845014 0.4421228783632779
0.19127659574468084 0.45893020044373256 0.4438543623310598
0.19148936170212766 0.46118824328744357 0.4418277962803637
0.19170212765957448 0.45969711773326827 0.44371514113462296
0.19191489361702127 0.46065511262097664 0.4426084475976699
0.1921276595744681 0.4610470179560417 0.4415062265539899
0.19234042553191488 0.4606741573033708 0.4403968747197054
0.1925531914893617 0.45980411952823713 0.43580613745554786
0.19276595744680852 0.46641046122989227 0.4375089096462448
0.19297872340425531 0.46224466929192487 0.4382022471910112
0.19319148936170213 0.4615793666995499 0.4382022471910112
0.19340425531914893 0.4615823085380353 0.4412022542367571
0.19361702127659575 0.46024998993750044 0.4418983217884864
0.19382978723404254 0.4583683109410076 0.4414851331234769
0.19404255319148936 0.4572481607106811 0.4431001612361855
0.19425531914893618 0.4561269090914236 0.4421472148170162
0.19446808510638297 0.45430603076574966 0.4448406876190894
0.1946808510638298 0.4555454428341696 0.4434527199695566
0.19489361702127658 0.4547715779723578 0.44506841878866094
0.1951063829787234 0.4520377970518748 0.44668161156308
0.19531914893617022 0.4525797193312681 0.4447634027704474
0.19553191489361701 0.45188080117244755 0.4455455544591659
0.19574468085106383 0.45188080117244755 0.4479726428920372
0.19595744680851063 0.4544791892353805 0.4486222399077704
0.19617021276595745 0.4510377426335222 0.45132529087180756
0.19638297872340427 0.4517872129074773 0.4490900648595951
0.19659574468085106 0.45291064762073 0.45095656848052473
0.19680851063829788 0.4536412813835864 0.45168720224338127
0.19702127659574467 0.45251887964098386 0.452598567110176
0.1972340425531915 0.4513981326066828 0.4553062908870932
0.19744680851063828 0.45152800807851873 0.45668465931127666
0.1976595744680851 0.45111363851069625 0.45544155060780944
0.19787234042553192 0.4527266042486732 0.453900498559591
0.19808510638297872 0.44894968246213973 0.4529364888626118
0.19829787234042554 0.44915705894511004 0.4538348803126526
0.19851063829787233 0.44909939038940105 0.4530075486698114
0.19872340425531915 0.4477305499969515 0.45016881492732785
0.19893617021276597 0.44894968246213973 0.4480628747139
0.19914893617021276 0.44894968246213973 0.4490199922832234
0.19936170212765958 0.447034739100055 0.4509037616023448
0.19957446808510637 0.44524680857373694 0.45244727195853496
0.1997872340425532 0.4468584338795267 0.4528578407425501
0.2 0.4412788313926418 0.454957385374078
0.2002127659574468 0.44270864913204766 0.45676599902296044
0.20042553191489362 0.44076372183316126 0.45676599902296044
0.20063829787234042 0.4394058433025389 0.4571058338350982
0.20085106382978724 0.4404736117986138 0.45947719969903317
0.20106382978723403 0.4385267793049897 0.4590446102771441
0.20127659574468085 0.43917928676111373 0.4609073424186571
0.20148936170212767 0.43917928676111373 0.4621725526180561
0.20170212765957446 0.4406720018391761 0.46115362518078595
0.20191489361702128 0.44211040547142155 0.4612376812263398
0.20212765957446807 0.44336134964561646 0.46290214104766825
0.2023404255319149 0.4461724566016907 0.4621999613536359
0.2025531914893617 0.4462314340811378 0.46165119687347334
0.2027659574468085 0.4460185637518319 0.45865618044074746
0.20297872340425532 0.4460185637518319 0.45905053097523785
0.20319148936170212 0.444256785659868 0.46204615518922015
0.20340425531914894 0.4446949512917979 0.46400715257624703
0.20361702127659576 0.4468582584341998 0.46485700535925045
0.20382978723404255 0.44602394482475594 0.4665363947239862
0.20404255319148937 0.4469850564682373 0.4665363947239862
0.20425531914893616 0.44699560332193444 0.4682996842539478
0.20446808510638298 0.4484271578885254 0.46920625114748693
0.20468085106382977 0.45024617885382157 0.4673066861148244
0.2048936170212766 0.45202336699440804 0.4644397497618207
0.2051063829787234 0.4532379791734214 0.46335185039309773
0.2053191489361702 0.4554039342785797 0.4610736591120561
0.20553191489361702 0.4538348803126526 0.4587200781631655
0.20574468085106382 0.4548139932244098 0.459372820104337
0.20595744680851064 0.4559298642505171 0.4590018877584843
0.20617021276595746 0.4543084562590346 0.4562625353992399
0.20638297872340425 0.454999881563118 0.45520645882762517
0.20659574468085107 0.4538457609337016 0.455459652722474
0.20680851063829786 0.45216752553196027 0.4523373833999086
0.20702127659574468 0.4533857805744792 0.4486462924992974
0.2072340425531915 0.4554314956363213 0.44557771990653433
0.2074468085106383 0.45469911490237747 0.4450415241817294
0.2076595744680851 0.4546107522724443 0.44581739614152105
0.2078723404255319 0.4567419707232224 0.4479966711917752
0.20808510638297872 0.45609543862063506 0.4486432032943626
0.20829787234042554 0.4576688772611383 0.4484797030100697
0.20851063829787234 0.45841166924023347 0.44754416006102554
0.20872340425531916 0.45761470744182187 0.447844311740796
0.20893617021276595 0.4591749691870056 0.4480399004144596
0.20914893617021277 0.4602769233021564 0.44699560332193444
0.20936170212765956 0.4606741573033708 0.44627507230482993
0.20957446808510638 0.462388103704847 0.4451615905510938
0.2097872340425532 0.4625896952675921 0.44404521402363495
0.21 0.46083404422400726 0.4432473319621606
0.2102127659574468 0.4637012686823103 0.44435735201288923
0.2104255319148936 0.46555198516030294 0.4442019559806183
0.21063829787234042 0.46109112425359 0.44364751766140753
0.21085106382978724 0.4606741573033708 0.44406448461162684
0.21106382978723404 0.46151876616726184 0.4415306580199535
0.21127659574468086 0.4606827927427706 0.43821088263041097
0.21148936170212765 0.46160203340014616 0.43913012328778656
0.21170212765957447 0.4587817147560573 0.43990977995964947
0.2119148936170213 0.4596088479964931 0.43624816805080613
0.21212765957446808 0.4582765562304749 0.436913450949842
0.2123404255319149 0.4562853245269043 0.43845827501702955
0.2125531914893617 0.45481191988275516 0.43626267554641585
0.2127659574468085 0.45467364731081367 0.4383405197629527
0.2129787234042553 0.4538348803126526 0.43973009907694804
0.21319148936170212 0.4538348803126526 0.44154147130464144
0.21340425531914894 0.4549264928450755 0.44320201800384446
0.21361702127659574 0.45451939247395184 0.44406448461162684
0.21382978723404256 0.45458112493558905 0.4448107292345633
0.21404255319148935 0.452155741619386 0.44592691693618575
0.21425531914893617 0.4547654456867066 0.4488102598739942
0.214468085106383 0.45364767244265886 0.44639297949181955
0.21468085106382978 0.45220098705238154 0.44764421604695287
0.2148936170212766 0.4518419920153687 0.44934117935449414
0.2151063829787234 0.4522509081184691 0.4476322728038801
0.2153191489361702 0.45124259759360263 0.45142355997017725
0.21553191489361703 0.45231824505392487 0.4477395026248554
0.21574468085106382 0.44866472737612717 0.4450415241817294
0.21595744680851064 0.4488722639592455 0.4477403873833546
0.21617021276595744 0.44509606403811036 0.4459094840390699
0.21638297872340426 0.44523881274772503 0.44581892437086723
0.21659574468085105 0.4424472696470492 0.4501629273375285
0.21680851063829787 0.44213030477033066 0.44647723458851957
0.2170212765957447 0.441133365901319 0.44847926526227955
0.21723404255319148 0.4416023849268539 0.4503567395387445
0.2174468085106383 0.44264005861524036 0.45241045431626636
0.2176595744680851 0.4417415952361796 0.4535307656452223
0.2178723404255319 0.441133365901319 0.4538348803126526
0.21808510638297873 0.44017549153388985 0.4538348803126526
0.21829787234042553 0.4384463228523584 0.45359080465130547
0.21851063829787234 0.43938633928436704 0.4508541517766483
0.21872340425531914 0.4376221986790017 0.44757565183394404
0.21893617021276596 0.4382022471910112 0.44594436897825646
0.21914893617021278 0.4382022471910112 0.4450415241817294
0.21936170212765957 0.4401627246143152 0.4470020016050334
0.2195744680851064 0.4416935055905077 0.4479726428920372
0.21978723404255318 0.4426000953820247 0.44846233280264036
0.22 0.4436338252351202 0.4511352032365238
0.2202127659574468 0.44406448461162684 0.4535240200490584
0.2204255319148936 0.44406448461162684 0.4570315955989078
0.22063829787234043 0.44406448461162684 0.457743038593063
0.22085106382978723 0.4430874450415241 0.45901838115823584
0.22106382978723405 0.4430874450415241 0.4625947230873329
0.22127659574468084 0.44345520537487887 0.46482383448717435
0.22148936170212766 0.44449845029664775 0.4631713103286576
0.22170212765957448 0.44600754904312073 0.4616622115821845
0.22191489361702127 0.44574674348414367 0.4612985872222662
0.2221276595744681 0.4458074388185313 0.4608852822366714
0.22234042553191488 0.4478298180867099 0.4615797844708097
0.2225531914893617 0.4461548323394115 0.45878821245695534
0.22276595744680852 0.4477643310592379 0.459488805900469
0.2229787234042553 0.44874101750973316 0.459418243838285
0.22319148936170213 0.4499172733296641 0.4621468031854584
0.22340425531914893 0.4479726428920372 0.46303149738663385
0.22361702127659575 0.4466265877445925 0.4646473191647428
0.22382978723404254 0.4452053381896703 0.4631196784673986
0.22404255319148936 0.44693863389761984 0.46547390101741176
0.22425531914893618 0.4460770574198315 0.46280371744757465
0.22446808510638297 0.44883078521660014 0.4623309933297269
0.2246808510638298 0.44699560332193444 0.457743038593063
0.22489361702127658 0.4473842434246919 0.457743038593063
0.2251063829787234 0.4501957488198991 0.45666693144243553
0.22531914893617022 0.45007785670382866 0.45424783276191066
0.225531914893617 0.4495064880383009 0.454255114306594
0.22574468085106383 0.44992672203224227 0.4545310234308309
0.22595744680851063 0.4465843698749513 0.45564750792207803
0.22617021276595745 0.4469936097249958 0.4577425401938283
0.22638297872340427 0.4432284951050339 0.4574712493405096
0.22659574468085106 0.44406448461162684 0.46137685464829997
0.22680851063829788 0.44406448461162684 0.45984340509932553
0.22702127659574467 0.44574048339601086 0.45760274564024284
0.2272340425531915 0.44769751919556555 0.45887174664385355
0.22744680851063828 0.44871117436414387 0.4619127121495883
0.2276595744680851 0.44810459021230975 0.45755768294459576
0.22787234042553192 0.45188080117244755 0.4557889594528579
0.22808510638297871 0.45202999348975065 0.4551921901836456
0.22829787234042553 0.4534429406791398 0.45100315126756285
0.22851063829787233 0.4543767322910619 0.45025524523721966
0.22872340425531915 0.4538348803126526 0.4501468355498568
0.22893617021276597 0.4538348803126526 0.44679567597809
0.22914893617021276 0.4538348803126526 0.44773362387036664
0.22936170212765958 0.451919732857428 0.4450415241817294
0.22957446808510637 0.4536916938012282 0.4451847106931538
0.2297872340425532 0.45313873911908936 0.44573766537529264
0.23 0.4538348803126526 0.4450415241817294
0.2302127659574468 0.454397606410523 0.4450415241817294
0.23042553191489362 0.45620357895364544 0.44295403557539403
0.23063829787234041 0.4559571781359234 0.43968394281031026
0.23085106382978723 0.4540171190838642 0.43917928676111373
0.23106382978723405 0.45583948783696565 0.43525849638467645
0.23127659574468085 0.4593611828738422 0.4340701323376502
0.23148936170212767 0.45676599902296044 0.4321157639172645
0.23170212765957446 0.45676599902296044 0.4306680176500266
0.23191489361702128 0.4558046667804951 0.4284475588176226
0.23212765957446807 0.45543039749607844 0.42807328953320595
0.2323404255319149 0.4564638978581136 0.4291067898952411
0.2325531914893617 0.45367013291116687 0.4301828575880363
0.2327659574468085 0.45340086884199304 0.43092895872963344
0.23297872340425532 0.4542100188762162 0.431362970200293
0.23319148936170211 0.45481191988275516 0.43183291537407176
0.23340425531914893 0.45538524175608885 0.4346332972637301
0.23361702127659575 0.4564469620585315 0.43690617065647974
0.23382978723404255 0.4560183588068476 0.43722520762090866
0.23404255319148937 0.45744761509739573 0.4422011745545223
0.23425531914893616 0.457743038593063 0.4423112187107145
0.23446808510638298 0.45848648915118023 0.4435973065876562
0.2346808510638298 0.4587200781631655 0.44548129740729026
0.2348936170212766 0.45947364245783834 0.44375787086781376
0.2351063829787234 0.458031424673214 0.44475313810157835
0.2353191489361702 0.457743038593063 0.4422895401757713
0.23553191489361702 0.4569580650767612 0.4436803525040254
0.23574468085106381 0.4582496616029461 0.4396134968716695
0.23595744680851063 0.4567373856270279 0.43919359345908004
0.23617021276595745 0.4538468314442186 0.4399150542215823
0.23638297872340425 0.4509037616023448 0.4395199115406188
0.23659574468085107 0.4509037616023448 0.4412059515151028
0.23680851063829786 0.4509037616023448 0.44192578267073784
0.23702127659574468 0.44889625408982314 0.4434487438131028
0.2372340425531915 0.4479726428920372 0.4453959566188496
0.2374468085106383 0.4458633183654271 0.44672167192736856
0.2376595744680851 0.4442745936152517 0.4477625338884123
0.2378723404255319 0.44406448461162684 0.4487819342688127
0.23808510638297872 0.44316776925436124 0.4498463978194051
0.23829787234042554 0.4430874450415241 0.44992672203224227
0.23851063829787233 0.44495178832536836 0.44939836174394476
0.23872340425531915 0.44341824681675224 0.453188642517778
0.23893617021276595 0.4418203068416097 0.4519341730127809
0.23914893617021277 0.4435685204786049 0.4547970311868142
0.23936170212765956 0.44230751332473056 0.4587172449310183
0.23957446808510638 0.44522301306991335 0.4606741573033708
0.2397872340425532 0.445372968655044 0.4606741573033708
0.24 0.44694322020962596 0.4625758533312674
0.2402127659574468 0.4472198030755779 0.4676255341709107
0.2404255319148936 0.44844857345849176 0.46899158286783943
0.24063829787234042 0.44623350466311723 0.47006350367498795
0.24085106382978724 0.44402182674039353 0.46895766471362615
0.24106382978723404 0.44199813560579126 0.4690351285820579
0.24127659574468086 0.44224640407313814 0.46891099434838446
0.24148936170212765 0.4430874450415241 0.4684904738641915
0.24170212765957447 0.44388509319069147 0.4676928257150243
0.2419148936170213 0.44124657338425244 0.4712706492639215
0.24212765957446808 0.44396453377847916 0.4666363455571339
0.2423404255319149 0.44331084582249647 0.4677368350750613
0.2425531914893617 0.44346294791659724 0.4678889371691619
0.2427659574468085 0.44067967378365747 0.4672517605678683
0.2429787234042553 0.43901852596278546 0.46930675263596566
0.24319148936170212 0.4392040841622479 0.4704445530043966
0.24340425531914894 0.4382022471910112 0.47004895190756696
0.24361702127659574 0.4382022471910112 0.4691136144741069
0.24382978723404256 0.4382022471910112 0.4675975424819014
0.24404255319148935 0.4398386374535375 0.46669523916282574
0.24425531914893617 0.44084830219939564 0.4665363947239862
0.244468085106383 0.4404493863356097 0.46038057863260223
0.24468085106382978 0.44090125211031916 0.4569981128139603
0.2448936170212766 0.44192993363283106 0.45437629582842415
0.2451063829787234 0.4437261945692935 0.45464277486158855
0.2453191489361702 0.44406448461162684 0.46025513131506895
0.24553191489361703 0.4448933587782566 0.4550202035404349
0.24574468085106382 0.44788051557271485 0.45194221938532914
0.24595744680851064 0.4490603981675692 0.458922107795262
0.24617021276595744 0.4492023226754079 0.45382370655166254
0.24638297872340426 0.44773201933794604 0.4563977910149547
0.24659574468085105 0.45046851290759243 0.45680151308315964
0.24680851063829787 0.4512354675246246 0.45709770494524016
0.2470212765957447 0.45247694855505605 0.45676599902296044
0.24723404255319148 0.4556441485100404 0.4530509219996401
0.2474468085106383 0.4586767024693817 0.44966646786953934
0.2476595744680851 0.45799783500065194 0.44559326305716074
0.2478723404255319 0.4583854980869377 0.4414946466361278
0.24808510638297873 0.4609548957551318 0.4386664479365722
0.24829787234042552 0.45902215260905027 0.4382022471910112
0.24851063829787234 0.46070827919069296 0.4402586919931829
0.24872340425531914 0.46165119687347334 0.44274023718296734
0.24893617021276596 0.46165119687347334 0.4414429919000942
0.24914893617021278 0.4620994712964428 0.4430069543173606
0.24936170212765957 0.4620442151431657 0.4452325272124472
0.2495744680851064 0.46227463757830467 0.4460185637518319
0.24978723404255318 0.4640330146896134 0.44882812024390684
0.25 0.4674448945106436 0.44777978783709543
0.2502127659574468 0.46528366994913184 0.4453922013644047
0.25042553191489364 0.46380180134367344 0.4450415241817294
0.25063829787234043 0.4643313214646108 0.4443154787307972
0.2508510638297872 0.4653897464016892 0.44406448461162684
0.251063829787234 0.4655593551538837 0.4421801667407212
0.25127659574468086 0.4630411796799155 0.44658266008559483
0.25148936170212766 0.4655951980280099 0.44261684669353596
0.25170212765957445 0.46300071122375575 0.44225079024185854
0.2519148936170213 0.4620854833181755 0.44406448461162684
0.2521276595744681 0.46131785259282526 0.4421333987432633
0.2523404255319149 0.46086507918332215 0.444277836661924
0.2525531914893617 0.4606741573033708 0.44872246639563024
0.2527659574468085 0.460516935610729 0.4480774573537984
0.2529787234042553 0.45768300152147684 0.44956649960272543
0.2531914893617021 0.4570636156630496 0.4458501844521617
0.25340425531914895 0.455990604410015 0.4429013926922087
0.25361702127659574 0.4543526517387954 0.4406740977573592
0.25382978723404254 0.4528578407425501 0.4384764984348895
0.2540425531914894 0.45139866290470193 0.43965717068398885
0.2542553191489362 0.44992672203224227 0.43776205583797245
0.25446808510638297 0.4514461403261552 0.43603083762765993
0.25468085106382976 0.45008754235651055 0.43983468568267997
0.2548936170212766 0.44509540934078723 0.4373868630980823
0.2551063829787234 0.4460185637518319 0.44091498762346526
0.2553191489361702 0.44471423642792046 0.4427601572877154
0.25553191489361704 0.4430111959218175 0.4406067215564144
0.25574468085106383 0.44406448461162684 0.441133365901319
0.2559574468085106 0.4426332236517754 0.44328025734109616
0.2561702127659574 0.44296147726486385 0.44236234102474203
0.25638297872340426 0.4430874450415241 0.44307081855262576
0.25659574468085106 0.44323465315267424 0.4418694064570695
0.25680851063829785 0.44406448461162684 0.4457294090346787
0.2570212765957447 0.44363361303000326 0.4459032673449764
0.2572340425531915 0.4430874450415241 0.44699560332193444
0.2574468085106383 0.4437968922494279 0.44841449773774195
0.25765957446808513 0.44406448461162684 0.4515049304170957
0.2578723404255319 0.44494062141003643 0.4553853483660862
0.2580851063829787 0.4441790366475934 0.4557889594528579
0.2582978723404255 0.4450414946746392 0.4567659695158703
0.25851063829787235 0.4450415241817294 0.45997217726258777
0.25872340425531914 0.44559499302414357 0.46165119687347334
0.25893617021276594 0.4478293746424597 0.46165119687347334
0.2591489361702128 0.44950769120825895 0.46220920561959256
0.2593617021276596 0.44925300362200316 0.4633019548538151
0.25957446808510637 0.44894968246213973 0.4636052760136786
0.2597872340425532 0.45174800339745813 0.4654708233038908
0.26 0.4511928903780287 0.4589128306802881
0.2602127659574468 0.4533603606602361 0.4606741573033708
0.2604255319148936 0.45225843497052215 0.4602965235052962
0.26063829787234044 0.4523369325019446 0.45969711773326827
0.26085106382978723 0.4512177976117979 0.45903411417261863
0.261063829787234 0.4509037616023448 0.4595231113320554
0.2612765957446809 0.4518256316966282 0.45508776726185196
0.26148936170212767 0.4490326956349136 0.4568490121957343
0.26170212765957446 0.44992672203224227 0.45865380093201835
0.26191489361702125 0.4481922112160106 0.4606104903837343
0.2621276595744681 0.44593085861905685 0.4587200781631655
0.2623404255319149 0.44699560332193444 0.4581367160775031
0.2625531914893617 0.44699560332193444 0.45702057419257086
0.26276595744680853 0.44872757186042317 0.45676599902296044
0.2629787234042553 0.4509320951443001 0.45492525405057643
0.2631914893617021 0.45205011052348015 0.4588893875141981
0.26340425531914896 0.45227616264146764 0.45969711773326827
0.26361702127659575 0.4509037616023448 0.4611578143933937
0.26382978723404255 0.4505002556063032 0.4636052760136786
0.26404255319148934 0.44992672203224227 0.4631508010226439
0.2642553191489362 0.44992672203224227 0.46437459489725336
0.264468085106383 0.447094340743121 0.4655593551538837
0.26468085106382977 0.4451748114619409 0.4655593551538837
0.2648936170212766 0.4450415241817294 0.4635900648900448
0.2651063829787234 0.4447468606792107 0.4608214890546301
0.2653191489361702 0.4430874450415241 0.46022924996483267
0.265531914893617 0.4430874450415241 0.4588885674237322
0.26574468085106384 0.4442129922323116 0.46221397046886703
0.26595744680851063 0.4463561195278938 0.4639428317897404
0.2661702127659574 0.4489547650256945 0.46458231558378116
0.2663829787234043 0.44919613126980673 0.46458231558378116
0.26659574468085107 0.45155828005756277 0.4619737179883581
0.26680851063829786 0.45185052585443725 0.45969711773326827
0.2670212765957447 0.451220787182107 0.4602254936995386
0.2672340425531915 0.4538348803126526 0.46251024564475635
0.2674468085106383 0.45408802302350487 0.45405249175019846
0.2676595744680851 0.4555523378348206 0.4515105921964148
0.26787234042553193 0.457736471264158 0.4509037616023448
0.2680851063829787 0.45809672966944104 0.44965706461489585
0.2682978723404255 0.4585120642658344 0.4474116311165967
0.26851063829787236 0.4568951532646506 0.4451706784234195
0.26872340425531915 0.4611054740864146 0.4421883658695728
0.26893617021276595 0.4545928753062898 0.4424303113121279
0.26914893617021274 0.454547653409844 0.4397999397826208
0.2693617021276596 0.4567670265728277 0.44260252168100817
0.2695744680851064 0.457743038593063 0.4423321351852045
0.26978723404255317 0.4570002820814027 0.43941356981955604
0.27 0.4576519255447262 0.43917928676111373
0.2702127659574468 0.4596420706480089 0.4401012792459571
0.2704255319148936 0.4589192965948076 0.4389800683294717
0.27063829787234045 0.46036596529843016 0.43853667097359217
0.27085106382978724 0.46165119687347334 0.4387075745495658
0.27106382978723403 0.46165119687347334 0.4375902677120852
0.2712765957446808 0.46240433435977435 0.44325030751131733
0.2714893617021277 0.47042176756893084 0.43811394095919176
0.27170212765957447 0.4608097093091783 0.43822483919197913
0.27191489361702126 0.46522178150727744 0.43859501422035424
0.2721276595744681 0.45756609053670444 0.43562502459342056
0.2723404255319149 0.4570588499188429 0.4375180585167911
0.2725531914893617 0.457743038593063 0.4386402599334481
0.2727659574468085 0.45599806994132097 0.43917928676111373
0.27297872340425533 0.4569742016801445 0.43917928676111373
0.2731914893617021 0.455161538205411 0.43917928676111373
0.2734042553191489 0.45481191988275516 0.43920528949129034
0.27361702127659576 0.45498213424637085 0.4394754688767539
0.27382978723404255 0.45454462276553226 0.4356259997071433
0.27404255319148935 0.45108898191953756 0.4346899985370558
0.2742553191489362 0.449473592225697 0.43436486886761283
0.274468085106383 0.4507119857222032 0.4356667870205829
0.2746808510638298 0.45188080117244755 0.43940384870229626
0.27489361702127657 0.44665838111972544 0.4401563263312165
0.2751063829787234 0.4460185637518319 0.4431237307119281
0.2753191489361702 0.44569411734537556 0.44406448461162684
0.275531914893617 0.44363279853897886 0.4449278567569227
0.27574468085106385 0.44211040547142155 0.44868813508909927
0.27595744680851064 0.44260545247638766 0.4504217690372084
0.27617021276595743 0.44181390046410896 0.45408762304588285
0.2763829787234042 0.44035492237843854 0.4557889594528579
0.2765957446808511 0.4401563263312165 0.45486788866069183
0.27680851063829787 0.44109199519753856 0.4566832576153995
0.27702127659574466 0.44210615593909436 0.4577387890607358
0.2772340425531915 0.441610616001668 0.4582428280628165
0.2774468085106383 0.44118253756283965 0.4586709065016449
0.2776595744680851 0.4422732216715356 0.45782444669312
0.27787234042553194 0.44343290665237317 0.4589306041495834
0.27808510638297873 0.44147556681973554 0.4600393186516848
0.2782978723404255 0.44211040547142155 0.46163159225676437
0.2785106382978723 0.442728197973386 0.46262823644357587
0.27872340425531916 0.44534487651767646 0.46338071360229344
0.27893617021276595 0.4460185637518319 0.46985826656080465
0.27914893617021275 0.44874053905963146 0.4686996172666998
0.2793617021276596 0.44560155110118665 0.47165192958532554
0.2795744680851064 0.4482869610907836 0.46943342846043074
0.2797872340425532 0.4494020094901895 0.47142159257449934
0.27999999999999997 0.44992672203224227 0.47082550054765165
0.2802127659574468 0.44918892651475856 0.47118234852188046
0.2804255319148936 0.4498310372784113 0.47054023775822756
0.2806382978723404 0.45085614921165457 0.46834763669212076
0.28085106382978725 0.44992672203224227 0.4653712754703323
0.28106382978723404 0.45025492322111743 0.4635977120171556
0.28127659574468084 0.4499707138436441 0.46165119687347334
0.2814893617021277 0.449554689953823 0.4610461893817901
0.2817021276595745 0.4491791984962785 0.4606741573033708
0.28191489361702127 0.44627510159797756 0.4606741573033708
0.28212765957446806 0.44704501915806494 0.4625788206074454
0.2823404255319149 0.4479726428920372 0.46165119687347334
0.2825531914893617 0.4479726428920372 0.46165119687347334
0.2827659574468085 0.4473929294682394 0.46165119687347334
0.28297872340425534 0.4458588788299025 0.4614915119515439
0.28319148936170213 0.4450415241817294 0.46150803198945844
0.2834042553191489 0.4462548165694453 0.4623919836259627
0.2836170212765957 0.4474397956513078 0.4612070045441001
0.28382978723404256 0.44699560332193444 0.46332841453889007
0.28404255319148936 0.4452556483865105 0.4616823906914078
0.28425531914893615 0.4446595790889894 0.45850692877854304
0.284468085106383 0.4456347159828819 0.45655665499075787
0.2846808510638298 0.4453841003277426 0.4538855691805898
0.2848936170212766 0.446491844863912 0.4528578407425501
0.2851063829787234 0.44782931566515144 0.4528578407425501
0.2853191489361702 0.4488106871758251 0.4511817521749741
0.285531914893617 0.44819770462225933 0.44864782808270365
0.2857446808510638 0.45111015396087656 0.44640388735761743
0.28595744680851065 0.45188080117244755 0.44953215021729287
0.28617021276595744 0.45092634998398784 0.444200014901485
0.28638297872340424 0.45199420481143693 0.4459618619323372
0.2865957446808511 0.4536258578823724 0.4451460353968695
0.2868085106382979 0.45144102103856143 0.44344561799900184
0.28702127659574467 0.45308592355762906 0.4438148323599523
0.28723404255319146 0.4538348803126526 0.4433974754346802
0.2874468085106383 0.45329748243252926 0.4441622408017709
0.2876595744680851 0.45327348043967963 0.44670408297024755
0.2878723404255319 0.4527103125187924 0.4474502587369928
0.28808510638297874 0.45206179350780257 0.4450415241817294
0.28829787234042553 0.4550796373357117 0.4450415241817294
0.2885106382978723 0.45542196921299716 0.4481775937383103
0.28872340425531917 0.4547436955010052 0.4500631707957426
0.28893617021276596 0.45490981746524306 0.44709350090442235
0.28914893617021276 0.4554113060978093 0.4456244573055428
0.28936170212765955 0.45609463607905787 0.44570088518733136
0.2895744680851064 0.45260992686215945 0.4460039478003717
0.2897872340425532 0.4519486005868335 0.4430751178752721
0.29 0.45380538111872426 0.44273752141492834
0.2902127659574468 0.4556621616506155 0.44239992495458447
0.2904255319148936 0.45751894218250627 0.4420623284942407
0.2906382978723404 0.45937572271439703 0.44172473203389695
0.2908510638297872 0.4612325032462878 0.4413871355735532
0.29106382978723405 0.46173861617432094 0.4404661506993778
0.29127659574468084 0.4587200781631655 0.4374286812901286
0.29148936170212764 0.4588867033715674 0.4331504241320965
0.2917021276595745 0.45910115703286214 0.4323400097703958
0.2919148936170213 0.45676599902296044 0.4314314906071772
0.29212765957446807 0.4580963380507792 0.4276448603524282
0.2923404255319149 0.4615027709760519 0.4296933545125614
0.2925531914893617 0.45372405724686565 0.43429408891060084
0.2927659574468085 0.4528578407425501 0.43460404576746053
0.2929787234042553 0.4528578407425501 0.43688965085002746
0.29319148936170214 0.45246757352655875 0.4401563263312165
0.29340425531914893 0.4511443024193841 0.44063740796529494
0.2936170212765957 0.45188080117244755 0.44235321916111664
0.29382978723404257 0.45168385510700565 0.44298897200880316
0.29404255319148936 0.4499609106550451 0.4421958770284286
0.29425531914893616 0.45182503622832504 0.44685619096162815
0.29446808510638295 0.4499384279088738 0.4479667899537214
0.2946808510638298 0.45367233210132496 0.44703624037476636
0.2948936170212766 0.44992672203224227 0.4478326109547333
0.2951063829787234 0.45017843372348954 0.44724731501318177
0.29531914893617023 0.450593334129185 0.4485934978383568
0.295531914893617 0.45020752630141947 0.45020752630141947
0.2957446808510638 0.4502552906801411 0.4509037616023448
0.29595744680851066 0.44894968246213973 0.45053434998136166
0.29617021276595745 0.45021026155607374 0.4482459499069969
0.29638297872340424 0.4508983504282425 0.4474922398681394
0.29659574468085104 0.44880087905261073 0.44894968246213973
0.2968085106382979 0.4463444257407439 0.4478642043612775
0.2970212765957447 0.44410928204225564 0.448393966531145
0.29723404255319147 0.4423000281834799 0.4491393051741981
0.2974468085106383 0.4405221904131014 0.44858381838025474
0.2976595744680851 0.43979701925803366 0.45033854369685555
0.2978723404255319 0.44211040547142155 0.45188080117244755
0.29808510638297875 0.44211040547142155 0.45188080117244755
0.29829787234042554 0.43942135872058563 0.45389758623557436
0.29851063829787233 0.43931860195772904 0.45816098418290857
0.2987234042553191 0.44082277292262995 0.4595078757683973
0.298936170212766 0.442060589422048 0.4573416968944156
0.29914893617021276 0.4432984059214658 0.4551755180204345
0.29936170212765956 0.44443629116852607 0.4530912671988541
0.2995744680851064 0.4454118930424714 0.4511400634509633
0.2997872340425532 0.44626297033997564 0.44992672203224227
0.3 0.44690927932193986 0.44992672203224227
0.3002127659574468 0.44726897782117714 0.4497900347826209
0.30042553191489363 0.4475844941296308 0.4496322766283941
0.3006382978723404 0.44790001043808436 0.44947451847416736
0.3008510638297872 0.448215526746538 0.44931676031994056
0.30106382978723406 0.44853104305499164 0.44915900216571375
0.30127659574468085 0.44884655936344525 0.44900124401148694
0.30148936170212765 0.44937183865130753 0.4514826195971465
0.3017021276595745 0.44999896398430744 0.45524537159514583
0.3019148936170213 0.4506260893173072 0.4590081235931442
0.3021276595744681 0.45125321465030693 0.46277087559114255
0.30234042553191487 0.4518803399833067 0.4665336275891409
0.3025531914893617 0.45152729339995795 0.4665363947239862
0.3027659574468085 0.4511735254658691 0.4665363947239862
0.3029787234042553 0.45132170086071366 0.4665363947239862
0.30319148936170215 0.4526772540716139 0.4665363947239862
0.30340425531914894 0.45125789007974043 0.4665363947239862
0.30361702127659573 0.4515889933091309 0.46585116301720025
0.3038297872340425 0.45188080117244755 0.4655593551538837
0.3040425531914894 0.4515723309050622 0.4655593551538837
0.30425531914893617 0.4510780263863855 0.4641777899289118
0.30446808510638296 0.45579693166693463 0.4587121059490888
0.3046808510638298 0.4544038683862496 0.4560239611992241
0.3048936170212766 0.4503910058451342 0.4551722507285038
0.3051063829787234 0.45243605051256897 0.4553671692228767
0.30531914893617024 0.45188080117244755 0.45481191988275516
0.30553191489361703 0.45007450148962547 0.45481191988275516
0.3057446808510638 0.44682143980562916 0.4562307483204289
0.3059574468085106 0.44765343316434936 0.45676599902296044
0.30617021276595746 0.4479726428920372 0.4576915310516546
0.30638297872340425 0.44972928645257976 0.4588187959529968
0.30659574468085105 0.4461789988533239 0.4606741573033708
0.3068085106382979 0.44672335931939533 0.4595851812932143
0.3070212765957447 0.44563096388410584 0.4579287986261388
0.3072340425531915 0.4455442904207082 0.456680520299395
0.30744680851063827 0.44723302280813704 0.4532276507845001
0.3076595744680851 0.44725765558816927 0.45357282804641785
0.3078723404255319 0.4503116655662629 0.45549291143481696
0.3080851063829787 0.4509037616023448 0.4538957541300085
0.30829787234042555 0.45238230327958645 0.45456116882918574
0.30851063829787234 0.4571431167179829 0.45188080117244755
0.30872340425531913 0.45544548753789843 0.45188080117244755
0.308936170212766 0.45590063151765764 0.45188080117244755
0.3091489361702128 0.4613773598787046 0.45023944117346015
0.30936170212765957 0.4599299111791479 0.44696773739868817
0.30957446808510636 0.45676599902296044 0.44446430485950095
0.3097872340425532 0.4594338795128302 0.44495377810825004
0.31 0.4567722342462045 0.44308120981828003
0.3102127659574468 0.4576233204104575 0.4423498418366325
0.31042553191489364 0.4570029042276556 0.4435906742022365
0.31063829787234043 0.4584521166229049 0.44104678842665873
0.3108510638297872 0.4592252303353617 0.4377636245673945
0.311063829787234 0.4569552193352017 0.4368364543267941
0.31127659574468086 0.4586066444157993 0.4351119438987026
0.31148936170212765 0.45888364363008627 0.43104019249787334
0.31170212765957445 0.46056846791247014 0.4313101255048427
0.3119148936170213 0.46073871812126627 0.4284318514899854
0.3121276595744681 0.46165119687347334 0.4286150995007527
0.3123404255319149 0.4607489494788759 0.42940889106008795
0.3125531914893617 0.4591413416149753 0.42940889106008795
0.3127659574468085 0.46132637293878853 0.42940889106008795
0.3129787234042553 0.4608279974081366 0.43420952848792627
0.3131914893617021 0.45901555846933667 0.4351805298291142
0.31340425531914895 0.45792007455414674 0.43549409432412906
0.31361702127659574 0.4568257867518546 0.43713552602756744
0.31382978723404253 0.4611830589010708 0.440758855523397
0.3140425531914894 0.45692624199624327 0.4430233478522109
0.3142553191489362 0.4547424230533524 0.4430874450415241
0.31446808510638297 0.4538348803126526 0.44395667172301373
0.31468085106382976 0.45302188217118805 0.44770164351154895
0.3148936170212766 0.45204593883448363 0.4466148775778882
0.3151063829787234 0.45236189458531967 0.44749154947916486
0.3153191489361702 0.4509037616023448 0.4477692201030777
0.31553191489361704 0.4509037616023448 0.4511292231693436
0.31574468085106383 0.45169762679916436 0.4560333015298278
0.3159574468085106 0.4536887312765765 0.4594778941791541
0.31617021276595747 0.45098150781761975 0.4569603645611478
0.31638297872340426 0.45270621461467325 0.46165119687347334
0.31659574468085105 0.45241190706730394 0.46112009097861695
0.31680851063829785 0.45345674436372374 0.45969711773326827
0.3170212765957447 0.45236617762105774 0.45871379149028346
0.3172340425531915 0.45188080117244755 0.457743038593063
0.3174468085106383 0.45075600675649113 0.45661824417710667
0.3176595744680851 0.44816470699020455 0.4540269444108202
0.3178723404255319 0.45243914781800576 0.4528578407425501
0.3180851063829787 0.45326448382170736 0.4547511974659131
0.3182978723404255 0.4484803455012523 0.4537486860501408
0.31851063829787235 0.4477057773664379 0.4521476666980468
0.31872340425531914 0.4479726428920372 0.45188080117244755
0.31893617021276593 0.44733452373046406 0.4506045628493014
0.3191489361702128 0.44699560332193444 0.4504536530709059
0.3193617021276596 0.44699560332193444 0.4509037616023448
0.31957446808510637 0.4468189997826313 0.45116866691129953
0.3197872340425532 0.4449983744174285 0.45392117984125435
0.32 0.4439843433439617 0.45546839438219733
0.3202127659574468 0.4433452817963936 0.4520097195498823
0.3204255319148936 0.4444027792541297 0.4531772132063499
0.32063829787234044 0.44129936140814713 0.45481191988275516
0.32085106382978723 0.4417137189909576 0.4546135766425232
0.321063829787234 0.43991126094040944 0.4538348803126526
0.32127659574468087 0.43948344919034016 0.45505153002955834
0.32148936170212766 0.4405649279186369 0.4593774449427449
0.32170212765957445 0.44186270861735044 0.46252640813271106
0.32191489361702125 0.44340014719268483 0.4643713344231124
0.3221276595744681 0.4449375857680196 0.4662162607135142
0.3223404255319149 0.44581014118692047 0.46667974403444307
0.3225531914893617 0.44510813777804675 0.4638717303989482
0.3227659574468085 0.4454306616368817 0.46329396604955675
0.3229787234042553 0.4458605958514992 0.4629500186778628
0.3231914893617021 0.44629053006611663 0.4626060713061688
0.32340425531914896 0.44672046428073414 0.4622621239344748
0.32361702127659575 0.4471503984953516 0.46191817656278084
0.32382978723404254 0.447580332709969 0.46157422919108687
0.32404255319148934 0.44801026692458645 0.4612302818193929
0.3242553191489362 0.448440201139204 0.4608863344476989
0.324468085106383 0.4488701353538214 0.4605423870760049
0.32468085106382977 0.4493000695684389 0.460198439704311
0.3248936170212766 0.44973000378305644 0.45985449233261694
0.3251063829787234 0.450269456282679 0.45969711773326827
0.3253191489361702 0.45090128772917254 0.45969711773326827
0.325531914893617 0.451533119175666 0.45969711773326827
0.32574468085106384 0.4525354713323043 0.45838777741355463
0.32595744680851063 0.4539062969145979 0.4555390013460495
0.3261702127659574 0.45457140892692216 0.45321110930291464
0.32638297872340427 0.4552365209392466 0.4508832172597792
0.32659574468085106 0.4561083451167926 0.44886983604615605
0.32680851063829786 0.45799367968147403 0.44839850240498574
0.3270212765957447 0.45952944907574783 0.44788880856327695
0.3272340425531915 0.45779158444921575 0.44701987625001083
0.3274468085106383 0.4590432675084647 0.4450452599488321
0.3276595744680851 0.4584450268863608 0.44489921184289843
0.3278723404255319 0.4577837106909853 0.4460185637518319
0.3280851063829787 0.45790056988358785 0.44646770071425196
0.3282978723404255 0.45692681257972567 0.44642667675850056
0.32851063829787236 0.457743038593063 0.44671095840287084
0.32872340425531915 0.457743038593063 0.44780975186103
0.32893617021276594 0.4568094580920302 0.4526405453972011
0.32914893617021274 0.4566252568823929 0.4504815351806423
0.3293617021276596 0.4544529455638319 0.44414408838442127
0.3295744680851064 0.45254947058992706 0.43953958602597043
0.32978723404255317 0.452754661224367 0.43776531716505146
0.33 0.45212727510750494 0.43779440935595787
0.3302127659574468 0.45160039488170994 0.4375056139116462
0.3304255319148936 0.45352811112655 0.4380488625979599
0.33063829787234045 0.4528868657598932 0.44009827629653037
0.33085106382978724 0.4544565202606149 0.44200679881342786
0.33106382978723403 0.45969711773326827 0.44160635522479114
0.3312765957446808 0.45902381546048265 0.4424141427687385
0.33148936170212767 0.4581466892750543 0.44153701658331035
0.33170212765957446 0.4592497323385169 0.44211040547142155
0.33191489361702126 0.46101313217280276 0.44013638381211967
0.3321276595744681 0.46165119687347334 0.44072330989606395
0.3323404255319149 0.46610591356345854 0.4366786492113338
0.3325531914893617 0.463537743884315 0.4353048945453852
0.3327659574468085 0.46196821285961887 0.43577264407158783
0.33297872340425533 0.46332233035496384 0.4330341036817836
0.3331914893617021 0.4613996913083269 0.43274952481547874
0.3334042553191489 0.459163420907203 0.43545183664475895
0.33361702127659576 0.45747218159340186 0.4378491559057905
0.33382978723404255 0.4552959152985157 0.4389372890532335
0.33404255319148934 0.4556783399137527 0.4435113869161007
0.3342553191489362 0.45477825260422633 0.4431098898938766
0.334468085106383 0.45208342549789887 0.44490644129809515
0.3346808510638298 0.4490853185424946 0.44794551567596624
0.33489361702127657 0.4535293690418007 0.44699560332193444
0.3351063829787234 0.4513280903074737 0.44671924788944756
0.3353191489361702 0.44911304341816677 0.44628978995652374
0.335531914893617 0.4471131615367363 0.4471131615367363
0.33574468085106385 0.44901746946677706 0.44898357596445837
0.33595744680851064 0.45078457828393836 0.44989692620264066
0.33617021276595743 0.44711363800948717 0.4489791911340279
0.3363829787234042 0.45176838290284604 0.45282036798601627
0.33659574468085107 0.4492711592698876 0.45172006276857357
0.33680851063829786 0.4494831668903217 0.45118788054474945
0.33702127659574466 0.4460185637518319 0.45229429288150175
0.3372340425531915 0.44439638448382807 0.453398567165218
0.3374468085106383 0.4444198278857085 0.45583345457892915
0.3376595744680851 0.444247662483937 0.45835372241854516
0.33787234042553194 0.443148409122856 0.4614683046294776
0.33808510638297873 0.4438794323062723 0.46715323574183476
0.3382978723404255 0.44170193649089096 0.47516964924586835
0.3385106382978723 0.4449862009335534 0.4704445530043966
0.33872340425531916 0.4456941332144834 0.470878376373547
0.33893617021276595 0.4446231922283123 0.47086288495781375
0.33914893617021274 0.4443528903901718 0.469755919212839
0.3393617021276596 0.4447750196010021 0.46733590846616824
0.3395744680851064 0.44347324961930734 0.46732053200519735
0.3397872340425532 0.4467099732218867 0.4657021702039076
0.34 0.4438978993948222 0.4624061228211697
0.3402127659574468 0.4409954944028986 0.4587200781631655
0.3404255319148936 0.43989300458470854 0.4584567564166576
0.3406382978723404 0.4383953539854639 0.4573510722052381
0.34085106382978725 0.4367046422819683 0.45832769503978166
0.34106382978723404 0.4368957003954184 0.4577545206994313
0.34127659574468083 0.4356721181718751 0.4575425437474771
0.3414893617021277 0.4361760043824032 0.45683816269136335
0.3417021276595745 0.43717797083272825 0.45964988094508785
0.34191489361702126 0.4362884511103493 0.4587603612227087
0.34212765957446806 0.4382960425555521 0.46248754339676457
0.3423404255319149 0.4401563263312165 0.4593514020759527
0.3425531914893617 0.4404525636033122 0.45833551313725446
0.3427659574468085 0.44002014679052986 0.4585838986224791
0.34297872340425534 0.4386160160395909 0.45717976787154013
0.34319148936170213 0.4397195037775512 0.457743038593063
0.3434042553191489 0.4413504191966315 0.45893713145847814
0.34361702127659577 0.4434516950869633 0.45969711773326827
0.34382978723404256 0.44565003625182165 0.46048989355336567
0.34404255319148935 0.4475764379188762 0.46145309438689286
0.34425531914893615 0.44968321209980305 0.46165119687347334
0.344468085106383 0.45383050338633635 0.4626238595172596
0.3446808510638298 0.45299256328283255 0.4615164743331909
0.3448936170212766 0.4541004191374323 0.4601430796538113
0.3451063829787234 0.4544172744769735 0.4579307873516022
0.3453191489361702 0.45541414714043116 0.45939811040259126
0.345531914893617 0.45742403490381345 0.46033512511176733
0.3457446808510638 0.46011283499249916 0.4541675928012505
0.34595744680851065 0.45975211086685613 0.4528578407425501
0.34617021276595744 0.46331008874849816 0.44782504925944694
0.34638297872340423 0.4594979945717163 0.445421194267176
0.3465957446808511 0.45762026249732274 0.4422625832921421
0.3468085106382979 0.45650383947620177 0.43991462353215266
0.34702127659574467 0.4610114333503716 0.43917928676111373
0.3472340425531915 0.4571669341952385 0.43933966083002496
0.3474468085106383 0.46133381992122363 0.44153008709163116
0.3476595744680851 0.45808681001211493 0.4461904494613579
0.3478723404255319 0.4599901321838178 0.44758163222303354
0.34808510638297874 0.4610933329451094 0.44936885810387833
0.34829787234042553 0.4632901086150412 0.45101932985995424
0.3485106382978723 0.4639098343800438 0.45120831996871
0.34872340425531917 0.46280433078690314 0.453306597282671
0.34893617021276596 0.467277280132731 0.4510454540991596
0.34914893617021275 0.4655593551538837 0.4528578407425501
0.34936170212765955 0.4653528221565629 0.45492317071575816
0.3495744680851064 0.4649201948659651 0.45924944362173625
0.3497872340425532 0.46649618424533107 0.45332625528827375
0.35 0.4633327759446592 0.4526404064985299
0.3502127659574468 0.4585057203884959 0.45188080117244755
0.3504255319148936 0.4585806746577965 0.4493678929782468
0.3506382978723404 0.459057524498824 0.44844351295865204
0.35085106382978726 0.4594445126730489 0.44786303069731465
0.35106382978723405 0.45983150084727376 0.4472825484359774
0.35127659574468084 0.4602184890214986 0.4467020661746402
0.35148936170212763 0.4606054771957234 0.446121583913303
0.3517021276595745 0.4600398155500776 0.44348119673865904
0.3519148936170213 0.458843785331007 0.44083040686802977
0.35212765957446807 0.457743038593063 0.43944867260452075
0.3523404255319149 0.4584163076704569 0.4399319033054185
0.3525531914893617 0.45988938732031925 0.43917928676111373
0.3527659574468085 0.4550234209065318 0.43903828607859596
0.3529787234042553 0.4575942087466694 0.43732442751850437
0.35319148936170214 0.4587288570533544 0.4375538137743391
0.35340425531914893 0.4597752542728132 0.437902612847492
0.3536170212765957 0.4605894869865175 0.4382022471910112
0.35382978723404257 0.4599887935979437 0.4382022471910112
0.35404255319148936 0.46013640723721966 0.4368843786791569
0.35425531914893615 0.4595788110606207 0.4356362438949535
0.354468085106383 0.45662001517043665 0.4343764623464289
0.3546808510638298 0.45521053869586225 0.430964351387186
0.3548936170212766 0.45395171552579966 0.43130455259371964
0.3551063829787234 0.45241985034501875 0.43449620646068066
0.3553191489361702 0.4528578407425501 0.4337045712015036
0.355531914893617 0.45326916922954796 0.43259695566128664
0.3557446808510638 0.4538348803126526 0.43429408891060084
0.35595744680851066 0.4534204327916421 0.4347085364316114
0.35617021276595745 0.45228351725473637 0.4369193615212876
0.35638297872340424 0.4547358399762907 0.4412474857610157
0.35659574468085103 0.4511496175949785 0.44662681933298387
0.3568085106382979 0.4500809588534527 0.4511096170663956
0.3570212765957447 0.4475696320772802 0.4534521944757555
0.35723404255319147 0.44557911110522036 0.4545431264210097
0.3574468085106383 0.44439536642699057 0.45545807763749413
0.3576595744680851 0.4435058005432146 0.45467159131603346
0.3578723404255319 0.4429009944158722 0.4538348803126526
0.35808510638297875 0.44254129804980824 0.4538348803126526
0.35829787234042554 0.4421816016837444 0.4538348803126526
0.35851063829787233 0.4413237051738881 0.4538348803126526
0.3587234042553191 0.44201336791630097 0.4520748762826887
0.35893617021276597 0.44211040547142155 0.4518544951732441
0.35914893617021276 0.4419524849785052 0.45074584110942845
0.35936170212765955 0.4406349079152927 0.44992672203224227
0.3595744680851064 0.4405133477503935 0.44992672203224227
0.3597872340425532 0.4432815899692171 0.450709616674652
0.36 0.44262452322728363 0.45239491892830963
0.3602127659574468 0.44437044132417525 0.4547823351665268
0.3604255319148936 0.4443692152335664 0.4564612684010209
0.3606382978723404 0.44406448461162684 0.4582526762928429
0.3608510638297872 0.4449351363122041 0.46133203326489747
0.36106382978723406 0.4450089789936095 0.4635727308255588
0.36127659574468085 0.44389262652056677 0.4631438107167559
0.36148936170212764 0.44274257351619206 0.4657317909165497
0.3617021276595745 0.441510935685066 0.46634760983211276
0.3619148936170213 0.441133365901319 0.4677434638293968
0.3621276595744681 0.4430345573157527 0.46595555197828
0.36234042553191487 0.4417430970348666 0.4622609280070209
0.3625531914893617 0.4438810144263347 0.45798766550678577
0.3627659574468085 0.4420299382940616 0.457743038593063
0.3629787234042553 0.441133365901319 0.45709628229023846
0.36319148936170215 0.44077606669771513 0.4540973214755473
0.36340425531914894 0.4406081112530215 0.4528578407425501
0.36361702127659573 0.441133365901319 0.4528578407425501
0.3638297872340425 0.4404646790778098 0.4555325880365872
0.36404255319148937 0.4481787689859056 0.4575682432884293
0.36425531914893616 0.439562898470778 0.4615117017063227
0.36446808510638296 0.4428711668562774 0.45719855539345383
0.3646808510638298 0.4418914464007887 0.4619376248024869
0.3648936170212766 0.44406448461162684 0.4655593551538837
0.3651063829787234 0.44513936124719566 0.4655593551538837
0.36531914893617023 0.4460185637518319 0.466238796856294
0.365531914893617 0.44683952652409964 0.4648944691794508
0.3657446808510638 0.448921123095933 0.46458231558378116
0.3659574468085106 0.4521285755688302 0.4644584283855898
0.36617021276595746 0.45356677188833616 0.46306905916504565
0.36638297872340425 0.453678833241518 0.46083020437450545
0.36659574468085104 0.4564820419104651 0.45747028836298836
0.3668085106382979 0.457743038593063 0.4557889594528579
0.3670212765957447 0.45941719977378226 0.4557889594528579
0.3672340425531915 0.4605268313087314 0.4516403915755418
0.36744680851063827 0.4614542694537075 0.4501236494520081
0.3676595744680851 0.46165119687347334 0.4490556392489474
0.3678723404255319 0.4616815036527141 0.4470259101011752
0.3680851063829787 0.46296030064643595 0.44780661079060713
0.36829787234042555 0.4640442535196815 0.44726463435398434
0.36851063829787234 0.46232267527459386 0.4479726428920372
0.36872340425531913 0.46203146171175574 0.4479726428920372
0.368936170212766 0.46190595493974096 0.4486949243958721
0.36914893617021277 0.4604296442522139 0.4491931828787715
0.36936170212765956 0.459615886241218 0.44732052929013544
0.36957446808510636 0.45876819354187814 0.45085564622363217
0.3697872340425532 0.4599452932244917 0.44992672203224227
0.37 0.46114254611441297 0.44916374589365166
0.3702127659574468 0.45969711773326827 0.4466631456468744
0.37042553191489364 0.45969711773326827 0.44674783521610884
0.3706382978723404 0.45969711773326827 0.44597364495708625
0.3708510638297872 0.45842477593101566 0.44151980100712174
0.371063829787234 0.45622176765974093 0.43939569086455527
0.37127659574468086 0.454893932545752 0.43559917913269064
0.37148936170212765 0.45398500495170085 0.43279038368754047
0.37170212765957444 0.45236113398461786 0.4316031366063782
0.3719148936170213 0.45188080117244755 0.43215537487916283
0.3721276595744681 0.45188080117244755 0.4323400097703958
0.3723404255319149 0.45196824942090474 0.4335793940858698
0.3725531914893617 0.4530767414471684 0.43581036664156936
0.3727659574468085 0.453122406587168 0.4328691414596315
0.3729787234042553 0.4513806576635292 0.42938564361235404
0.3731914893617021 0.4509037616023448 0.42971311812637025
0.37340425531914895 0.4524726435917454 0.43195481261959107
0.37361702127659574 0.45378381752699076 0.4323400097703958
0.37382978723404253 0.4535827164755134 0.4317832432621917
0.3740425531914894 0.45112323475280885 0.43646764120127013
0.37425531914893617 0.45188080117244755 0.43722520762090866
0.37446808510638296 0.4506170016748915 0.44017407311520607
0.37468085106382976 0.44894968246213973 0.44406448461162684
0.3748936170212766 0.4510511967832253 0.44406448461162684
0.3751063829787234 0.45188080117244755 0.44742373850997336
0.3753191489361702 0.4489580802128194 0.45188080117244755
0.37553191489361704 0.450792651346692 0.45188080117244755
0.37574468085106383 0.44776531337671477 0.4547428100443144
0.3759574468085106 0.4456656400897682 0.4536268416766397
0.37617021276595747 0.44832096394658955 0.451812877578893
0.37638297872340426 0.44894968246213973 0.4516796334120535
0.37659574468085105 0.4504920265665854 0.45486310971561644
0.37680851063829784 0.45123491274177785 0.45255951729950983
0.3770212765957447 0.4532577445575963 0.4532577445575963
0.3772340425531915 0.4547601541988683 0.4547601541988683
0.3774468085106383 0.45587809018769504 0.4603176343640222
0.3776595744680851 0.45699495588074535 0.4572239127385302
0.3778723404255319 0.45663934613659024 0.456880590735711
0.3780851063829787 0.45528367197728686 0.4524196240290577
0.37829787234042556 0.45464889635926925 0.4514737931491392
0.37851063829787235 0.4525363349646292 0.45253007384645927
0.37872340425531914 0.45036270861902233 0.45209879446583756
0.37893617021276593 0.44992672203224227 0.45098266064692305
0.3791489361702128 0.44883402312023735 0.4510194209442472
0.3793617021276596 0.4473873113333096 0.4532495487539252
0.37957446808510636 0.4463329960553972 0.4561202630861264
0.3797872340425532 0.4439288686053587 0.45778824392848566
0.38 0.44335851444254415 0.45676599902296044
0.3802127659574468 0.441133365901319 0.4596334006248381
0.3804255319148936 0.44028748148881947 0.45982827289087125
0.38063829787234044 0.4381903767838541 0.4587082077560084
0.38085106382978723 0.4367605705891489 0.4572784015613032
0.381063829787234 0.43400305226121183 0.45452088323336615
0.38127659574468087 0.43462043366665426 0.45470380319675663
0.38148936170212766 0.43682545592883854 0.454634383696793
0.38170212765957445 0.4393774789693326 0.4538348803126526
0.3819148936170213 0.4401563263312165 0.4538348803126526
0.3821276595744681 0.44019725207747806 0.45678646189609123
0.3823404255319149 0.44195008680858955 0.457903357255895
0.3825531914893617 0.441133365901319 0.4596172606370732
0.3827659574468085 0.44199750759149975 0.4629474094087445
0.3829787234042553 0.44251893300313605 0.46628785169894543
0.3831914893617021 0.444235175949474 0.46892994794612386
0.38340425531914896 0.4533692362179776 0.46946751343429405
0.38361702127659575 0.448062992356062 0.4723599109457341
0.38382978723404254 0.4471000330810244 0.47065341252257653
0.38404255319148933 0.44790886606965424 0.46861802750895737
0.3842553191489362 0.44793785519865964 0.4674786466007114
0.384468085106383 0.44721672104870525 0.4663152769972155
0.38468085106382977 0.44839233353454583 0.46495388153551037
0.3848936170212766 0.4460185637518319 0.4665363947239862
0.3851063829787234 0.4465332419706414 0.465764377395772
0.3853191489361702 0.44765173153510684 0.46392618737060887
0.38553191489361704 0.447835843456383 0.46500243565100535
0.38574468085106384 0.4494643825782461 0.46401525480556444
0.38595744680851063 0.450542008010506 0.46201295046531216
0.3861702127659574 0.45151947574573925 0.45734119786971283
0.38638297872340427 0.45188080117244755 0.45375901172646527
0.38659574468085106 0.4516287078067835 0.45184946727989395
0.38680851063829785 0.45110325615341546 0.44974766066642224
0.3870212765957447 0.45135075765700433 0.44671470218884246
0.3872340425531915 0.45134688772416554 0.4437085423127721
0.3874468085106383 0.449327628096438 0.4423623692276204
0.3876595744680851 0.45094690441485014 0.44144466482051814
0.3878723404255319 0.4535348394375119 0.441133365901319
0.3880851063829787 0.4573276680189179 0.44264281478301665
0.3882978723404255 0.45835319543808417 0.44316853641483744
0.38851063829787236 0.45676599902296044 0.44292585938848794
0.38872340425531915 0.45724325396789783 0.44406448461162684
0.38893617021276594 0.45833899956749274 0.44406448461162684
0.3891489361702128 0.46239674657602414 0.4447998182941985
0.3893617021276596 0.45923983519866207 0.4459146123447326
0.3895744680851064 0.4606633591389605 0.4469902042397293
0.38978723404255317 0.45969711773326827 0.44312219980769696
0.39 0.4596966101797475 0.44406414624261303
0.3902127659574468 0.4570626853642907 0.4423081963656417
0.3904255319148936 0.45968783478917286 0.44357132335452787
0.39063829787234045 0.4552161776509353 0.4452773689788347
0.39085106382978724 0.450840607888389 0.44653866039386114
0.39106382978723403 0.44946786093854707 0.44699560332193444
0.3912765957446808 0.44894968246213973 0.4491575268462503
0.39148936170212767 0.4488572771579184 0.45392728561687395
0.39170212765957446 0.44707926733689857 0.4557052954378938
0.39191489361702125 0.44635178624933897 0.4570992215204675
0.3921276595744681 0.44790634959188014 0.4575153520255766
0.3923404255319149 0.4503016984156896 0.45676599902296044
0.3925531914893617 0.4502339916887228 0.45762220517401575
0.39276595744680853 0.4530162180422227 0.4587200781631655
0.3929787234042553 0.45668249010312256 0.4587200781631655
0.3931914893617021 0.4594535932014175 0.45786480085898834
0.3934042553191489 0.4597416950041886 0.4557889594528579
0.39361702127659576 0.4614903712030987 0.45482400543061013
0.39382978723404255 0.460967613674441 0.44904635291903156
0.39404255319148934 0.4612154475252005 0.4465598539736616
0.3942553191489362 0.46009668144127547 0.4454410878897366
0.394468085106383 0.4589745954202987 0.4464865688076681
0.3946808510638298 0.4595822613302773 0.44527123698771126
0.39489361702127657 0.45779310269811474 0.44516668444435875
0.3951063829787234 0.45953008141043805 0.4497596857094121
0.3953191489361702 0.4587200781631655 0.44833804046762027
0.395531914893617 0.4587200781631655 0.44699560332193444
0.39574468085106385 0.45820913724132445 0.4475065442437756
0.39595744680851064 0.46132368843101057 0.4461823179730634
0.39617021276595743 0.45628065788442346 0.4443090623688039
0.3963829787234043 0.45730597536034584 0.44666780589739663
0.39659574468085107 0.45478257480131307 0.44693691315905026
0.39680851063829786 0.45366436158013207 0.4453825616467705
0.39702127659574465 0.4533859366517068 0.44725965127651285
0.3972340425531915 0.45400297501468756 0.44689404973461366
0.3974468085106383 0.4526815025053794 0.4444648352780928
0.3976595744680851 0.4516559493970798 0.4461309896395157
0.39787234042553193 0.44926578268642725 0.44897842135937965
0.3980851063829787 0.4505354788633954 0.44913382383161443
0.3982978723404255 0.4499654008755136 0.4498880431889709
0.3985106382978723 0.4473037341717606 0.45908085603361587
0.39872340425531916 0.44918944015102025 0.45506368344802267
0.39893617021276595 0.4473806054631084 0.4571800695984698
0.39914893617021274 0.447449157947842 0.4532414650501699
0.3993617021276596 0.4443884335884914 0.4525325936058083
0.3995744680851064 0.4423054631503767 0.4528578407425501
0.3997872340425532 0.4438221439617766 0.4545695792329049
0.4 0.44406448461162684 0.45481191988275516
0.4002127659574468 0.44490583750119334 0.45996849109434035
0.4004255319148936 0.44346239715167707 0.4622532843334231
0.4006382978723404 0.4415939470609374 0.46427526147736886
0.40085106382978725 0.44421559955105955 0.4644416157167682
0.40106382978723404 0.4444656061866497 0.4720490393044885
0.40127659574468083 0.4439422476324258 0.4669637960194371
0.4014893617021277 0.44390376198727516 0.4669445531968618
0.40170212765957447 0.44450665779698173 0.46724600110171516
0.40191489361702126 0.4441894457852376 0.4641051207081218
0.40212765957446805 0.44406448461162684 0.4636577838739043
0.4023404255319149 0.4437583265529328 0.46623023666529223
0.4025531914893617 0.44186067939866164 0.46458231558378116
0.4027659574468085 0.44187054840867457 0.46476661121062
0.40297872340425533 0.4444065842461557 0.4654006201699903
0.4031914893617021 0.4442256252073354 0.4655593551538837
0.4034042553191489 0.4457312223909143 0.46389261737459625
0.40361702127659577 0.44508920995550244 0.4645346298100081
0.40382978723404256 0.4431744695405602 0.4651242326587032
0.40404255319148935 0.44406448461162684 0.4606741573033708
0.40425531914893614 0.4445684969077904 0.4606741573033708
0.404468085106383 0.4456304762301399 0.4606741573033708
0.4046808510638298 0.44451671630910716 0.4606741573033708
0.4048936170212766 0.44540074676760616 0.4613422883813605
0.4051063829787234 0.4460185637518319 0.46246020764186047
0.4053191489361702 0.4483315965210474 0.4649412692127914
0.405531914893617 0.4498039896134023 0.4655593551538837
0.4057446808510638 0.45092054146208266 0.46645249542529693
0.40595744680851065 0.45188080117244755 0.4607149071687393
0.40617021276595744 0.45158509984799405 0.45490185547949746
0.40638297872340423 0.4513417450343504 0.4511059070145282
0.4065957446808511 0.45188080117244755 0.4460504634205037
0.40680851063829787 0.45260307882973183 0.4462313175834796
0.40702127659574466 0.4554524642237691 0.4435361053469758
0.4072340425531915 0.45481191988275516 0.4430874450415241
0.4074468085106383 0.45481191988275516 0.44337898229100414
0.4076595744680851 0.45509439628348314 0.4458889533839131
0.4078723404255319 0.4574810140419308 0.44754962924476893
0.40808510638297874 0.45801087404942775 0.44587144086604086
0.4082978723404255 0.45747033236397106 0.4450415241817294
0.4085106382978723 0.4592354956813602 0.4457877527258779
0.40872340425531917 0.4579893837253887 0.4451646967478922
0.40893617021276596 0.45965891782479046 0.4479726428920372
0.40914893617021275 0.4580657242508375 0.4479726428920372
0.40936170212765954 0.45999950415074203 0.44585593796972073
0.4095744680851064 0.4611179570252398 0.442464765066926
0.4097872340425532 0.4604805930610902 0.442308578893052
0.41 0.4589707025116761 0.440406950679727
0.4102127659574468 0.4604608256608908 0.4375452050846287
0.4104255319148936 0.4586883286239042 0.4391475372218524
0.4106382978723404 0.45791384859329276 0.4382022471910112
0.41085106382978726 0.4587200781631655 0.43726379651306685
0.41106382978723405 0.45826595853097096 0.4348170088485088
0.41127659574468084 0.457743038593063 0.4348868992155616
0.41148936170212763 0.45556292887856775 0.4359978317188686
0.4117021276595745 0.45481191988275516 0.43624816805080613
0.41191489361702127 0.4576950336243815 0.4382262496753519
0.41212765957446806 0.4558310668354378 0.43915823306982377
0.4123404255319149 0.4558360605360802 0.441274669150986
0.4125531914893617 0.457743038593063 0.44590349230854937
0.4127659574468085 0.457743038593063 0.43927750641446717
0.4129787234042553 0.457743038593063 0.43852546181388297
0.41319148936170214 0.457743038593063 0.4390168172025299
0.41340425531914893 0.457743038593063 0.439609157398748
0.4136170212765957 0.4585877930763705 0.441001080814524
0.41382978723404257 0.454797392235576 0.4440717484352164
0.41404255319148936 0.4529592483737328 0.4451429318129121
0.41425531914893615 0.45342418577475746 0.4462239110207795
0.414468085106383 0.45188080117244755 0.44665630519722627
0.4146808510638298 0.450447777945098 0.4455408893427154
0.4148936170212766 0.4507958472908631 0.4438107476292471
0.4151063829787234 0.4475795460364943 0.44738870017747734
0.4153191489361702 0.4510894305620725 0.4447239601202727
0.415531914893617 0.4460823931354208 0.4459972872906356
0.4157446808510638 0.44516940109140235 0.4441923615212998
0.41595744680851066 0.44574708374053945 0.44531300419302183
0.41617021276595745 0.4442179255893792 0.44643036304800693
0.41638297872340424 0.4447493005579465 0.44810350699954943
0.4165957446808511 0.44532201883308564 0.44894968246213973
0.4168085106382979 0.44420109975547845 0.44979010688839066
0.41702127659574467 0.4431941940440402 0.44644555976189637
0.41723404255319146 0.4422633121303724 0.4460185637518319
0.4174468085106383 0.44211040547142155 0.44512242715017264
0.4176595744680851 0.4420743242790914 0.4440825252077919
0.4178723404255319 0.4382367972106958 0.4460012887419896
0.41808510638297874 0.44099155757450165 0.44508879362400183
0.41829787234042554 0.44307365187802433 0.4431288245320234
0.41851063829787233 0.44211040547142155 0.4464321778462655
0.4187234042553191 0.44191866384579015 0.4510771717860308
0.41893617021276597 0.44274217552894607 0.45532929955925017
0.41914893617021276 0.4467252331655499 0.45445858517589627
0.41936170212765955 0.4423424950516798 0.4569207254097993
0.4195744680851064 0.4439890622818342 0.4580184368965688
0.4197872340425532 0.44464086934231234 0.4587200781631655
0.42 0.4435304515500677 0.4587200781631655
0.42021276595744683 0.44352185002246586 0.4600232931059906
0.4204255319148936 0.44495287689999213 0.46165119687347334
0.4206382978723404 0.44828414307462583 0.4611839465995904
0.4208510638297872 0.44961226284972083 0.459034537345687
0.42106382978723406 0.4479887524985926 0.4606580476968154
0.42127659574468085 0.4459114471230317 0.45966141219033485
0.42148936170212764 0.44324955867253446 0.45855796453215514
0.4217021276595745 0.44406448461162684 0.4571708398199477
0.4219148936170213 0.44322631371528654 0.4557889594528579
0.4221276595744681 0.4443381128001615 0.4557889594528579
0.42234042553191486 0.4411567155082033 0.455094409703768
0.4225531914893617 0.44081743432316484 0.45481191988275516
0.4227659574468085 0.4392280208228672 0.4576699375004327
0.4229787234042553 0.43917928676111373 0.45698692823996845
0.42319148936170214 0.43968121813346 0.4589710438493387
0.42340425531914894 0.4417763022279881 0.45873271324326464
0.42361702127659573 0.44340067961108237 0.45770570273163524
0.4238297872340426 0.44406448461162684 0.45969711773326827
0.42404255319148937 0.44462020391254853 0.45802995983050304
0.42425531914893616 0.45057597697925267 0.4560741924232701
0.42446808510638295 0.44955646136327565 0.45661430429767647
0.4246808510638298 0.4499150928814259 0.4577314094422466
0.4248936170212766 0.44969173649884164 0.45602394498625853
0.4251063829787234 0.44845929935233425 0.45725638213276587
0.42531914893617023 0.4515043482331292 0.4551122131981474
0.425531914893617 0.450652776986171 0.4557889594528579
0.4257446808510638 0.4503050514006347 0.4534565509442604
0.4259574468085106 0.4497381752429924 0.4525950098155992
0.42617021276595746 0.4497455361128702 0.4528578407425501
0.42638297872340425 0.4460965766649876 0.4520918116690992
0.42659574468085104 0.4463836977101649 0.45120971440822966
0.4268085106382979 0.44699560332193444 0.4526222372385334
0.4270212765957447 0.4474926229562921 0.4523438214095798
0.4272340425531915 0.44935651356836237 0.45228763227866997
0.4274468085106383 0.4517669194047194 0.45447027457957073
0.4276595744680851 0.4509053874875697 0.45188567882812225
0.4278723404255319 0.4595322560366368 0.44996335796482706
0.4280851063829787 0.4557889594528579 0.4537896342105608
0.42829787234042555 0.45591308001497494 0.4528578407425501
0.42851063829787234 0.4569440230307632 0.45232376871914187
0.42872340425531913 0.457743038593063 0.4504163818790751
0.428936170212766 0.45820267855026875 0.4538348803126526
0.42914893617021277 0.46208889037777523 0.45410455334555294
0.42936170212765956 0.4596059412701012 0.45534602789939005
0.42957446808510635 0.4618518881356502 0.45357609754334405
0.4297872340425532 0.4600606489105056 0.4528578407425501
0.43 0.4601707883179749 0.4528578407425501
0.4302127659574468 0.46034093443462504 0.45350165744390686
0.43042553191489363 0.4614591204575883 0.45147999085
0.4306382978723404 0.4607259582697927 0.4490532843949835
0.4308510638297872 0.464489720144087 0.45099635704203894
0.43106382978723407 0.4631353127686132 0.4509408746823168
0.43127659574468086 0.46165119687347334 0.4479726428920372
0.43148936170212765 0.4605437039937914 0.44760347859880983
0.43170212765957444 0.4592246047564959 0.44750012991526483
0.4319148936170213 0.46163828756679487 0.4473255862808615
0.4321276595744681 0.4602558008044712 0.4477864152016362
0.4323404255319149 0.4587680185048915 0.44518534520690733
0.4325531914893617 0.4589910136355771 0.44397417278748963
0.4327659574468085 0.46097285836390983 0.44263521936848177
0.4329787234042553 0.4590858801101084 0.441133365901319
0.4331914893617021 0.45969711773326827 0.4396154732311626
0.43340425531914895 0.46227083654433065 0.44013253629930804
0.43361702127659574 0.46110230794435747 0.4436363339706402
0.43382978723404253 0.4585888773770876 0.44116268293509725
0.4340425531914894 0.4559499035165466 0.4387999588831833
0.43425531914893617 0.4555492201686507 0.4443403887623816
0.43446808510638296 0.4557889594528579 0.43813509110090987
0.4346808510638298 0.45598947738459517 0.4371048968618663
0.4348936170212766 0.4606741573033708 0.4335720573965243
0.4351063829787234 0.4600426635869375 0.43007018377197387
0.4353191489361702 0.45916755191824454 0.4307513123253248
0.43553191489361703 0.45969711773326827 0.43291465594541273
0.4357446808510638 0.45969711773326827 0.4354597611229007
0.4359574468085106 0.45969711773326827 0.4405184814088676
0.43617021276595747 0.454780234698325 0.4431349728181693
0.43638297872340426 0.4524638558417301 0.44667520525319854
0.43659574468085105 0.4495193613994385 0.45110744191874674
0.43680851063829784 0.4479726428920372 0.45188080117244755
0.4370212765957447 0.4479726428920372 0.45188080117244755
0.4372340425531915 0.4476617915381698 0.4515699498185802
0.4374468085106383 0.44835054106265143 0.44981981140977123
0.4376595744680851 0.4492143261873616 0.44661467832406504
0.4378723404255319 0.4446140877116498 0.4464460002219115
0.4380851063829787 0.4436160210200611 0.4478925305050658
0.43829787234042555 0.44538759033887 0.45124982775948563
