0.0 0.4479726428920372 0.4430874450415241
0.0002127659574468085 0.44838955592527785 0.4443381841412462
0.000425531914893617 0.44880646895851856 0.44558892324096827
0.0006382978723404255 0.4495894639317474 0.4466583452214396
0.000851063829787234 0.44992672203224227 0.4490434717138279
0.0010638297872340426 0.45123701943717204 0.4545127629494963
0.001276595744680851 0.4535971490205228 0.4539054192761683
0.0014893617021276596 0.4542342106208759 0.45361392895808544
0.001702127659574468 0.4552101735453954 0.45206133341726984
0.0019148936170212765 0.4533676809715597 0.4484824831210468
0.002127659574468085 0.4528578407425501 0.44525173308537364
0.002340425531914894 0.45366834907794135 0.4490745808881732
0.002553191489361702 0.44992672203224227 0.4525248219228283
0.0027659574468085106 0.45073721532486133 0.45740994603809604
0.0029787234042553193 0.4528578407425501 0.4624176264577852
0.0031914893617021275 0.4518316891772322 0.46514450336165525
0.003404255319148936 0.45025939898567857 0.46524766949065377
0.003617021276595745 0.44534708670897 0.4668721332454174
0.003829787234042553 0.44406448461162684 0.467513434294089
0.004042553191489362 0.4460562262971808 0.47735915508581245
0.00425531914893617 0.4479759794737992 0.47972809721125237
0.004468085106382979 0.4519812025922431 0.48187681512885866
0.004680851063829788 0.44992672203224227 0.4803376993891239
0.004893617021276595 0.44992672203224227 0.4753013059349017
0.005106382978723404 0.4486264969005162 0.47044829444701264
0.005319148936170213 0.44998821830853997 0.464092645656953
0.005531914893617021 0.4501453276245822 0.4555837250513722
0.00574468085106383 0.44927349474781964 0.45252842574380736
0.005957446808510639 0.4515328452443342 0.4531723825635447
0.006170212765957446 0.4536113671310776 0.4560954594782352
0.006382978723404255 0.45295544216526595 0.4620426279072808
0.006595744680851064 0.45178710390241167 0.4706944123911589
0.006808510638297872 0.44908587965359165 0.4779884751823135
0.007021276595744681 0.450193649879921 0.47523907903429724
0.00723404255319149 0.45209832129268185 0.47160225901771047
0.007446808510638298 0.45225533517831085 0.46570591760137137
0.007659574468085106 0.4515602456387323 0.4570558086187615
0.007872340425531916 0.45188080117244755 0.45086228100942205
0.008085106382978723 0.4491108717925894 0.4453101730658121
0.008297872340425531 0.44991476906840766 0.44021609115038945
0.00851063829787234 0.4479726428920372 0.43716249441483573
0.008723404255319148 0.4479726428920372 0.4360644126701799
0.008936170212765958 0.4479726428920372 0.43590114047724793
0.009148936170212766 0.4484136702767631 0.4381072623903604
0.009361702127659575 0.44839633959550385 0.44028597249438556
0.009574468085106383 0.4473258362336538 0.4404865592429358
0.00978723404255319 0.44699560332193444 0.4378713130911842
0.01 0.44699560332193444 0.4381212516132952
0.010212765957446808 0.4478663696277629 0.43429408891060084
0.010425531914893617 0.4460185637518319 0.4336587085935496
0.010638297872340425 0.4457369157023501 0.4306675786796723
0.010851063829787235 0.445458519358416 0.43177996537697977
0.011063829787234043 0.446573910058522 0.4334507023837759
0.01127659574468085 0.4463004366875004 0.4356844221794691
0.01148936170212766 0.45596094830623174 0.43873376418940596
0.011702127659574468 0.45003191365357037 0.44303484923086006
0.011914893617021277 0.44516285853865684 0.4428447763276692
0.012127659574468085 0.44576133954423247 0.4403616932785207
0.012340425531914893 0.4454357634706696 0.4385964864799514
0.012553191489361702 0.4454979733234091 0.43865869633269094
0.01276595744680851 0.44377764049445756 0.4413619564091905
0.01297872340425532 0.4453450048784376 0.4453450048784376
0.013191489361702127 0.44687937885672707 0.44946182417141284
0.013404255319148937 0.44992672203224227 0.4508706132849374
0.013617021276595745 0.44992672203224227 0.4481986879724984
0.013829787234042552 0.44910346054711664 0.4429668026314594
0.014042553191489362 0.44781011380872054 0.4401563263312165
0.01425531914893617 0.4505721612365895 0.43691136878231696
0.01446808510638298 0.448492074751205 0.4376828153318432
0.014680851063829787 0.4502313243049511 0.44160607749837627
0.014893617021276596 0.4480710948559157 0.44683151671547033
0.015106382978723404 0.4498485313838421 0.4565708659368594
0.015319148936170212 0.45022789949351566 0.4659854274976757
0.015531914893617021 0.45446395350872737 0.46786140066811677
0.01574468085106383 0.4538348803126526 0.4684904738641915
0.015957446808510637 0.4538348803126526 0.4666260277537819
0.016170212765957447 0.4576473080773337 0.45945947073039384
0.016382978723404256 0.4542198531444226 0.45234276857057154
0.016595744680851062 0.4548710245162027 0.4438871707112842
0.01680851063829787 0.45521261626985066 0.4397885651409688
0.01702127659574468 0.45545722179180187 0.43266947575481846
0.01723404255319149 0.45758453158540935 0.4267606404446924
0.017446808510638297 0.4538348803126526 0.4218741818374722
0.017659574468085106 0.4538348803126526 0.4206155349291647
0.017872340425531916 0.45304427909744566 0.42219673735957863
0.018085106382978722 0.4537711601870441 0.42256961406936977
0.01829787234042553 0.45299267887549144 0.4262755151503681
0.01851063829787234 0.45421022696773644 0.42334608933446605
0.01872340425531915 0.4535568359920554 0.42223440710544824
0.018936170212765956 0.4548977360663117 0.42019137728178063
0.019148936170212766 0.4528578407425501 0.41806311898084314
0.019361702127659575 0.4521318666613901 0.419862338462337
0.01957446808510638 0.45188080117244755 0.4256159004992546
0.01978723404255319 0.4528040136857325 0.4357098974826301
0.02 0.4470066337076808 0.4460957764520562
0.02021276595744681 0.4492583229063608 0.4603761267105546
0.020425531914893616 0.4538992469658226 0.4707020196170767
0.020638297872340425 0.45612287594061734 0.48294077554443937
0.020851063829787235 0.45188080117244755 0.4880312652662433
0.02106382978723404 0.4521529988202766 0.4880312652662433
0.02127659574468085 0.4528578407425501 0.4880312652662433
0.02148936170212766 0.4528578407425501 0.48748638611870354
0.02170212765957447 0.4534688682363628 0.4841836053152163
0.021914893617021276 0.45351274159018795 0.47827149296792587
0.022127659574468085 0.45243794851445307 0.4700327876626713
0.022340425531914895 0.4535387516068871 0.46138523651505525
0.0225531914893617 0.4522138080873126 0.45547793371248524
0.02276595744680851 0.4509355467264429 0.44724988431471935
0.02297872340425532 0.4588192738808042 0.4471906797335931
0.023191489361702126 0.45113366804578536 0.44894968246213973
0.023404255319148935 0.45115282807379636 0.45040562865944206
0.023617021276595745 0.4509244899061086 0.4573477961749483
0.023829787234042554 0.4525132964109403 0.4635486825889516
0.02404255319148936 0.4528578407425501 0.4653470765630184
0.02425531914893617 0.4528578407425501 0.46916623259447693
0.02446808510638298 0.45193321243145157 0.4755393958909257
0.024680851063829785 0.4527066984838032 0.4796157647821873
0.024893617021276595 0.4510833137929319 0.48322534603289774
0.025106382978723404 0.45247806714341127 0.4783420101788744
0.025319148936170214 0.4526085630346722 0.4734453834430579
0.02553191489361702 0.4493151261504033 0.4657606973797636
0.02574468085106383 0.45290432338716763 0.46077885625790205
0.02595744680851064 0.4507172402518169 0.4546253985322273
0.026170212765957445 0.4480923874360368 0.45714431587306503
0.026382978723404255 0.44505598549077646 0.44788587503775457
0.026595744680851064 0.446308059808786 0.4419656574429445
0.026808510638297874 0.4479726428920372 0.4392025975941254
0.02702127659574468 0.44878861404076253 0.4310302043156992
0.02723404255319149 0.4483034502515129 0.4194435946332864
0.0274468085106383 0.44497528479212545 0.40569498381921015
0.027659574468085105 0.44168661087095756 0.3917476635543155
0.027872340425531914 0.44460920155049355 0.3858744330367073
0.028085106382978724 0.44872880631889706 0.3808330077340117
0.028297872340425533 0.44414631630558615 0.3818203630539188
0.02851063829787234 0.44584697996906475 0.389231148029615
0.02872340425531915 0.44534138296371545 0.398356026260056
0.02893617021276596 0.44559721313778256 0.41239620334233223
0.029148936170212764 0.4450415241817294 0.42136041507733046
0.029361702127659574 0.44564425922535145 0.43069691765513496
0.029574468085106383 0.4460185637518319 0.43916798988292005
0.029787234042553193 0.4486103706364776 0.44545304404239505
0.03 0.4470366157617883 0.45110882380161416
0.03021276595744681 0.44923813271843643 0.4621164085848544
0.030425531914893618 0.4514582609316798 0.4734942993157387
0.030638297872340424 0.4532658235895305 0.4836398853574079
0.030851063829787233 0.4538348803126526 0.49353736131522025
0.031063829787234043 0.4545080524726344 0.5068567664571537
0.03127659574468085 0.4580359217919995 0.5161451787197803
0.03148936170212766 0.45965734743615383 0.529526952918167
0.03170212765957447 0.45765215984853924 0.5449039444408992
0.031914893617021274 0.4576466954381555 0.5575249056924183
0.03212765957446809 0.45962022747944203 0.5613092330239375
0.03234042553191489 0.4587004552215571 0.5570008581957141
0.0325531914893617 0.4585932981288249 0.5420295906508026
0.03276595744680851 0.457743038593063 0.5243903744075892
0.03297872340425532 0.45544431166425603 0.5047379276270823
0.033191489361702124 0.45309799206570917 0.4861643932326853
0.03340425531914894 0.4518930192481529 0.46868596307547655
0.03361702127659574 0.4517714825998876 0.45556349472480095
0.033829787234042556 0.45110709997198695 0.4439851800554107
0.03404255319148936 0.450568580949706 0.43296761749395213
0.03425531914893617 0.4475190779616837 0.42375638276765987
0.03446808510638298 0.4475766550542112 0.4194534314646114
0.03468085106382979 0.448681993377823 0.4172427548173879
0.03489361702127659 0.4481042917880557 0.41839815799692237
0.035106382978723406 0.4479726428920372 0.42158791097277465
0.03531914893617021 0.44725886028383116 0.42784969736272777
0.03553191489361702 0.44894968246213973 0.43245896198506134
0.03574468085106383 0.44894968246213973 0.43937912039828236
0.03595744680851064 0.44947257193103307 0.44322492377689254
0.036170212765957444 0.44992672203224227 0.44569393231752263
0.036382978723404256 0.44992672203224227 0.4483710721561528
0.03659574468085106 0.44992672203224227 0.44986819006439543
0.03680851063829787 0.4498516998949905 0.4466955147729274
0.03702127659574468 0.44915206388993545 0.4434922078971155
0.03723404255319149 0.44992672203224227 0.4444478835576249
0.0374468085106383 0.44992672203224227 0.441620674917646
0.03765957446808511 0.4494312397212144 0.438188322139058
0.03787234042553191 0.4470676629409772 0.43722520762090866
0.038085106382978726 0.4467759800688538 0.4334381260357992
0.03829787234042553 0.4496678577441344 0.43323076124446236
0.03851063829787234 0.44620600897698 0.4370846237020476
0.03872340425531915 0.44958880037799365 0.43412512808347653
0.03893617021276596 0.4482730849487145 0.4336174913971756
0.03914893617021276 0.44894968246213973 0.4355892776525335
0.039361702127659576 0.4495120279448326 0.43947458955168023
0.03957446808510638 0.44992672203224227 0.4383493411849448
0.03978723404255319 0.44909442108348513 0.4347283047746371
0.04 0.44894968246213973 0.43332693911092773
0.04021276595744681 0.4460185637518319 0.4323400097703958
0.04042553191489362 0.44679525085051996 0.4323400097703958
0.040638297872340426 0.4473721211259885 0.4331287904384713
0.04085106382978723 0.4466240689949115 0.4369316635992377
0.041063829787234045 0.4479726428920372 0.44182150599118564
0.04127659574468085 0.44954248362747173 0.447796967247828
0.04148936170212766 0.4480969526106368 0.44620502832973136
0.04170212765957447 0.4500608967931781 0.44635400065417147
0.041914893617021276 0.4515577459118181 0.4505807063417154
0.04212765957446808 0.44875429800661204 0.44894968246213973
0.042340425531914895 0.4468691662477592 0.45065088745399423
0.0425531914893617 0.4479726428920372 0.4528578407425501
0.04276595744680851 0.4472758866030721 0.45425135332048
0.04297872340425532 0.44782605438250084 0.457303273064454
0.043191489361702126 0.4489350959130093 0.45389322650917435
0.04340425531914894 0.44871541815809524 0.4611826682653844
0.043617021276595745 0.447245633322625 0.457743038593063
0.04382978723404255 0.4483579942565319 0.45812838995755767
0.044042553191489364 0.44894968246213973 0.4587200781631655
0.04425531914893617 0.4509233352286368 0.4587200781631655
0.044468085106382976 0.44950188558662146 0.4539622469915135
0.04468085106382979 0.4541477169718877 0.44679346714784396
0.044893617021276595 0.44893871128581325 0.4449756971237706
0.0451063829787234 0.44810971340328654 0.4382197931823683
0.045319148936170214 0.4487141835593154 0.4316335130619228
0.04553191489361702 0.44906996608122 0.43087198864566517
0.045744680851063826 0.44940307299552873 0.434317508411709
0.04595744680851064 0.4486047279119908 0.43653529852061074
0.046170212765957445 0.450477288738723 0.44333563272724213
0.04638297872340425 0.4517987314477721 0.45578116232685517
0.046595744680851064 0.45105685915543337 0.4670467199009481
0.04680851063829787 0.4538348803126526 0.4770555959600098
0.047021276595744683 0.4554441276901569 0.48182419608292687
0.04723404255319149 0.4573502985394837 0.48692651938751125
0.047446808510638296 0.455197334014165 0.48900830483634583
0.04765957446808511 0.4562611378655005 0.4948051767673268
0.047872340425531915 0.4550489388059739 0.4985416816141531
0.04808510638297872 0.45479416386937715 0.4998977882144983
0.048297872340425534 0.4536838591761452 0.5074210355317876
0.04851063829787234 0.4528578407425501 0.5071665619070643
0.048723404255319146 0.4528578407425501 0.5077280552369114
0.04893617021276596 0.4512727285849365 0.505009904940579
0.049148936170212765 0.4524756594668459 0.4985660235186774
0.04936170212765957 0.4523226889529428 0.49811586886662884
0.049574468085106384 0.4501102312666698 0.4943522757729276
0.04978723404255319 0.44894968246213973 0.48977821946843664
0.05 0.44907386070558164 0.48362639401206536
0.05021276595744681 0.44916177575160643 0.479704984518332
0.050425531914893615 0.44583150965863794 0.476320713459723
0.05063829787234043 0.44563137468643016 0.4712864849482999
0.050851063829787234 0.447653327117036 0.4642057230734825
0.05106382978723404 0.4463820103012751 0.4576746153965684
0.05127659574468085 0.44694629444750095 0.4511996148489456
0.05148936170212766 0.4450415241817294 0.4475568117927264
0.051702127659574465 0.4459172969478483 0.4430874450415241
0.05191489361702128 0.44789227774630136 0.4448497862345881
0.052127659574468084 0.4460185637518319 0.44458222451958274
0.05234042553191489 0.44725530695662835 0.4423701091061153
0.0525531914893617 0.4472324227849064 0.4408667847201321
0.05276595744680851 0.44699560332193444 0.4401563263312165
0.05297872340425532 0.44705416242042323 0.43124585200331544
0.05319148936170213 0.45104904915009164 0.4228202159007381
0.053404255319148934 0.45025191346411103 0.4164896055111774
0.05361702127659575 0.44723887662123313 0.40759097157640223
0.05382978723404255 0.44894968246213973 0.3997681499479456
0.05404255319148936 0.44894968246213973 0.3903959704454123
0.05425531914893617 0.4497607546436075 0.3857740451827411
0.05446808510638298 0.4490155968200577 0.3827087347689176
0.054680851063829784 0.44986952473466446 0.3953887835105104
0.0548936170212766 0.4516585622412023 0.3987873059900399
0.0551063829787234 0.45349772670409605 0.4015460526843806
0.05531914893617021 0.44986608678081874 0.39967050697811507
0.05553191489361702 0.451453280472029 0.39995519705687066
0.05574468085106383 0.4536981914609713 0.39555422823570063
0.055957446808510634 0.4528381839711061 0.3893207835287158
0.05617021276595745 0.4510996398292259 0.38641914997557403
0.05638297872340425 0.45305967604261344 0.38702465587576407
0.056595744680851066 0.4541344711909974 0.3908482230776061
0.05680851063829787 0.45410036556474 0.39921634676250106
0.05702127659574468 0.45176399575641973 0.4144770904346128
0.05723404255319149 0.4489375672669557 0.4281384788204417
0.0574468085106383 0.4473232570690855 0.4388871630420653
0.057659574468085104 0.4486778992392162 0.4569792855040324
0.05787234042553192 0.44913195902121367 0.4710570394563513
0.05808510638297872 0.44887213860301267 0.47787315026958194
0.05829787234042553 0.4476825353173904 0.48449257944464147
0.05851063829787234 0.44593506833574015 0.4874175023570543
0.05872340425531915 0.447468099861294 0.4908982909937836
0.058936170212765954 0.4471505775559076 0.49250543044869144
0.05914893617021277 0.4460185637518319 0.4884366540777164
0.05936170212765957 0.4460185637518319 0.4800113913618896
0.059574468085106386 0.44707275625387505 0.46990448248081323
0.05978723404255319 0.44821884467279 0.4638514777944314
0.06 0.4486431318183199 0.4642757649399613
0.06021276595744681 0.44894968246213973 0.4657046642041749
0.06042553191489362 0.4495923966300152 0.4700972592838803
0.06063829787234042 0.4505185771632811 0.4745312250318956
0.060851063829787236 0.4508386291758562 0.4763067904250122
0.06106382978723404 0.44984166743765464 0.475797006991314
0.06127659574468085 0.449610476571449 0.47478380629510564
0.06148936170212766 0.4509037616023448 0.47052979232199305
0.06170212765957447 0.451386056039734 0.46558425654453256
0.06191489361702127 0.45228042726855766 0.46400490210978873
0.062127659574468086 0.45246811504981277 0.4634131385055691
0.06234042553191489 0.4509402065472997 0.4578888183728821
0.0625531914893617 0.45047847618266573 0.4477655846579942
0.0627659574468085 0.44899742467584186 0.437368434262015
0.06297872340425532 0.4494196852737601 0.4263353558111243
0.06319148936170213 0.44682043467370364 0.4134512197242217
0.06340425531914894 0.4493198432433071 0.4034172603723196
0.06361702127659574 0.44992672203224227 0.40025748381670445
0.06382978723404255 0.44505682090303456 0.40205178309721545
0.06404255319148935 0.44581928383815095 0.401952143140375
0.06425531914893617 0.4444309462786073 0.4010747435271129
0.06446808510638298 0.4455606829018466 0.40015898182714216
0.06468085106382979 0.44425431058086123 0.3974513242005541
0.06489361702127659 0.44530743661103117 0.3990310132458091
0.0651063829787234 0.44636056264120116 0.400610702291064
0.06531914893617022 0.4474136886713712 0.40219039133631906
0.06553191489361702 0.4487032930845024 0.41216195007313333
0.06574468085106383 0.45013858402094487 0.4363530154453928
0.06595744680851064 0.45135331726764516 0.4750090310110462
0.06617021276595744 0.45361115537863045 0.5036044531218898
0.06638297872340425 0.45608692046907084 0.5273761440169181
0.06659574468085107 0.4577658632823358 0.5365499556849143
0.06680851063829787 0.4589178751095946 0.5359062042012701
0.06702127659574468 0.457743038593063 0.5359062042012701
0.06723404255319149 0.45964122497310667 0.5306861916561498
0.06744680851063829 0.46213317932179676 0.5251587689301416
0.06765957446808511 0.46179733248916544 0.5227583797285115
0.06787234042553192 0.4600720568718777 0.5177742501674579
0.06808510638297872 0.45834678125458994 0.5127901206064045
0.06829787234042553 0.4566215056373022 0.507805991045351
0.06851063829787234 0.45489623002001445 0.5028218614842974
0.06872340425531914 0.45402322008462015 0.4988140412476368
0.06893617021276596 0.45451263917714707 0.4963669457850019
0.06914893617021277 0.4526641440627639 0.4921091162026869
0.06936170212765957 0.4483522824988618 0.48544445344799697
0.06957446808510638 0.4508600928489739 0.48126476953114333
0.06978723404255319 0.4490321606686876 0.4802561878086965
0.06999999999999999 0.44695648963823453 0.4733365580310045
0.07021276595744681 0.4453621838354956 0.47086043818040846
0.07042553191489362 0.44894968246213973 0.46333643193531193
0.07063829787234042 0.4503660083598107 0.4568932430544604
0.07085106382978723 0.4520024523120583 0.4533459774822797
0.07106382978723404 0.44894968246213973 0.4504638667234914
0.07127659574468086 0.44894968246213973 0.44992672203224227
0.07148936170212766 0.4501820918713837 0.4511591314414862
0.07170212765957447 0.4522068584440623 0.4531838980141648
0.07191489361702127 0.4492219560267111 0.4471690916669479
0.07212765957446808 0.44831520860282015 0.4417678397606385
0.07234042553191489 0.45038236548856386 0.4394728611467341
0.0725531914893617 0.45188080117244755 0.4372865488448906
0.07276595744680851 0.45200598346485493 0.43795188260619644
0.07297872340425532 0.4526714835718323 0.43550273936793493
0.07319148936170213 0.4520769073230043 0.43253611592095254
0.07340425531914893 0.45272944202274223 0.43318865062069045
0.07361702127659574 0.4524261195099226 0.43161291865376233
0.07382978723404256 0.45412833538130815 0.4266089594861266
0.07404255319148936 0.45324633410918513 0.42143485469120723
0.07425531914893617 0.4557781041498186 0.42387595193051963
0.07446808510638298 0.45491847036653055 0.42199531641719334
0.07468085106382978 0.45538727929390316 0.41802909615112116
0.0748936170212766 0.4531767297444479 0.4202559007984485
0.07510638297872341 0.454432915448875 0.424742723911917
0.07531914893617021 0.4553897413254158 0.4294509025570929
0.07553191489361702 0.4523528045975815 0.4333236558844652
0.07574468085106383 0.4509622405841121 0.43843616311808
0.07595744680851063 0.4529700822228668 0.439931843370583
0.07617021276595745 0.45131021567556523 0.44009574566882675
0.07638297872340426 0.45132139082884426 0.44183070029961996
0.07659574468085106 0.4554656821646025 0.4385255244792666
0.07680851063829787 0.45567625715159943 0.43559059481386714
0.07702127659574468 0.45458647452035444 0.43474497963540226
0.0772340425531915 0.4540449237556022 0.43582808116490696
0.0774468085106383 0.4535033729908499 0.43691118269441154
0.07765957446808511 0.45296182222609765 0.4379942842239162
0.07787234042553191 0.45242027146134534 0.4390773857534208
0.07808510638297872 0.45188080117244755 0.4401490298060732
0.07829787234042553 0.45188080117244755 0.43824973414113383
0.07851063829787235 0.44999696159399327 0.4410280065586925
0.07872340425531915 0.4489711754633843 0.43540008648817075
0.07893617021276596 0.45093160614348266 0.43521543939842766
0.07914893617021276 0.45193490206043335 0.4333170493404983
0.07936170212765957 0.4527827720315473 0.4333170493404983
0.07957446808510638 0.44908536521666864 0.43614640598490945
0.0797872340425532 0.4519008124576524 0.4412734448977531
0.08 0.45264435010781257 0.44839962416151224
0.08021276595744681 0.4501992957602015 0.45356230658469343
0.08042553191489361 0.4519664445080069 0.45188080117244755
0.08063829787234042 0.4525048092701672 0.45188080117244755
0.08085106382978724 0.45304317403232747 0.45188080117244755
0.08106382978723405 0.4535815387944877 0.45188080117244755
0.08127659574468085 0.45411990355664794 0.45188080117244755
0.08148936170212766 0.4546582683188082 0.45188080117244755
0.08170212765957446 0.4519583690899685 0.4507393808553328
0.08191489361702127 0.4490291175577187 0.45082432650676596
0.08212765957446809 0.4482409191860284 0.45214907746643873
0.0823404255319149 0.4488769046705832 0.4527850629509936
0.0825531914893617 0.447427468920288 0.453238394128013
0.08276595744680851 0.445708554691939 0.4536681226851002
0.08297872340425531 0.4469688413061767 0.4531924412711702
0.08319148936170212 0.4494566701176531 0.45359985435535805
0.08340425531914894 0.44992672203224227 0.45638559762447567
0.08361702127659575 0.4470355317221754 0.45676599902296044
0.08382978723404255 0.44319779785595803 0.46023274604563513
0.08404255319148936 0.44406448461162684 0.4574548652060267
0.08425531914893616 0.44371181533934023 0.45934444846098166
0.08446808510638298 0.4449879448817468 0.4601454530433326
0.08468085106382979 0.44699560332193444 0.46341345533946
0.0848936170212766 0.44699560332193444 0.4688139825447058
0.0851063829787234 0.443670842155579 0.4704445530043966
0.08531914893617021 0.44722197687186926 0.47457908483474176
0.08553191489361701 0.4479726428920372 0.4716152733442319
0.08574468085106383 0.44894968246213973 0.46729236783158706
0.08595744680851064 0.4495290326833378 0.46400296536258306
0.08617021276595745 0.4512423379832252 0.45941657571119526
0.08638297872340425 0.45037596969860355 0.45481191988275516
0.08659574468085106 0.4497487789110054 0.4513469718087368
0.08680851063829788 0.4496524075032763 0.44543605725645674
0.08702127659574468 0.45241965209649143 0.4424025312354607
0.08723404255319149 0.4461337409485329 0.4440315768411408
0.0874468085106383 0.44623875903613197 0.4458122076767796
0.0876595744680851 0.4473940558318891 0.45265225058597824
0.08787234042553191 0.44474407624202994 0.45683002724180577
0.08808510638297873 0.44416449775315964 0.46241282590124877
0.08829787234042553 0.44803880149353903 0.4618496726779788
0.08851063829787234 0.44832167768078424 0.4626983012397145
0.08872340425531915 0.44860455386802944 0.4635469298014502
0.08893617021276595 0.44888743005527465 0.4643955583631859
0.08914893617021276 0.44917030624251986 0.46524418692492164
0.08936170212765958 0.4494531824297651 0.4660928154866574
0.08957446808510638 0.4497360586170103 0.4669414440483931
0.08978723404255319 0.44992672203224227 0.46731215725083
0.09 0.44992672203224227 0.4666947104337133
0.0902127659574468 0.4520786785819727 0.47084030782344705
0.09042553191489362 0.45140837083758495 0.4712390562206297
0.09063829787234043 0.4494248742201557 0.46965225892668633
0.09085106382978723 0.4479726428920372 0.4676447404796071
0.09106382978723404 0.4479726428920372 0.46448716677524093
0.09127659574468085 0.4486441093439339 0.46091941020609173
0.09148936170212765 0.4503034672329211 0.4556357634209239
0.09170212765957447 0.4487665401035649 0.45098525164761266
0.09191489361702128 0.44948186580188354 0.44992672203224227
0.09212765957446808 0.44992672203224227 0.44507602571341864
0.09234042553191489 0.4490553733415298 0.44406448461162684
0.0925531914893617 0.44894968246213973 0.44406448461162684
0.0927659574468085 0.4517889674771494 0.44406448461162684
0.09297872340425532 0.4538348803126526 0.4430687268478459
0.09319148936170213 0.4538348803126526 0.4419338919444984
0.09340425531914893 0.4538348803126526 0.44196783235647447
0.09361702127659574 0.4538348803126526 0.44480048734057126
0.09382978723404255 0.45204183663975184 0.44235195867237803
0.09404255319148937 0.45188080117244755 0.441087308458382
0.09425531914893617 0.45144085532411593 0.4393259353772243
0.09446808510638298 0.4500411740568042 0.4393377076352181
0.09468085106382979 0.45402286834012756 0.43839023521848614
0.09489361702127659 0.4542818197548423 0.4376444268345237
0.0951063829787234 0.4534700144108637 0.44016851782721256
0.09531914893617022 0.45456716601598124 0.44015830222820956
0.09553191489361702 0.4556717618697388 0.43917928676111373
0.09574468085106383 0.4528578407425501 0.43528229230492554
0.09595744680851064 0.4529945153544307 0.435291445767642
0.09617021276595744 0.4533073091702563 0.4288813199176916
0.09638297872340426 0.45341018357847046 0.425543083912354
0.09659574468085107 0.45330392832713473 0.4210785953939359
0.09680851063829787 0.45278441746512127 0.41901161007146986
0.09702127659574468 0.4538348803126526 0.41563347095948816
0.09723404255319149 0.45221622370989084 0.41475329750854906
0.09744680851063829 0.45188080117244755 0.41837608503706086
0.09765957446808511 0.44998360708751595 0.4145257572874542
0.09787234042553192 0.4509037616023448 0.4106680940425526
0.09808510638297872 0.45119398123946175 0.41044853893226996
0.09829787234042553 0.45064594502198263 0.41264541623188455
0.09851063829787234 0.44894968246213973 0.4175661104422933
0.09872340425531914 0.45096855903089994 0.42330737035417826
0.09893617021276596 0.45188080117244755 0.42693166796178245
0.09914893617021277 0.4509476286697466 0.42745481191988266
0.09936170212765957 0.44902179470215825 0.4296252277801435
0.09957446808510638 0.4498495052296259 0.4324172265730121
0.09978723404255319 0.4485375204965064 0.4343474542545815
0.1 0.4479921558556284 0.4388666155468072
0.10021276595744681 0.449471698000421 0.4406113503630377
0.10042553191489362 0.44894968246213973 0.4405506932440855
0.10063829787234042 0.44823687192543843 0.4387307052578137
0.10085106382978723 0.4454393233051416 0.4415800066402053
0.10106382978723404 0.4450415241817294 0.44211040547142155
0.10127659574468086 0.4455385991512463 0.45031663862831117
0.10148936170212766 0.4479374471008669 0.46096241193485926
0.10170212765957447 0.4454230211313753 0.4661083033823648
0.10191489361702127 0.44550833564496956 0.47308252682595303
0.10212765957446808 0.44695918388571954 0.4792014896991049
0.10234042553191489 0.4479726428920372 0.4890355430508604
0.1025531914893617 0.4479726428920372 0.4996009497406937
0.10276595744680851 0.4489613393686746 0.5075930391000578
0.10297872340425532 0.45332830564947735 0.5162387691334245
0.10319148936170212 0.4501800260369557 0.5148817652196888
0.10340425531914893 0.45167166333628805 0.5138182449558821
0.10361702127659575 0.45337152034371714 0.5123566152543448
0.10382978723404256 0.4538348803126526 0.5109079778778775
0.10404255319148936 0.454170267291497 0.5114802149487054
0.10425531914893617 0.45565182009419586 0.5116173543073674
0.10446808510638297 0.4552245080939832 0.5106693722701532
0.10468085106382978 0.4574746137512571 0.49751886642575854
0.1048936170212766 0.4548846403733239 0.47593575494298235
0.1051063829787234 0.45015803066673127 0.46416041673645225
0.10531914893617021 0.44832858702439277 0.4420304534077088
0.10553191489361702 0.44955644293486824 0.4293062074067528
0.10574468085106382 0.4473923360222594 0.42323083523657806
0.10595744680851064 0.44699560332193444 0.4233659954574928
0.10617021276595745 0.44621922791096863 0.4258757798723699
0.10638297872340426 0.4444405347132619 0.43121185946549045
0.10659574468085106 0.44552881938936545 0.44039385104795836
0.10680851063829787 0.4460185637518319 0.4406414659927229
0.10702127659574467 0.4464237794846937 0.43593756089821944
0.1072340425531915 0.447770133741731 0.43105315803237443
0.1074468085106383 0.4515747143036395 0.42953132580761116
0.1076595744680851 0.45188080117244755 0.4210587400940562
0.10787234042553191 0.4528959685263686 0.41767170695758404
0.10808510638297872 0.4558371413446772 0.416884043585425
0.10829787234042552 0.4567974316276093 0.42040510795617614
0.10851063829787234 0.4577577219105414 0.42392617232692753
0.10872340425531915 0.4587180121934735 0.42744723669767865
0.10893617021276596 0.4549982960706555 0.4367592671511578
0.10914893617021276 0.4567092407999695 0.4524037749586225
0.10936170212765957 0.4623731088180577 0.45846495053764735
0.10957446808510639 0.4654798216133187 0.46917589045222247
0.1097872340425532 0.4591113872613473 0.46854637516393177
0.11 0.4577983779869967 0.47125557439269816
0.1102127659574468 0.45577993987484733 0.4694524808042764
0.11042553191489361 0.45274609316450826 0.46458231558378116
0.11063829787234042 0.44954061841259313 0.4644134767407945
0.11085106382978724 0.45515873854851163 0.46325845734792215
0.11106382978723404 0.45209262950086576 0.4675955363660773
0.11127659574468085 0.451820775099067 0.4737549902723363
0.11148936170212766 0.4498580573939313 0.4823344902129362
0.11170212765957446 0.45151442453384194 0.488519732250563
0.11191489361702127 0.45132346722663186 0.49390032334656003
0.11212765957446809 0.45188080117244755 0.4978016609672691
0.1123404255319149 0.4540980557665226 0.4973582100484541
0.1125531914893617 0.4541065533224581 0.4957608431169656
0.1127659574468085 0.452521981654346 0.49358818129316445
0.11297872340425531 0.4520956932389241 0.49367861062038215
0.11319148936170213 0.450467324379888 0.4839991651389424
0.11340425531914894 0.4513979805386778 0.47506554393289846
0.11361702127659574 0.45020427237803573 0.46666955653705755
0.11382978723404255 0.4461458130996504 0.457052310055552
0.11404255319148936 0.44633144904400274 0.4499651057258323
0.11425531914893616 0.4495526264422686 0.437682904401219
0.11446808510638298 0.44708748286607186 0.42811738343842015
0.11468085106382979 0.4450415241817294 0.4173957422657598
0.1148936170212766 0.4450415241817294 0.4097408179474207
0.1151063829787234 0.4462657512628594 0.4044885267854682
0.11531914893617021 0.44628076496786506 0.403028822667318
0.11553191489361703 0.44683996153572747 0.403028822667318
0.11574468085106383 0.4451309294212462 0.4104875182700714
0.11595744680851064 0.4479130848238543 0.41120248763723616
0.11617021276595745 0.4470518861944001 0.41687622526615126
0.11638297872340425 0.4475010383741848 0.42089610740666833
0.11659574468085106 0.44794467690379763 0.4287744267935501
0.11680851063829788 0.45246333175783127 0.4341875807120772
0.11702127659574468 0.44746763126406564 0.442889542926482
0.11723404255319149 0.4485257085897159 0.4533742080435698
0.1174468085106383 0.44829272493174077 0.4620216592661524
0.1176595744680851 0.4479726428920372 0.47082245149658
0.11787234042553191 0.4497827629522671 0.47873405235540684
0.11808510638297873 0.44982592302205027 0.47703183246963476
0.11829787234042553 0.4481515340299099 0.47096750304161983
0.11851063829787234 0.44771552210609 0.46118837460464435
0.11872340425531915 0.4459174761501181 0.45076904842329174
0.11893617021276595 0.44868558554009325 0.44530562110377575
0.11914893617021277 0.44992672203224227 0.44130069060902616
0.11936170212765958 0.448281589105955 0.43686606047864174
0.11957446808510638 0.4479726428920372 0.4353201036811364
0.11978723404255319 0.44960026286125226 0.4323400097703958
0.12 0.4458188771680801 0.4323400097703958
0.1202127659574468 0.44841652054876296 0.4320883095231492
0.12042553191489362 0.44338346931452777 0.4303414472546445
0.12063829787234043 0.4429226571280526 0.42680734817672333
0.12085106382978723 0.44321219784921856 0.4181315424915133
0.12106382978723404 0.442413030723083 0.4105490064742745
0.12127659574468085 0.44311328630173413 0.4121245815262395
0.12148936170212765 0.44381354188038524 0.4137001565782044
0.12170212765957447 0.44451379745903635 0.4152757316301695
0.12191489361702128 0.44521405303768746 0.41685130668213444
0.12212765957446808 0.4459143086163386 0.41842688173409937
0.12234042553191489 0.4466145641949897 0.42000245678606435
0.1225531914893617 0.44731481977364074 0.4215780318380293
0.12276595744680852 0.4480150753522919 0.42315360688999437
0.12297872340425532 0.448715330930943 0.4247291819419593
0.12319148936170213 0.44941558650959407 0.4263047569939242
0.12340425531914893 0.4504583973108386 0.4285181624770753
0.12361702127659574 0.45242703346575924 0.4324554347869166
0.12382978723404255 0.4546950846581153 0.4357667078945852
0.12404255319148937 0.4548565483590459 0.4390900298085326
0.12425531914893617 0.4538348803126526 0.443767948678818
0.12446808510638298 0.4544824333600881 0.4502390785580612
0.12468085106382978 0.455496721644955 0.4580265357696864
0.12489361702127659 0.45481191988275516 0.46807717006782074
0.1251063829787234 0.45503295917553166 0.4770980651971213
0.12531914893617022 0.4557889594528579 0.48484396300918836
0.125531914893617 0.45598850395664964 0.4957352351067256
0.12574468085106383 0.45866343856693664 0.50732661841797
0.12595744680851065 0.46348631080632935 0.5104317962541933
0.12617021276595744 0.45875238624628073 0.5133373698395648
0.12638297872340426 0.4593613267690381 0.5110908095660056
0.12659574468085105 0.4560623424888406 0.5189827505852171
0.12680851063829787 0.45703148472641003 0.528355373343899
0.1270212765957447 0.4544590839889532 0.5241184294696406
0.12723404255319148 0.4565040348382883 0.5187017859715957
0.1274468085106383 0.45613397882327944 0.5116511786956407
0.1276595744680851 0.45536634004036364 0.5019294871562032
0.12787234042553192 0.45215142923188073 0.4934577192356229
0.1280851063829787 0.4509037616023448 0.48297757093684834
0.12829787234042553 0.44925135292164003 0.47660846088451253
0.12851063829787235 0.4474271679890347 0.4747842759519072
0.12872340425531914 0.44699560332193444 0.47435271128480694
0.12893617021276596 0.44778445895425195 0.4798747007110286
0.12914893617021275 0.44705606205661025 0.48210856911095185
0.12936170212765957 0.44983539191045474 0.4809179979101626
0.1295744680851064 0.44779841523970987 0.47498129555025503
0.12978723404255318 0.44761298134269506 0.4705974706212819
0.13 0.44983825117807674 0.46191660943596996
0.1302127659574468 0.45032568133881484 0.4564077571090456
0.13042553191489362 0.44921611220046004 0.45552252971453755
0.13063829787234044 0.447259176322481 0.4524079471735407
0.13085106382978723 0.44699560332193444 0.45383784263226723
0.13106382978723405 0.44708142459546735 0.45489774115628806
0.13127659574468084 0.4479726428920372 0.4566506520500798
0.13148936170212766 0.44899262611351015 0.46037710654758357
0.13170212765957448 0.4491672657127 0.4590464530390062
0.13191489361702127 0.449140550709338 0.45739766999341047
0.1321276595744681 0.4495941770278605 0.4561009090141967
0.13234042553191488 0.44894968246213973 0.4516986805522619
0.1325531914893617 0.45076184481240966 0.44727943690180477
0.1327659574468085 0.44717345651516066 0.44646204374225584
0.13297872340425532 0.45011683925600865 0.437631895519712
0.13319148936170214 0.45064510694600446 0.4319086179482788
0.13340425531914893 0.44992672203224227 0.42213185919392704
0.13361702127659575 0.4506222699889128 0.419572212994159
0.13382978723404254 0.4504468714097169 0.41816239280643375
0.13404255319148936 0.4477283274756626 0.4186614557889594
0.13425531914893618 0.44699560332193444 0.41939529886954907
0.13446808510638297 0.4504464174954307 0.4239520130759324
0.1346808510638298 0.45188080117244755 0.42846101661160774
0.13489361702127659 0.45188080117244755 0.43205170561570305
0.1351063829787234 0.45081134775276666 0.43651553140572635
0.13531914893617022 0.44876950126194903 0.43842049517577647
0.13553191489361702 0.44992672203224227 0.4422706152774319
0.13574468085106384 0.4525572500729079 0.4493255406929582
0.13595744680851063 0.45304942738478027 0.44402627189372323
0.13617021276595745 0.45126800188448024 0.44449516375852627
0.13638297872340424 0.4509037616023448 0.4418324638332099
0.13659574468085106 0.4509037616023448 0.43840645343031365
0.13680851063829788 0.4509037616023448 0.43917928676111373
0.13702127659574467 0.45013772875190045 0.43975381139894704
0.1372340425531915 0.44788522765438366 0.44300002980387077
0.13744680851063829 0.4495590916815897 0.4443062634804242
0.1376595744680851 0.44750603691749574 0.4426062298599761
0.13787234042553193 0.4454873487489733 0.4426416204742802
0.13808510638297872 0.4454899049440116 0.44398420656608867
0.13829787234042554 0.44631820103461584 0.44594043603008127
0.13851063829787233 0.44699560332193444 0.4477911707757213
0.13872340425531915 0.44716589878060864 0.44708075105127154
0.13893617021276597 0.4487781024017391 0.4478868528618369
0.13914893617021276 0.44894968246213973 0.4488792029886332
0.13936170212765958 0.4508851058377777 0.4509037616023448
0.13957446808510637 0.44992672203224227 0.4509037616023448
0.1397872340425532 0.44992672203224227 0.44988166688282866
0.13999999999999999 0.4503993400951363 0.4450415241817294
0.1402127659574468 0.45036687712585166 0.4447387393724102
0.14042553191489363 0.44805083500988885 0.44300925292367244
0.14063829787234042 0.4507129371834339 0.4423126886281064
0.14085106382978724 0.4514213943416631 0.44268626411927375
0.14106382978723403 0.4514293722661441 0.44323580855651595
0.14127659574468085 0.4508774522503493 0.4495565943311711
0.14148936170212767 0.45039744187495456 0.457129919211639
0.14170212765957446 0.44987343351404824 0.46531063370070547
0.14191489361702128 0.4495269004037364 0.47177638520068077
0.14212765957446807 0.44992672203224227 0.4746085589738898
0.1423404255319149 0.45097977509910564 0.4742766977880463
0.1425531914893617 0.451139614606554 0.47004033216818364
0.1427659574468085 0.44949063944763973 0.46349210912227473
0.14297872340425533 0.4478767197866707 0.45931342531180236
0.14319148936170212 0.44709829553703745 0.4546593450867249
0.14340425531914894 0.4472231909387434 0.44372998326346524
0.14361702127659573 0.44434116950567487 0.43681882272077094
0.14382978723404255 0.4450415241817294 0.4329959974182649
0.14404255319148937 0.4459605174989981 0.431421016453127
0.14425531914893616 0.44695699785460913 0.42940889106008795
0.14446808510638298 0.44539084564152265 0.4259156764621549
0.14468085106382977 0.4467931174769607 0.4142166192831606
0.1448936170212766 0.45056713046849134 0.3994737224364904
0.1451063829787234 0.4538348803126526 0.3876511908208005
0.1453191489361702 0.4538348803126526 0.3844039597414911
0.14553191489361703 0.4538348803126526 0.39036624385502827
0.14574468085106382 0.45486071518020293 0.3989739006208485
0.14595744680851064 0.45784959293017724 0.4164346824807211
0.14617021276595746 0.45884990402968884 0.44135420310709605
0.14638297872340425 0.4574660074317587 0.46208011852539704
0.14659574468085107 0.46145316288207416 0.4838523167725209
0.14680851063829786 0.4599592573607697 0.5004826081161313
0.14702127659574468 0.4606897462790704 0.5120570853053472
0.14723404255319147 0.4575058387775772 0.5136714939043965
0.1474468085106383 0.45862836980381755 0.510144280036892
0.14765957446808511 0.4557889594528579 0.503714185915154
0.1478723404255319 0.45517356065823383 0.4931322286294224
0.14808510638297873 0.4531904678671687 0.4818780843285157
0.14829787234042552 0.4503768079887692 0.4723217644875531
0.14851063829787234 0.44839836080554035 0.46581056264007636
0.14872340425531916 0.4503253733219644 0.4617710215339125
0.14893617021276595 0.45040574343382633 0.45871374590752073
0.14914893617021277 0.44894968246213973 0.45876242859540817
0.14936170212765956 0.44842002219371785 0.4623454190753778
0.14957446808510638 0.4485189181766532 0.46785996729147716
0.1497872340425532 0.4495213774287977 0.47387472280434473
0.15 0.44992672203224227 0.47980504531583595
0.15021276595744681 0.4510280760645186 0.4816183508294895
0.1504255319148936 0.4504214728049824 0.4777868887514398
0.15063829787234043 0.44977301469137665 0.47105938236785916
0.15085106382978725 0.44988384244600604 0.4648365294634215
0.15106382978723404 0.448831771194209 0.45821468366478596
0.15127659574468086 0.45039842029229504 0.448410698102093
0.15148936170212765 0.44838187471967283 0.44363862880477667
0.15170212765957447 0.4451254011306166 0.44121724285020625
0.15191489361702126 0.4460185637518319 0.44204353867869944
0.15212765957446808 0.4460185637518319 0.43833436283430355
0.1523404255319149 0.448675451338705 0.4382022471910112
0.1525531914893617 0.4497402648280421 0.4405739942887184
0.15276595744680851 0.45059422604884625 0.437795845818299
0.1529787234042553 0.450304660228066 0.43564906667652714
0.15319148936170213 0.4493542458909247 0.43698855690465616
0.15340425531914895 0.44786385872152795 0.4376593353207054
0.15361702127659574 0.4515922343695685 0.43722520762090866
0.15382978723404256 0.4518638892395267 0.43722520762090866
0.15404255319148935 0.44880576831435337 0.43794927361787617
0.15425531914893617 0.4514855716366237 0.4379935981536423
0.154468085106383 0.4500528764153432 0.43624816805080613
0.15468085106382978 0.44894968246213973 0.43714048732215927
0.1548936170212766 0.44790575602229526 0.43924617363085566
0.1551063829787234 0.44756869438042 0.4413025084481874
0.15531914893617021 0.4473444725411198 0.44336674617325617
0.155531914893617 0.4456118399735588 0.44475636628581466
0.15574468085106383 0.4450415241817294 0.44579990563495686
0.15595744680851065 0.4474903629210891 0.4500999616507647
0.15617021276595744 0.4462313942929874 0.4474212644042454
0.15638297872340426 0.44317122440990075 0.4450973770939805
0.15659574468085105 0.44400845393983596 0.4413574885884825
0.15680851063829787 0.44489278967333235 0.43947675577790785
0.1570212765957447 0.44425905176469643 0.43917928676111373
0.15723404255319148 0.44552976664865485 0.43624872268705756
0.1574468085106383 0.4476202106009729 0.4336694816315626
0.1576595744680851 0.4479726428920372 0.43177907080264444
0.15787234042553192 0.4530079858646736 0.42716685105642926
0.15808510638297874 0.44999536060953466 0.4235981325724416
0.15829787234042553 0.4507335876142902 0.42248452707534245
0.15851063829787235 0.44873983175362603 0.41970391812264374
0.15872340425531914 0.4493272803540564 0.41313787773384875
0.15893617021276596 0.4509449250893775 0.4114365677307716
0.15914893617021275 0.44992672203224227 0.40889106008793363
0.15936170212765957 0.44992672203224227 0.39877547738029223
0.1595744680851064 0.45162954384410225 0.38669839704719794
0.15978723404255318 0.4509037616023448 0.37956989168757566
0.16 0.4513076767343095 0.3762448391425834
0.1602127659574468 0.45248975102024724 0.37398666142272147
0.16042553191489362 0.4493488986269271 0.3758923236287051
0.16063829787234044 0.4493984464020874 0.3781540694748056
0.16085106382978723 0.449602179224984 0.3792553301775976
0.16106382978723405 0.4476508152951602 0.3810971441429106
0.16127659574468084 0.44856372386403365 0.3862383137513583
0.16148936170212766 0.45068694341908816 0.398688385765842
0.16170212765957448 0.4509037616023448 0.4099107490436933
0.16191489361702127 0.4509037616023448 0.42658487638342696
0.1621276595744681 0.4509037616023448 0.4461775754173596
0.16234042553191488 0.4509037616023448 0.46599920221011587
0.1625531914893617 0.44962302324566994 0.4863722124908253
0.1627659574468085 0.4485007932339739 0.5052750268681547
0.16297872340425532 0.44720145860775257 0.5159537022275823
0.16319148936170214 0.44991970898458594 0.5196198736836749
0.16340425531914893 0.4496087583769825 0.5240603090720704
0.16361702127659575 0.45155171643322034 0.5286281475582489
0.16382978723404254 0.453824720704849 0.5319828065091544
0.16404255319148936 0.45630038707648124 0.533645268486891
0.16425531914893618 0.4600393329261696 0.5297513575963548
0.16446808510638297 0.4574218253083579 0.5219466360830904
0.1646808510638298 0.4558995409632627 0.508889937781383
0.16489361702127658 0.4553573594980775 0.4963692627549992
0.1651063829787234 0.45447365757129043 0.48568230276813545
0.16531914893617022 0.45456910722930105 0.4814348009289792
0.16553191489361702 0.45141236947831337 0.4820418758766355
0.16574468085106384 0.4528596147754819 0.48021140063955897
0.16595744680851063 0.4538348803126526 0.4780028330695546
0.16617021276595745 0.4538348803126526 0.47347525167241
0.16638297872340424 0.4534474366452133 0.46168491847949045
0.16659574468085106 0.4544187568960697 0.4557889594528579
0.16680851063829788 0.45448440366571236 0.44926618051713046
0.16702127659574467 0.45148428108257393 0.4460185637518319
0.1672340425531915 0.4490739848486957 0.44876322888230574
0.16744680851063828 0.45174248391737337 0.4595588004781941
0.1676595744680851 0.44992672203224227 0.45954438812533294
0.16787234042553192 0.45025862040079834 0.4678639881982107
0.16808510638297872 0.45229262433583356 0.4746111412048628
0.16829787234042554 0.4556215350430079 0.4816201154424604
0.16851063829787233 0.4545903541313788 0.4874973571988935
0.16872340425531915 0.45212333016901246 0.4907198549799862
0.16893617021276597 0.45288820615218367 0.4987837614389774
0.16914893617021276 0.4575985944822708 0.49988034940535153
0.16936170212765958 0.45024343158336727 0.49978265102420194
0.16957446808510637 0.45255084404988866 0.4939324822285439
0.1697872340425532 0.45483019874150427 0.4862714468285559
0.17 0.44643437103508227 0.47774111046115436
0.1702127659574468 0.44949188425412395 0.4722161043063889
0.17042553191489362 0.44721261298819276 0.4625212198262677
0.17063829787234042 0.4479726428920372 0.44997816383027567
0.17085106382978724 0.4476584426260293 0.44441312364971364
0.17106382978723403 0.44752705803667825 0.44202453561203653
0.17127659574468085 0.44857304093190975 0.4390716748953337
0.17148936170212767 0.44299085082209194 0.4374767634353859
0.17170212765957446 0.4442463715917768 0.4343772527937684
0.17191489361702128 0.4450415241817294 0.433906097142289
0.17212765957446807 0.4445752546354083 0.4356928975495641
0.1723404255319149 0.4443344517055811 0.43749517471486293
0.1725531914893617 0.44500960625010827 0.4381703292593901
0.1727659574468085 0.44430158374815687 0.4404220684917289
0.17297872340425532 0.44539374875637294 0.44046873382894597
0.17319148936170212 0.4479578548194649 0.4414491870429717
0.17340425531914894 0.4482702763043316 0.4414309993136134
0.17361702127659576 0.4472305639343207 0.4433596027744682
0.17382978723404255 0.44699560332193444 0.4448814218243141
0.17404255319148937 0.44699560332193444 0.4476956974876243
0.17425531914893616 0.44893352577869056 0.4479726428920372
0.17446808510638298 0.44326575380967986 0.4489199643341138
0.17468085106382977 0.446762375134011 0.44527475236965297
0.1748936170212766 0.44746912635592534 0.4430574515394033
0.1751063829787234 0.4467233135065611 0.441021246209928
0.1753191489361702 0.446122212452182 0.43809859849066113
0.17553191489361702 0.4476206843601076 0.43660012658273567
0.17574468085106382 0.44744107345518375 0.43624816805080613
0.17595744680851064 0.4464637632955666 0.43518448799807036
0.17617021276595746 0.4450773291358715 0.4325190345411065
0.17638297872340425 0.44596173617643253 0.4369410697439119
0.17659574468085107 0.4475083538391461 0.43722520762090866
0.17680851063829786 0.44981226504333294 0.4347723780858475
0.17702127659574468 0.4513940885844906 0.433807376322644
0.1772340425531915 0.4521986941178486 0.43747301836461117
0.1774468085106383 0.4526459426786843 0.4434287904200295
0.1776595744680851 0.4508866433817716 0.4382022471910112
0.1778723404255319 0.44992672203224227 0.43898251187460496
0.17808510638297873 0.4503210574384878 0.4450327252362181
0.17829787234042552 0.452457304632109 0.44142161763114973
0.17851063829787234 0.4526723723596186 0.44133540016939893
0.17872340425531916 0.4518772914631384 0.4406430912616132
0.17893617021276595 0.451669846005765 0.441133365901319
0.17914893617021277 0.4509037616023448 0.44043180894010103
0.17936170212765956 0.4492879809275813 0.43934843599383455
0.17957446808510638 0.4498558559246389 0.43917928676111373
0.1797872340425532 0.44992672203224227 0.4390013695045897
0.18 0.44978568147608194 0.4335888861297993
0.1802127659574468 0.44967489028153806 0.4296506269998874
0.1804255319148936 0.45188080117244755 0.43072947601963985
0.18063829787234043 0.4514860050092436 0.42978378554747737
0.18085106382978725 0.4509037616023448 0.4282891471803538
0.18106382978723404 0.4509037616023448 0.4314786330834762
0.18127659574468086 0.45208558256927556 0.4350897807908944
0.18148936170212765 0.45015502670302765 0.43827527858044785
0.18170212765957447 0.45287565407450747 0.43917928676111373
0.18191489361702126 0.4520744073355387 0.44093975973822785
0.18212765957446808 0.44995487086007646 0.43719705879307447
0.1823404255319149 0.4529785527119475 0.43417337694120345
0.1825531914893617 0.45336861095236797 0.4340164533809253
0.1827659574468085 0.45153650583093125 0.4379696447583873
0.1829787234042553 0.4499941711097085 0.43794979917709176
0.18319148936170213 0.4495146931318357 0.43711914225908055
0.18340425531914895 0.45128225398490096 0.4351126909031379
0.18361702127659574 0.45113706719230917 0.4355482512809132
0.18382978723404256 0.4483862887529325 0.4396047985166893
0.18404255319148935 0.4470345471874189 0.4382801349219801
0.18425531914893617 0.4498600397115338 0.44342085664506625
0.184468085106383 0.44894968246213973 0.44867682397979014
0.18468085106382978 0.4483791969890102 0.45273652938214176
0.1848936170212766 0.44739116480970204 0.4559986043460577
0.1851063829787234 0.4475092941216895 0.4586697361337582
0.1853191489361702 0.44859193577244816 0.46395400426797145
0.185531914893617 0.44796073756802907 0.46882409060356434
0.18574468085106383 0.4485607857622555 0.47729342563589905
0.18595744680851065 0.4480501621052299 0.49003215341823864
0.18617021276595744 0.4490421365657777 0.5002180106256641
0.18638297872340426 0.4509037616023448 0.5106533314842967
0.18659574468085105 0.45119309293384885 0.5172334067937303
0.18680851063829787 0.4514641247976087 0.5188798551346874
0.1870212765957447 0.45145027212039374 0.5155869393491793
0.18723404255319148 0.44985693266174476 0.5060134428830005
0.1874468085106383 0.4529566808032223 0.49627566147205
0.1876595744680851 0.4519740656229156 0.4883576908428814
0.18787234042553191 0.45204276390097015 0.48249821650164
0.18808510638297873 0.4542401246732775 0.4745192621336599
0.18829787234042553 0.4561170074687663 0.4694533044790487
0.18851063829787235 0.4563121888385026 0.464651734784968
0.18872340425531914 0.45351092113416863 0.4630357664340062
0.18893617021276596 0.4512897296287349 0.45908180718130076
0.18914893617021278 0.4519900973667469 0.45567966325855835
0.18936170212765957 0.45334130314326004 0.4543284574820452
0.1895744680851064 0.45284255613313706 0.45284255613313706
0.18978723404255318 0.45188080117244755 0.4506784770547638
0.19 0.44974713741812633 0.44992672203224227
0.1902127659574468 0.4505884180345918 0.4515654576046945
0.19042553191489361 0.45000609664375785 0.44649481142092556
0.19063829787234043 0.4508752763449555 0.4490921087490862
0.19085106382978723 0.450351778222903 0.4544016219002002
0.19106382978723405 0.4531143554850643 0.45825606807809144
0.19127659574468084 0.45346733359044894 0.45896202428886085
0.19148936170212766 0.45333682879689247 0.4563060744300357
0.19170212765957448 0.45442134047223104 0.45246607924444127
0.19191489361702127 0.4568979860340445 0.4488176954510556
0.1921276595744681 0.4545150134162361 0.44474461771521034
0.19234042553191488 0.45292001716775165 0.4413198951769237
0.1925531914893617 0.4538348803126526 0.43702423234834287
0.19276595744680852 0.4535087568840983 0.43282786419766683
0.19297872340425531 0.45215651340981133 0.43066164286755426
0.19319148936170213 0.4532257115845829 0.4309950993582602
0.19340425531914893 0.45293295235865266 0.4281311107451905
0.19361702127659575 0.45075030436663915 0.4266312295854858
0.19382978723404254 0.451275752073672 0.4240822368163086
0.19404255319148936 0.44874003592850287 0.4194288488254251
0.19425531914893618 0.4479726428920372 0.4159654537287823
0.19446808510638297 0.44790856893811903 0.41175810484432307
0.1946808510638298 0.44630257999567857 0.4100101077799595
0.19489361702127658 0.44821234405559635 0.41156424271881625
0.1951063829787234 0.44794341473124455 0.41511794824630677
0.19531914893617022 0.4460185637518319 0.42123679569752714
0.19553191489361701 0.4476849071902604 0.43049976309496296
0.19574468085106383 0.44894968246213973 0.43831281913945186
0.19595744680851063 0.4496103096794562 0.4494051073736477
0.19617021276595745 0.44992672203224227 0.44596892057410814
0.19638297872340427 0.4515802809557202 0.4488749012736967
0.19659574468085106 0.4528153976872894 0.4508613185470841
0.19680851063829788 0.45397317525001685 0.4580196284677914
0.19702127659574467 0.4556147761300684 0.4621737468418417
0.1972340425531915 0.4552530133066947 0.4648028622957509
0.19744680851063828 0.4564230100323424 0.46538786065857474
0.1976595744680851 0.45481191988275516 0.4637333766780036
0.19787234042553192 0.45481191988275516 0.4596783821523477
0.19808510638297872 0.4543034971845088 0.45524073092822126
0.19829787234042554 0.45508031886284844 0.4519667224873589
0.19851063829787233 0.4550521242158654 0.44574591494339816
0.19872340425531915 0.45481191988275516 0.44406448461162684
0.19893617021276597 0.45288242003718665 0.4363464852293523
0.19914893617021276 0.4527587834012955 0.43878305739609524
0.19936170212765958 0.45188080117244755 0.43611001409375116
0.19957446808510637 0.4522028125131522 0.43917928676111373
0.1997872340425532 0.4528578407425501 0.4404860104166979
0.2 0.45127973558834633 0.44211040547142155
0.2002127659574468 0.44992672203224227 0.44151456185308413
0.20042553191489362 0.4506179190929026 0.4404421688406587
0.20063829787234042 0.44770140133687447 0.4345521958666434
0.20085106382978724 0.4506420683634334 0.4333170493404983
0.20106382978723403 0.44801681920272407 0.42940889106008795
0.20127659574468085 0.44894968246213973 0.42955637847321043
0.20148936170212767 0.44869560994133445 0.43114814819260644
0.20170212765957446 0.4476065242789872 0.4336831679535483
0.20191489361702128 0.44603238220740077 0.4357389205824015
0.20212765957446807 0.44682264068353733 0.4384126186221139
0.2023404255319149 0.446555489926156 0.444847898624638
0.2025531914893617 0.4476546350723615 0.4527218529437877
0.2027659574468085 0.44889005582967745 0.46300900968905556
0.20297872340425532 0.4480311942061063 0.47452836522701425
0.20319148936170212 0.45081168360259516 0.4843430814124757
0.20340425531914894 0.44992672203224227 0.4973877304615405
0.20361702127659576 0.4501556662631723 0.5095100294539013
0.20382978723404255 0.45119295326446773 0.5248303751789402
0.20404255319148937 0.4515421013649877 0.5340693046178954
0.20425531914893616 0.45196804580749056 0.5355572256610974
0.20446808510638298 0.4532717402985643 0.5216137774784335
0.20468085106382977 0.452350446452587 0.5033871624474274
0.2048936170212766 0.4556302022168492 0.4878083225671823
0.2051063829787234 0.4557889594528579 0.46707815338545294
0.2053191489361702 0.45718623934850255 0.45284727717406287
0.20553191489361702 0.46078799741969767 0.4483406906968128
0.20574468085106382 0.4594656626150967 0.45060812108243653
0.20595744680851064 0.45828217322574066 0.45538479774718377
0.20617021276595746 0.45969711773326827 0.46262773355079667
0.20638297872340425 0.46029796044517884 0.47254482184309227
0.20659574468085107 0.4606741573033708 0.4763067904250122
0.20680851063829786 0.46002406075491026 0.4763067904250122
0.20702127659574468 0.4591903744727298 0.4758000471644739
0.2072340425531915 0.4590622817760044 0.4756719544677485
0.2074468085106383 0.45900380740408764 0.4758445835388918
0.2076595744680851 0.45676599902296044 0.47391231682912377
0.2078723404255319 0.45679991694634603 0.4711841671108004
0.20808510638297872 0.45773368790517716 0.464647770398982
0.20829787234042554 0.4567010446221062 0.4564412270186891
0.20851063829787234 0.45447005709499944 0.4466537405341787
0.20872340425531916 0.45093991064931477 0.44287055075970444
0.20893617021276595 0.45193838969936634 0.4369948535132335
0.20914893617021277 0.45274005858888505 0.43378817795515856
0.20936170212765956 0.4528578407425501 0.43534282005284813
0.20957446808510638 0.4506161308826956 0.43848987791066063
0.2097872340425532 0.45157178891494604 0.4406807476217777
0.21 0.45227650169198536 0.4416528254415414
0.2102127659574468 0.44763209788844355 0.44429151461402244
0.2104255319148936 0.44753551981738565 0.4478890604785742
0.21063829787234042 0.4496873626243332 0.4504250427865267
0.21085106382978724 0.44992672203224227 0.4561071316597583
0.21106382978723404 0.44884821229189525 0.46161929285452225
0.21127659574468086 0.4488514348161287 0.4626300487402452
0.21148936170212765 0.4504915579337619 0.45661336679002373
0.21170212765957447 0.44833494295726944 0.45562066649309924
0.2119148936170213 0.44569432934970604 0.45838933921545233
0.21212765957446808 0.4465949714607082 0.46300432822183923
0.2123404255319149 0.4487560566660245 0.4662459560298135
0.2125531914893617 0.44409483835389396 0.47038384551986234
0.2127659574468085 0.4452003987601153 0.46864934844257744
0.2129787234042553 0.44718099051628346 0.4651084130676008
0.21319148936170212 0.44992672203224227 0.45317357169642225
0.21340425531914894 0.44980863236016794 0.4488512744020778
0.21361702127659574 0.4444358767306924 0.44295030825443
0.21382978723404256 0.44721983287085143 0.43190768524694945
0.21404255319148935 0.4479726428920372 0.4161837162519732
0.21425531914893617 0.4475748201993012 0.3993783497857464
0.214468085106383 0.44649584553901783 0.38187637793786267
0.21468085106382978 0.4481946676857691 0.367511324952181
0.2148936170212766 0.4493260614451006 0.3556101758686313
0.2151063829787234 0.44894968246213973 0.3493923263396146
0.2153191489361702 0.45058379137026056 0.35403398791999635
0.21553191489361703 0.4518270065936022 0.3671560686186356
0.21574468085106382 0.4528578407425501 0.380100369574731
0.21595744680851064 0.45253188146094137 0.3900021872490993
0.21617021276595744 0.4522777487264352 0.3954568063648368
0.21638297872340426 0.45308623774873563 0.4010747435271129
0.21659574468085105 0.45143410973589754 0.405546712619877
0.21680851063829787 0.45443815293519096 0.4165040985059583
0.2170212765957447 0.45552103887141887 0.4298340817817917
0.21723404255319148 0.454295628154344 0.4415303714823245
0.2174468085106383 0.45550274805830204 0.45156988946704874
0.2176595744680851 0.459575341323427 0.46421698635425723
0.2178723404255319 0.45359882720620254 0.4717363300497661
0.21808510638297873 0.4505253679312541 0.4749513571838189
0.21829787234042553 0.4498579699814428 0.4733756717147044
0.21851063829787234 0.4506381254932747 0.47213299603553155
0.21872340425531914 0.44789567842475236 0.473079563097865
0.21893617021276596 0.44699560332193444 0.4785423094983427
0.21914893617021278 0.4485042833244524 0.47795192870164577
0.21936170212765957 0.4480819388993497 0.47294511218116453
0.2195744680851064 0.44699865531227406 0.47142464456483896
0.21978723404255318 0.44861619930644087 0.46076190845827636
0.22 0.44646083266680986 0.4507389979078072
0.2202127659574468 0.4479726428920372 0.43691959446548423
0.2204255319148936 0.44624970121707724 0.4256478410240506
0.22063829787234043 0.444601067105087 0.4180287478786814
0.22085106382978723 0.44568775872208805 0.417353611189113
0.22106382978723405 0.4467778370292741 0.4169251429414147
0.22127659574468084 0.44617429227193095 0.41834999874876133
0.22148936170212766 0.44969015996501954 0.42233305200214705
0.22170212765957448 0.44705899066430915 0.4305887701257896
0.22191489361702127 0.4511351639223212 0.44363252455142776
0.2221276595744681 0.45026410629662333 0.45814377532051304
0.22234042553191488 0.4513978728718365 0.46435203440235623
0.2225531914893617 0.45044624128498023 0.466993915041351
0.22276595744680852 0.45068512946712963 0.46599661942431414
0.2229787234042553 0.4509037616023448 0.46639965754081
0.22319148936170213 0.4492444013055104 0.46570671457556906
0.22340425531914893 0.44894968246213973 0.46739500170822634
0.22361702127659575 0.44699560332193444 0.47538409301556767
0.22382978723404254 0.4476587176825445 0.47846191209699496
0.22404255319148936 0.451185194494053 0.4929483653202593
0.22425531914893618 0.4506984778636868 0.5074161520528252
0.22446808510638297 0.4499631717173267 0.5174518014245743
0.2246808510638298 0.4509037616023448 0.5184114088734674
0.22489361702127658 0.4494970541072237 0.5138256836315178
0.2251063829787234 0.44975831779520975 0.5027536305219669
0.22531914893617022 0.44902034319872225 0.49438812784293623
0.225531914893617 0.44807703570785096 0.48199503981927144
0.22574468085106383 0.4509037616023448 0.4771355159364459
0.22595744680851063 0.4516864303775802 0.4750023424662866
0.22617021276595745 0.45158925488287704 0.4729186761943498
0.22638297872340427 0.4474842681359928 0.47435300134282105
0.22659574468085106 0.4464071915927016 0.4721988482562387
0.22680851063829788 0.44463324902156237 0.4700362778442297
0.22702127659574467 0.4416565302374096 0.4718754678085113
0.2272340425531915 0.44205384371309453 0.4751600655799287
0.22744680851063828 0.441133365901319 0.47130669587816454
0.2276595744680851 0.440787544852151 0.4698133344834621
0.22787234042553192 0.44003619410603034 0.46942214210302724
0.22808510638297871 0.4417137283848353 0.46735905518988496
0.22829787234042553 0.4441971380163312 0.47142159257449934
0.22851063829787233 0.4444951885988755 0.47329690361679344
0.22872340425531915 0.4445630344806786 0.4780416848826931
0.22893617021276597 0.4433375063683515 0.4843499625754532
0.22914893617021276 0.4440512056492489 0.4783538223018632
0.22936170212765958 0.4420151777112252 0.47494883981412445
0.22957446808510637 0.4420752878079693 0.47010290190518894
0.2297872340425532 0.4451240018897578 0.4642841282964231
0.23 0.44473635008789536 0.4603074659209361
0.2302127659574468 0.44541403441939026 0.4552617698186764
0.23042553191489362 0.4466281155311648 0.45353010442298625
0.23063829787234041 0.4472160272730753 0.4513446095046265
0.23085106382978723 0.44525771612606974 0.4491658744064801
0.23106382978723405 0.4460082212879673 0.4479829853559018
0.23127659574468085 0.44538340173233737 0.4509037616023448
0.23148936170212767 0.4485471565538986 0.45066224605740013
0.23170212765957446 0.44463912170526115 0.44778109719415904
0.23191489361702128 0.44669069765865943 0.4463857919953844
0.23212765957446807 0.4456010060827323 0.44462396651262975
0.2323404255319149 0.44663033822852516 0.4408868565180352
0.2325531914893617 0.4466876046774467 0.4343471325472401
0.2327659574468085 0.4467768446239402 0.4323400097703958
0.23297872340425532 0.44699560332193444 0.42710295692972783
0.23319148936170211 0.44609409010369894 0.4255762591315446
0.23340425531914893 0.4450468348049939 0.4216138169923254
0.23361702127659575 0.44590470612765304 0.42249370898658384
0.23382978723404255 0.44333402018371837 0.42024567221587333
0.23404255319148937 0.4450415241817294 0.4174889962538393
0.23425531914893616 0.4450415241817294 0.41670737664875435
0.23446808510638298 0.4450415241817294 0.41670737664875435
0.2346808510638298 0.4446542086749285 0.41515811462155083
0.2348936170212766 0.44406448461162684 0.412799218368344
0.2351063829787234 0.4434487786628304 0.41403063026593667
0.2353191489361702 0.44236800750802996 0.4169116101090316
0.23553191489361702 0.4446046770441347 0.422672959364283
0.23574468085106381 0.44316495812509726 0.4310529178660004
0.23595744680851063 0.44295450335121916 0.43851244446838944
0.23617021276595745 0.4405311443546627 0.44491658484058066
0.23638297872340425 0.4423313592695346 0.44387546316862947
0.23659574468085107 0.4399060741070367 0.44260292014424213
0.23680851063829786 0.44161187050956974 0.4396377610157634
0.23702127659574468 0.44195610976826116 0.4334713450436587
0.2372340425531915 0.4453850108354795 0.428141785227383
0.2374468085106383 0.44406448461162684 0.4220636050385756
0.2376595744680851 0.4449696256288851 0.41233958812919363
0.2378723404255319 0.44629950812592534 0.4087932348037527
0.23808510638297872 0.44413615091446274 0.4148727413466089
0.23829787234042554 0.4464938508273931 0.41880224120149306
0.23851063829787233 0.44766157572379145 0.424966274573917
0.23872340425531915 0.4463286397878278 0.4340308243367203
0.23893617021276595 0.4460225698235221 0.44555608343276715
0.23914893617021277 0.44956371368211373 0.45496253360466254
0.23936170212765956 0.44974810126063225 0.46414113832850884
0.23957446808510638 0.44851010120253904 0.4753795548498148
0.2397872340425532 0.44894968246213973 0.48474424623712825
0.24 0.4494173923256234 0.48756355540275964
0.2402127659574468 0.4490740498506808 0.4859173294540588
0.2404255319148936 0.44687145035075604 0.4822769966174816
0.24063829787234042 0.4460233846928126 0.4762778647791279
0.24085106382978724 0.44778015814591166 0.46573722406053436
0.24106382978723404 0.4487590338408025 0.45907757894242346
0.24127659574468086 0.44702001876936387 0.4545269324384366
0.24148936170212765 0.4476657835142477 0.44517081518460994
0.24170212765957447 0.45031761827949063 0.43598743652062844
0.2419148936170213 0.4533084179348865 0.42662954272063996
0.24212765957446808 0.4557889594528579 0.4161122645900468
0.2423404255319149 0.4557889594528579 0.4142568115087898
0.2425531914893617 0.4563720540205795 0.4136738602199264
0.2427659574468085 0.45547654412726835 0.4187523296997112
0.2429787234042553 0.45188080117244755 0.4269780307466679
0.24319148936170212 0.4524855543637681 0.4370382157347167
0.24340425531914894 0.45142089408422287 0.44185183923048255
0.24361702127659574 0.4509037616023448 0.44211040547142155
0.24382978723404256 0.4509037616023448 0.44400161561025875
0.24404255319148935 0.4500070004906451 0.4387778944690994
0.24425531914893617 0.4509037616023448 0.4316578901573157
0.244468085106383 0.4499950977961388 0.41607221589813426
0.24468085106382978 0.44755710451800534 0.4030511727594032
0.2448936170212766 0.4480234547456458 0.3929535558446398
0.2451063829787234 0.44894968246213973 0.38185823352682124
0.2453191489361702 0.4477791210376987 0.38094395626363525
0.24553191489361703 0.446397541410127 0.38609936316600835
0.24574468085106382 0.44883007803260827 0.39469913624752606
0.24595744680851064 0.4482976939136699 0.4085697820767097
0.24617021276595744 0.4461275738624302 0.4219155534057801
0.24638297872340426 0.4471729821352253 0.43085894079896625
0.24659574468085105 0.44992672203224227 0.4390665584281002
0.24680851063829787 0.4490648574015481 0.44423659788244957
0.2470212765957447 0.44699560332193444 0.44860277968347695
0.24723404255319148 0.44751423775567806 0.4560901059397804
0.2474468085106383 0.44902697161854666 0.4659458009359183
0.2476595744680851 0.44828560387368066 0.47755606502483006
0.2478723404255319 0.4502950756064472 0.4890851175278531
0.24808510638297873 0.45497458069141605 0.4973535377048486
0.24829787234042552 0.46287308990355247 0.5058628309880664
0.24851063829787234 0.45965785704784046 0.510483545035889
0.24872340425531914 0.457743038593063 0.5100969003741971
0.24893617021276596 0.457743038593063 0.5174323456063957
0.24914893617021278 0.457743038593063 0.5281684037010722
0.24936170212765957 0.4566033338420758 0.5398678852187785
0.2495744680851064 0.45578725670735554 0.5534826999901031
0.24978723404255318 0.4585548596846735 0.5623365883199206
0.25 0.4582735376359449 0.5677993019775535
0.2502127659574468 0.45525684108530967 0.5624956895640829
0.25042553191489364 0.4566955201777292 0.5575420324339897
0.25063829787234043 0.4539140978521497 0.5409762662269151
0.2508510638297872 0.4546311198580393 0.5294668455748376
0.251063829787234 0.4538348803126526 0.5157879214961516
0.25127659574468086 0.45173415087213925 0.5043476373573709
0.25148936170212766 0.447717963832333 0.49017519893937134
0.25170212765957445 0.4504109380319504 0.4759586916739321
0.2519148936170213 0.451018555638893 0.46372007005022664
0.2521276595744681 0.44699560332193444 0.4580128150775787
0.2523404255319149 0.44766319489860534 0.4538348803126526
0.2525531914893617 0.4478040979992071 0.4530711573373643
0.2527659574468085 0.4460185637518319 0.45072692629013894
0.2529787234042553 0.4488592363640557 0.44692063059626563
0.2531914893617021 0.45212308411080654 0.4429623496640116
0.25340425531914895 0.4509037616023448 0.440025291865258
0.25361702127659574 0.4506333133302134 0.43506162144385746
0.25382978723404254 0.45012302754318007 0.4301941131038392
0.2540425531914894 0.4507415933700757 0.4328305446436909
0.2542553191489362 0.44992672203224227 0.4305629009194191
0.25446808510638297 0.4494794779105193 0.43158659226115453
0.25468085106382976 0.4481827154360546 0.4306594294182567
0.2548936170212766 0.4490996599636298 0.4228739406931838
0.2551063829787234 0.44978483972371447 0.413350611012863
0.2553191489361702 0.44802943106500737 0.4080843850367414
0.25553191489361704 0.4479726428920372 0.40511845659636603
0.25574468085106383 0.45478593931444095 0.40205178309721545
0.2559574468085106 0.44699560332193444 0.4030356757643795
0.2561702127659574 0.4480987907552566 0.4106245017414743
0.25638297872340426 0.4512609486729249 0.41172765715660403
0.25659574468085106 0.449519757634 0.4177651590698632
0.25680851063829785 0.4494474022040145 0.4265881718316622
0.2570212765957447 0.44658359830572075 0.43456875892141017
0.2572340425531915 0.4456117667393688 0.44398457868951624
0.2574468085106383 0.44742243173063195 0.4504769331936474
0.25765957446808513 0.4471571800638542 0.4495189906181508
0.2578723404255319 0.4454993173013743 0.4463534502098516
0.2580851063829787 0.44440674383484635 0.4459688256522759
0.2582978723404255 0.44481509581938444 0.44249193607538856
0.25851063829787235 0.447620017990097 0.43941437002907385
0.25872340425531914 0.4431088219450861 0.4333427016247727
0.25893617021276594 0.4421868784971517 0.4394087058383042
0.2591489361702128 0.44422437150494387 0.443057844190938
0.2593617021276596 0.4474274861631393 0.448822238880735
0.25957446808510637 0.44406448461162684 0.45830555582698534
0.2597872340425532 0.4445981966578295 0.46449193106147835
0.26 0.44633736997031415 0.4649011218022634
0.2602127659574468 0.4454667385528671 0.46861708469201857
0.2604255319148936 0.4484383405611646 0.4711659216240118
0.26063829787234044 0.44894968246213973 0.4609100690919108
0.26085106382978723 0.44894968246213973 0.45095270915456104
0.261063829787234 0.448753148283769 0.4415208029363093
0.2612765957446809 0.4482743386826948 0.4370674162265107
0.26148936170212767 0.4485307345844143 0.4323400097703958
0.26170212765957446 0.44850842194727425 0.4344831259913441
0.26191489361702125 0.44894968246213973 0.4382043527561867
0.2621276595744681 0.4466489984950252 0.443013760039638
0.2623404255319149 0.446900473426553 0.4475921233105113
0.2625531914893617 0.4469671617070529 0.45294316558719466
0.26276595744680853 0.4452448775362674 0.4592284615495106
0.2629787234042553 0.4467804267236882 0.4636052760136786
0.2631914893617021 0.44634794844773207 0.4632758913177784
0.26340425531914896 0.44832884505256576 0.46262823644357587
0.26361702127659575 0.4493665778005772 0.46094780374858063
0.26382978723404255 0.44894968246213973 0.4590212520659004
0.26404255319148934 0.45132710382070534 0.453172761659846
0.2642553191489362 0.4491552437476039 0.4500637628892184
0.264468085106383 0.4502226366091674 0.4436206127462391
0.26468085106382977 0.4541562581195586 0.433964967414064
0.2648936170212766 0.44575145558009904 0.4263863792329511
0.2651063829787234 0.4450415241817294 0.42165703228263757
0.2653191489361702 0.4460153903789307 0.4167137233945567
0.265531914893617 0.44699560332193444 0.4117617080120753
0.26574468085106384 0.44764730506356304 0.4085646961747792
0.26595744680851063 0.44723858123546406 0.4071799588612579
0.2661702127659574 0.44784818717785735 0.4120524840832651
0.2663829787234043 0.44894299392108106 0.41862132454260736
0.26659574468085107 0.4461192726945329 0.42317386772557575
0.26680851063829786 0.44699560332193444 0.42876418477884526
0.2670212765957447 0.4476231465777585 0.4293400252038171
0.2672340425531915 0.45019178181732533 0.4255007327796776
0.2674468085106383 0.45235864480032717 0.4265918951781644
0.2676595744680851 0.45528104879817666 0.43499965630588533
0.26787234042553193 0.4557889594528579 0.4502861893502826
0.2680851063829787 0.4557889594528579 0.46624894319125954
0.2682978723404255 0.45741163378906746 0.4834259476940736
0.26851063829787236 0.457743038593063 0.4971912695375865
0.26872340425531915 0.456966490230172 0.5152132984878595
0.26893617021276595 0.4595144177686282 0.5279628081466445
0.26914893617021274 0.4589802743045565 0.5372071849082248
0.2693617021276596 0.46075555201615087 0.5421144449053863
0.2695744680851064 0.46258166004590695 0.5456765999022961
0.26978723404255317 0.4598605114361173 0.539574255897895
0.27 0.45918377660919407 0.5231381327682734
0.2702127659574468 0.46072221055412566 0.49954748775658053
0.2704255319148936 0.45947318469157483 0.4730091130346469
0.27063829787234045 0.46239086630532755 0.45275160255501373
0.27085106382978724 0.45724896934518106 0.43962595928359915
0.27106382978723403 0.45627002584088094 0.4294237978541442
0.2712765957446808 0.457743038593063 0.4202221861175296
0.2714893617021277 0.45475077565819033 0.4139440875502661
0.27170212765957447 0.4521866532597565 0.40867865073610327
0.27191489361702126 0.45104708125645143 0.40457914085384683
0.2721276595744681 0.4509037616023448 0.4023728360617093
0.2723404255319149 0.4509037616023448 0.40205178309721545
0.2725531914893617 0.45157685401664 0.4027248755115105
0.2727659574468085 0.45131726093999547 0.40753714452693396
0.27297872340425533 0.45121428925205004 0.41457147102460107
0.2731914893617021 0.4517885867418464 0.42146304090215636
0.2734042553191489 0.45123651795066405 0.4264353134000702
0.27361702127659576 0.44974517729167524 0.432486896577329
0.27382978723404255 0.446398168193031 0.43973627845164365
0.27404255319148935 0.4457557986540876 0.44639605230557106
0.2742553191489362 0.44525675065461784 0.4517817083781077
0.274468085106383 0.45016262744706687 0.45578418546560007
0.2746808510638298 0.44636728101985756 0.46700539359205606
0.27489361702127657 0.4425192788929828 0.47619350087095136
0.2751063829787234 0.44130122589213655 0.4910398828429601
0.2753191489361702 0.4396170527597359 0.49540981582844185
0.275531914893617 0.44410150170726725 0.49866027608200886
0.27574468085106385 0.44734992625788494 0.496427333842342
0.27595744680851064 0.4448588885275426 0.49362504051116357
0.27617021276595743 0.4425043729317461 0.48883495834831
0.2763829787234042 0.44154972019325 0.4793489627879792
0.2765957446808511 0.4417116112057153 0.46683552232765535
0.27680851063829787 0.44155160735834226 0.45159283083804524
0.27702127659574466 0.4430010199273416 0.43519312798801973
0.2772340425531915 0.4465296604068904 0.42178039221677494
0.2774468085106383 0.44894968246213973 0.4109508255537667
0.2776595744680851 0.4503694042018228 0.40255558208742365
0.27787234042553194 0.4507132987819454 0.4008842807067133
0.27808510638297873 0.45131797175197164 0.40079332881687496
0.2782978723404255 0.45512319475792123 0.4018853419234813
0.2785106382978723 0.4557889594528579 0.40852816802244174
0.27872340425531916 0.453051639425143 0.41514089487373484
0.27893617021276595 0.4554302612338972 0.4220503278050075
0.27914893617021275 0.4538348803126526 0.4284318514899854
0.2793617021276596 0.45422336793769086 0.4295973143651001
0.2795744680851064 0.4534401454754101 0.431362970200293
0.2797872340425532 0.451351037413281 0.43348202523695895
0.27999999999999997 0.4547113600449866 0.4378095274424645
0.2802127659574468 0.45376670369007377 0.44292840592722216
0.2804255319148936 0.4502710939310561 0.4449267335487914
0.2806382978723404 0.45481158296520646 0.4548112460476577
0.28085106382978725 0.4509037616023448 0.45538622934135625
0.28106382978723404 0.4500126886547985 0.4601426542070414
0.28127659574468084 0.44699560332193444 0.46134113069580596
0.2814893617021277 0.44781536344875067 0.4614939174301869
0.2817021276595745 0.44741821763081024 0.4631387247206858
0.28191489361702127 0.4466391857843906 0.4623640319485611
0.28212765957446806 0.44772884030429716 0.45945148592638546
0.2823404255319149 0.4488196763234971 0.45448491100586585
0.2825531914893617 0.4450998172583253 0.4528724140116991
0.2827659574468085 0.4458580208759222 0.45790358146897275
0.28297872340425534 0.4440580696163856 0.45969711773326827
0.28319148936170213 0.443316411674582 0.4600405676828551
0.2834042553191489 0.4450415241817294 0.46285486146968835
0.2836170212765957 0.44537974379727574 0.4646199348603178
0.28382978723404256 0.44827005468418435 0.46518550016457483
0.28404255319148936 0.4497734758754949 0.46077956169655354
0.28425531914893615 0.4475872861270431 0.45395169099032784
0.284468085106383 0.4485876293483321 0.4447166840536586
0.2846808510638298 0.44804505872097805 0.443992068782686
0.2848936170212766 0.44319806223860997 0.4461568352481892
0.2851063829787234 0.44673561894956637 0.45207369127800107
0.2853191489361702 0.4448700191730141 0.46055464277684455
0.285531914893617 0.4452027311071531 0.4657205620793074
0.2857446808510638 0.44685066520082417 0.4703604366828798
0.28595744680851065 0.4468456042209513 0.47427771173431543
0.28617021276595744 0.44894968246213973 0.47420665022167013
0.28638297872340424 0.44894968246213973 0.4693352828559114
0.2865957446808511 0.4513168545866555 0.463568147419896
0.2868085106382979 0.4509806061016126 0.4572270660185673
0.28702127659574467 0.4509037616023448 0.45676599902296044
0.28723404255319146 0.4506024190701938 0.45736868408726244
0.2874468085106383 0.44775946925759963 0.462578498430635
0.2876595744680851 0.44580192442656047 0.470807060284103
0.2878723404255319 0.4505547440306597 0.4785048674194732
0.28808510638297874 0.45126253931427635 0.485000852990244
0.28829787234042553 0.45027434049267073 0.492832107901059
0.2885106382978723 0.4509037616023448 0.5027293821444923
0.28872340425531917 0.449834024629864 0.5098042280156351
0.28893617021276596 0.4495980518446806 0.5131056239013488
0.28914893617021276 0.4492500584741144 0.5080209856238873
0.28936170212765955 0.4475007442784147 0.4947509411501529
0.2895744680851064 0.44864946824252955 0.4702890724691136
0.2897872340425532 0.44706993087970254 0.440219872569867
0.29 0.44324334299734036 0.4238275071009034
0.2902127659574468 0.4454035988911929 0.38981871722638856
0.2904255319148936 0.44729233551737496 0.3675731024437716
0.2906382978723404 0.44756580719280964 0.34473635426424115
0.2908510638297872 0.44801800792683466 0.32794505779348826
0.29106382978723405 0.44957241309195345 0.3153529231103767
0.29127659574468084 0.4505622338229029 0.30771556011315254
0.29148936170212764 0.4543828272322487 0.3053248656570591
0.2917021276595745 0.4598485906645061 0.3077606443840481
0.2919148936170213 0.4542661907086345 0.3192410699583433
0.29212765957446807 0.45691484959746465 0.3417387116349538
0.2923404255319149 0.45936484046227355 0.36891160668525363
0.2925531914893617 0.45941419457913757 0.39589343105311453
0.2927659574468085 0.4647679580849535 0.42521743615002383
0.2929787234042553 0.462574108427666 0.4559919395125199
0.29319148936170214 0.46051297603792635 0.49195932750152643
0.29340425531914893 0.45886274887097817 0.5279255615480509
0.2936170212765957 0.457743038593063 0.5643691245361567
0.29382978723404257 0.457743038593063 0.597837444732664
0.29404255319148936 0.4606741573033708 0.621426333585202
0.29425531914893616 0.460152355381786 0.6300498708788419
0.29446808510638295 0.45861542123574484 0.6272941688579148
0.2946808510638298 0.46026821040321336 0.6076637098161637
0.2948936170212766 0.45969711773326827 0.5799740605413107
0.2951063829787234 0.4584266883315757 0.5462093853166261
0.29531914893617023 0.458496075476886 0.517609316303238
0.295531914893617 0.4587200781631655 0.4933109163057217
0.2957446808510638 0.45380559299880247 0.4752126015995091
0.29595744680851066 0.4504257671470095 0.46384427324134625
0.29617021276595745 0.44770586331880663 0.46295506849868573
0.29638297872340424 0.4488599191773564 0.4544563189311266
0.29659574468085104 0.4474719628895026 0.45145308247481225
0.2968085106382979 0.446780874429861 0.4441826086134352
0.2970212765957447 0.4460185637518319 0.44041843521913315
0.29723404255319147 0.44532053429174223 0.43596814957067825
0.2974468085106383 0.4450415241817294 0.43429408891060084
0.2976595744680851 0.44417009703412563 0.4360369432058085
0.2978723404255319 0.4450511557093874 0.43338447003410463
0.29808510638297875 0.446135891485289 0.4401563263312165
0.29829787234042554 0.44664291097823877 0.4399799801593686
0.29851063829787233 0.4456059167259154 0.43861489421692773
0.2987234042553191 0.44659894671722905 0.4384151774350249
0.298936170212766 0.44551005049050385 0.43812227328590425
0.29914893617021276 0.4456587916107277 0.43933450519579775
0.29936170212765956 0.4452901639764724 0.4447753647781165
0.2995744680851064 0.44584128231710907 0.44921759629335095
0.2997872340425532 0.4469203093852687 0.44812323076536864
0.3 0.44584220274890796 0.44699560332193444
0.3002127659574468 0.44243330314119633 0.44651125681727233
0.30042553191489363 0.4437909794838348 0.44297046410045887
0.3006382978723404 0.4434775175909397 0.4393761812323854
0.3008510638297872 0.44305424801917515 0.4351715374136564
0.30106382978723406 0.44577735653559714 0.42622842466343647
0.30127659574468085 0.44653146347024086 0.4196872552257772
0.30148936170212765 0.4451851608437471 0.4086606208919409
0.3017021276595745 0.4450415241817294 0.40409275433473024
0.3019148936170213 0.4463473179845914 0.4023805373299749
0.3021276595744681 0.45031466798334974 0.406541860304287
0.30234042553191487 0.45157578292292916 0.41194124258311726
0.3025531914893617 0.450484535602006 0.4224344897920085
0.3027659574468085 0.44992672203224227 0.43085037628916145
0.3029787234042553 0.4478673039153454 0.43892777967361873
0.30319148936170215 0.4488417312295561 0.4476045130058829
0.30340425531914894 0.4490869600444541 0.45150936212164183
0.30361702127659573 0.4479726428920372 0.4525320701319075
0.3038297872340425 0.445911871932659 0.4528578407425501
0.3040425531914894 0.4435941424202126 0.45068676810027497
0.30425531914893617 0.4454831643910936 0.45312101449833486
0.30446808510638296 0.4512344101158467 0.45209626485798116
0.3046808510638298 0.44449272730627915 0.4491102734726344
0.3048936170212766 0.4450189433987818 0.45181305882360473
0.3051063829787234 0.4488892426757121 0.45392553999229407
0.30531914893617024 0.4454332896342991 0.4591094695544137
0.30553191489361703 0.4459720814596946 0.4634193468451292
0.3057446808510638 0.447019006916152 0.4685450822506991
0.3059574468085106 0.44940410070652936 0.475105770286747
0.30617021276595746 0.44381604763739246 0.472641499676558
0.30638297872340425 0.4480323933927292 0.47435271128480694
0.30659574468085105 0.44434230310665157 0.47327711865755484
0.3068085106382979 0.4485326059256352 0.4666316523887154
0.3070212765957447 0.4443597366372226 0.45742638502181726
0.3072340425531915 0.4465262128544853 0.44584382818216345
0.30744680851063827 0.447579329321681 0.4368953648603492
0.3076595744680851 0.4476100355163092 0.4337635983224418
0.3078723404255319 0.447531661174589 0.4375711132031505
0.3080851063829787 0.44680471314139597 0.4468273018088058
0.30829787234042555 0.4463161950578289 0.4588042238152776
0.30851063829787234 0.44365074224564327 0.46721432461781764
0.30872340425531913 0.44488369313499976 0.4717128235511386
0.308936170212766 0.44699560332193444 0.4781149657782144
0.3091489361702128 0.44927244958323337 0.4840380461021488
0.30936170212765957 0.44784740018999386 0.4891335475383891
0.30957446808510636 0.44959319670209386 0.4931071637467082
0.3097872340425532 0.45173102641789437 0.49223897305576
0.31 0.4490513909161335 0.48628060303402554
0.3102127659574468 0.4521163297640327 0.4819684244578045
0.31042553191489364 0.4543312196983945 0.46784954028504394
0.31063829787234043 0.4514471623748637 0.4637150379886136
0.3108510638297872 0.4503487196759425 0.46109615494707096
0.311063829787234 0.4517414521897593 0.4627675854262641
0.31127659574468086 0.44902706079682336 0.46548197681920006
0.31148936170212765 0.45071881009937453 0.4611365360607965
0.31170212765957445 0.4501497512085241 0.4523800429713425
0.3119148936170213 0.44992672203224227 0.4388558545048432
0.3121276595744681 0.45108076551748916 0.42177661448803005
0.3123404255319149 0.4527908255519026 0.4042210019541679
0.3125531914893617 0.45157697337611363 0.3874523805580491
0.3127659574468085 0.44723287302602077 0.373061747959496
0.3129787234042553 0.44773457387637594 0.3645671759098251
0.3131914893617021 0.4461190648504204 0.36189265962442085
0.31340425531914895 0.44884952377070336 0.3591622007041379
0.31361702127659574 0.4479044747267587 0.3595392191696509
0.31382978723404253 0.44644801479989565 0.366083848510766
0.3140425531914894 0.4443584074041084 0.36952366370585654
0.3142553191489362 0.44381187308989445 0.37485194730988897
0.31446808510638297 0.44316550115817155 0.37793801831124013
0.31468085106382976 0.44277475631688856 0.38346854456716833
0.3148936170212766 0.44590799443821083 0.3966173555290946
0.3151063829787234 0.44699560332193444 0.41061605999652373
0.3153191489361702 0.4479294838682764 0.43748416176347327
0.31553191489361704 0.4434533148504938 0.4709268324316227
0.31574468085106383 0.4460185637518319 0.5093744235372473
0.3159574468085106 0.44709725885777407 0.5412450813031853
0.31617021276595747 0.44847294865521936 0.5649816717417295
0.31638297872340426 0.4497496472272674 0.587426817351986
0.31659574468085105 0.4496314513758208 0.6005948588836244
0.31680851063829785 0.4496581736030902 0.6047389168202497
0.3170212765957447 0.44992672203224227 0.6036308398943517
0.3172340425531915 0.4508376907024202 0.6033219345383487
0.3174468085106383 0.45010865436552944 0.5840304533732511
0.3176595744680851 0.4538348803126526 0.565667934869779
0.3178723404255319 0.4548979299411567 0.5417839060857289
0.3180851063829787 0.4566489208971963 0.5199358082236664
0.3182978723404255 0.45481191988275516 0.5014999607866694
0.31851063829787235 0.455393456482002 0.48419341412805506
0.31872340425531914 0.45509475433883784 0.47201302353903785
0.31893617021276593 0.4539995386237173 0.44672083818123254
0.3191489361702128 0.4575689482458156 0.4215730318390253
0.3193617021276596 0.4585978889611258 0.40380347769059655
0.31957446808510637 0.45948800158647257 0.38629792939210944
0.3197872340425532 0.4603781142118196 0.3687923810936178
0.32 0.4618952804819843 0.35930683075727116
0.3202127659574468 0.4600474463997743 0.3596887529162978
0.3204255319148936 0.45645710624455 0.37233098074598503
0.32063829787234044 0.45665836555371897 0.3826269635113343
0.32085106382978723 0.4557518967467591 0.39438371736079003
0.321063829787234 0.4516431734367256 0.41188793541167246
0.32127659574468087 0.45012359610258057 0.4280527649124867
0.32148936170212766 0.44993993643165847 0.43622173925197355
0.32170212765957445 0.4472474382891472 0.44211040547142155
0.32191489361702125 0.4490086481317247 0.44107440023173405
0.3221276595744681 0.45188080117244755 0.43603768627703243
0.3223404255319149 0.45150927103846167 0.42889981009424727
0.3225531914893617 0.4523428305385496 0.4240793241227721
0.3227659574468085 0.4538348803126526 0.42159257449926724
0.3229787234042553 0.4524215774194361 0.42583248317891687
0.3231914893617021 0.45188080117244755 0.43238163306543637
0.32340425531914896 0.45188080117244755 0.4379801544073238
0.32361702127659575 0.4528578407425501 0.4480425144435254
0.32382978723404254 0.4528578407425501 0.4487673578615951
0.32404255319148934 0.4537404839490206 0.4456189276747825
0.3242553191489362 0.4557889594528579 0.43552554694872986
0.324468085106383 0.45430668840549465 0.42449026982515614
0.32468085106382977 0.4551895069178044 0.4177478063617151
0.3248936170212766 0.4534502081410337 0.4204146659872132
0.3251063829787234 0.44992672203224227 0.42982598878223477
0.3253191489361702 0.4523306568649579 0.44115443749035266
0.325531914893617 0.4519880727074971 0.4526548934271078
0.32574468085106384 0.4548098191054123 0.46165907478850904
0.32595744680851063 0.4509037616023448 0.4778229433421903
0.3261702127659574 0.4515546372172834 0.49573547181943406
0.32638297872340427 0.4538348803126526 0.511128073636965
0.32659574468085106 0.4533887830105488 0.5089951935405015
0.32680851063829786 0.4528578407425501 0.5111633917731787
0.3270212765957447 0.4528578407425501 0.5000965951082538
0.3272340425531915 0.45132401475174566 0.48775819872364146
0.3274468085106383 0.4509037616023448 0.4702030302008339
0.3276595744680851 0.4509037616023448 0.45799805822771655
0.3278723404255319 0.45207845520094125 0.4498608373560777
0.3280851063829787 0.4539900770182247 0.4499084991374253
0.3282978723404255 0.4500936343858679 0.4567041209918405
0.32851063829787236 0.45349096963024665 0.4590092963684563
0.32872340425531915 0.45331705456875565 0.4549877556358296
0.32893617021276594 0.4538348803126526 0.4461048492393434
0.32914893617021274 0.4506415252203577 0.43572369528683175
0.3293617021276596 0.447524982365661 0.42307945914328443
0.3295744680851064 0.4486274574291855 0.4082155166083049
0.32978723404255317 0.4452477655816656 0.3957796699563219
0.33 0.4449840878318312 0.38722388049598194
0.3302127659574468 0.44406448461162684 0.38481179614323635
0.3304255319148936 0.444642545054727 0.3875752708617744
0.33063829787234045 0.4456153955015712 0.3923431495072881
0.33085106382978724 0.4440090736500834 0.3993423082330809
0.33106382978723403 0.44624638773304887 0.4080831309737575
0.3312765957446808 0.4479726428920372 0.42054109955706226
0.33148936170212767 0.447113466781364 0.4398709997422608
0.33170212765957446 0.44796804453197125 0.4537796999918615
0.33191489361702126 0.4481954696704813 0.46340813016813026
0.3321276595744681 0.44879939733389795 0.47059483813263836
0.3323404255319149 0.44741820479566546 0.47435271128480694
0.3325531914893617 0.45188080117244755 0.4716268848423037
0.3327659574468085 0.451313408361822 0.4684904738641915
0.33297872340425533 0.4509037616023448 0.4712216460471199
0.3331914893617021 0.4532447049054972 0.4770805187509064
0.3334042553191489 0.45735583253703527 0.4905842023505566
0.33361702127659576 0.457743038593063 0.5051934435711589
0.33382978723404255 0.45534019693327443 0.5112246080675963
0.33404255319148934 0.4564683770277784 0.5132854830913195
0.3342553191489362 0.4558309618095674 0.5096941452353381
0.334468085106383 0.4573241899911637 0.5015699292127174
0.3346808510638298 0.4524251672071706 0.4837880294878024
0.33489361702127657 0.45365145860662115 0.46482566832975797
0.3351063829787234 0.45130558345892663 0.4453966213244359
0.3353191489361702 0.4513607616580592 0.4249964171102867
0.335531914893617 0.4515260316913333 0.41457306577391473
0.33574468085106385 0.4511546576214993 0.41062078771549954
0.33595744680851064 0.4517402073760073 0.41070454543169843
0.33617021276595743 0.4537936292937287 0.42423493607710766
0.3363829787234042 0.4498362000432789 0.4397411210033887
0.33659574468085107 0.4490980117219439 0.4565918710004056
0.33680851063829786 0.4507206258698936 0.46971201007459146
0.33702127659574466 0.4509508496102944 0.4839818429619844
0.3372340425531915 0.4484542855912596 0.4977328901089803
0.3374468085106383 0.4495228391383 0.5026868588177822
0.3376595744680851 0.44992672203224227 0.500693950808232
0.33787234042553194 0.44915924025359144 0.4882435134277114
0.33808510638297873 0.44894968246213973 0.4764071803935922
0.3382978723404255 0.4470006281454775 0.46558447927159896
0.3385106382978723 0.4524191506250375 0.4601257946564801
0.33872340425531916 0.44828039419205484 0.4544503829126882
0.33893617021276595 0.4453490274257973 0.4485876493801729
0.33914893617021274 0.44451253179016065 0.443330280680629
0.3393617021276596 0.4456032031769221 0.4339778573840961
0.3395744680851064 0.4453421983085777 0.4253506984005623
0.3397872340425532 0.4426629327103435 0.414032287753929
0.34 0.44211040547142155 0.40367103224019807
0.3402127659574468 0.44314993413610704 0.40161435943513485
0.3404255319148936 0.44490439122515935 0.387413298419789
0.3406382978723404 0.44331686056293246 0.3790418719627465
0.34085106382978725 0.441133365901319 0.3677899238989033
0.34106382978723404 0.441133365901319 0.35768523550054543
0.34127659574468083 0.4399672154996368 0.35242761855966537
0.3414893617021277 0.4426351614763027 0.3540104252240319
0.3417021276595745 0.44885787690242557 0.36314287088362246
0.34191489361702126 0.44992672203224227 0.3665951068794719
0.34212765957446806 0.44805478983488733 0.37249415516558715
0.3423404255319149 0.45075568468098637 0.37897302571814945
0.3425531914893617 0.44876523710743527 0.38459470339349316
0.3427659574468085 0.4476831968701659 0.3913763908389805
0.34297872340425534 0.4481773586058051 0.4005226483841256
0.34319148936170213 0.44841095554434013 0.4140105578912715
0.3434042553191489 0.44638232192581034 0.43042803726715123
0.34361702127659577 0.44890899835416753 0.4492551237613164
0.34382978723404256 0.44742172039450506 0.4755448945063745
0.34404255319148935 0.4507937887457499 0.5020270216782127
0.34425531914893615 0.4491192418990073 0.5376865782883797
0.344468085106383 0.450709101323332 0.5595385996376302
0.3446808510638298 0.45083879915177527 0.5738808225341319
0.3448936170212766 0.45327117438263015 0.5770922384355213
0.3451063829787234 0.45334726465691294 0.5774276735426954
0.3453191489361702 0.45068510815112983 0.5767232126943638
0.345531914893617 0.45214422834849943 0.5756266961826456
0.3457446808510638 0.45532583665520193 0.5737283920616525
0.34595744680851065 0.4540841899782576 0.5721813231278684
0.34617021276595744 0.4528701074513928 0.5653032582662466
0.34638297872340423 0.4547116870831594 0.5578516618897957
0.3465957446808511 0.45425595438955696 0.5417520417938634
0.3468085106382979 0.45643252553387675 0.525872477702606
0.34702127659574467 0.4560110370346923 0.5058623646580772
0.3472340425531915 0.45438046248253067 0.48352744145917526
0.3474468085106383 0.45811275066088397 0.4634467600536463
0.3476595744680851 0.45660315718499567 0.44459370626290445
0.3478723404255319 0.4620100784434032 0.43491224691077357
0.34808510638297874 0.4624616940416938 0.4263350217195955
0.34829787234042553 0.45592392939988147 0.42142535461130615
0.3485106382978723 0.45676599902296044 0.4267233230232197
0.34872340425531917 0.45676599902296044 0.4301853536264954
0.34893617021276596 0.4554962112917963 0.4365409162118675
0.34914893617021275 0.4533090236636454 0.4413573870850549
0.34936170212765955 0.4541154941954438 0.44280683115873304
0.3495744680851064 0.45628340529640526 0.44358189088507166
0.3497872340425532 0.45676599902296044 0.44349636255813496
0.35 0.454486619456128 0.4426315691281576
0.3502127659574468 0.4529625690232363 0.44643747687457663
0.3504255319148936 0.45122773352782786 0.44275706837397405
0.3506382978723404 0.451454060842662 0.4368882785454844
0.35085106382978726 0.45188080117244755 0.4336161306343294
0.35106382978723405 0.44900405717953606 0.4333279242839776
0.35127659574468084 0.4538348803126526 0.43441805883129475
0.35148936170212763 0.452402954001425 0.4352711284807034
0.3517021276595745 0.4497423044458215 0.43597899310221716
0.3519148936170213 0.4523900789524893 0.4381607312010303
0.35212765957446807 0.45188080117244755 0.4397628712805501
0.3523404255319149 0.45257989384419406 0.4429526970182026
0.3525531914893617 0.45204301781423656 0.4465089533965675
0.3527659574468085 0.45370589278477663 0.4506457865465928
0.3529787234042553 0.4528598185397741 0.45187882337522356
0.35319148936170214 0.45367254161026155 0.4555183949488728
0.35340425531914893 0.4509282894521764 0.45094464135206414
0.3536170212765957 0.4536494100001726 0.4496485165635222
0.35382978723404257 0.45035138860958235 0.44363981803428676
0.35404255319148936 0.45353571621033395 0.43925883402426047
0.35425531914893615 0.45152439063940913 0.4339376783775624
0.354468085106383 0.45043601694336893 0.43149118491851796
0.3546808510638298 0.4530653131719386 0.42724733949049415
0.3548936170212766 0.4538348803126526 0.4279591432249901
0.3551063829787234 0.45266099121260567 0.4332204265954309
0.3553191489361702 0.4505689432501682 0.43655557091655517
0.355531914893617 0.45188080117244755 0.4402598893747183
0.3557446808510638 0.45188080117244755 0.4417075354442636
0.35595744680851066 0.45097843560302353 0.440231000331895
0.35617021276595745 0.44943442923212124 0.43671782276050836
0.35638297872340424 0.44630605149722463 0.43270791033165174
0.35659574468085103 0.4457582704750775 0.42966918433684237
0.3568085106382979 0.4482303964937061 0.423492678802899
0.3570212765957447 0.44772871210754617 0.41756310904268085
0.35723404255319147 0.44699560332193444 0.4157303370786516
0.3574468085106383 0.44739371784462956 0.4173227951694317
0.3576595744680851 0.44839242676570956 0.4225769824747688
0.3578723404255319 0.44775597884745794 0.43165048801340117
0.35808510638297875 0.4463580156281577 0.4442710649060009
0.35829787234042554 0.4481929086229772 0.45742679621578103
0.35851063829787233 0.44999791767951536 0.4682768869223721
0.3587234042553191 0.4479726428920372 0.47544453066784653
0.35893617021276597 0.4477533373825079 0.4784801750747466
0.35914893617021276 0.44608528363505173 0.48022829268206657
0.35936170212765955 0.45060452882422564 0.48113214171990126
0.3595744680851064 0.45354885500204944 0.4767834992760175
0.3597872340425532 0.4538348803126526 0.47239747859486536
0.36 0.4497806529615005 0.4653402515477709
0.3602127659574468 0.44970901383737866 0.4632070267586898
0.3604255319148936 0.4503762258125956 0.46149513285468186
0.3606382978723404 0.44895582305955123 0.4567844208151949
0.3608510638297872 0.4492373915993862 0.45299171450775333
0.36106382978723406 0.450604041569707 0.4509816410745341
0.36127659574468085 0.45024071337590493 0.44832169977481434
0.36148936170212764 0.45296409859183817 0.44287492934294787
0.3617021276595745 0.45207031980878576 0.4370160580589631
0.3619148936170213 0.4537957740657593 0.43255888143255217
0.3621276595744681 0.4557889594528579 0.4273127792581425
0.36234042553191487 0.45712771432526544 0.4268394876520851
0.3625531914893617 0.4541631823790613 0.42817078316268314
0.3627659574468085 0.45532985822682337 0.42595983400571213
0.3629787234042553 0.45303373100203115 0.43009278019772207
0.36319148936170215 0.4509479004204018 0.4381139695548973
0.36340425531914894 0.4520383173842586 0.43624816805080613
0.36361702127659573 0.45312978844692336 0.4384237496857926
0.3638297872340425 0.45344745203313125 0.44522676945019096
0.36404255319148937 0.4528578407425501 0.44900892584811153
0.36425531914893616 0.4528578407425501 0.45338411997549566
0.36446808510638296 0.45065315101136066 0.45628171303688153
0.3646808510638298 0.44907717942334996 0.46101371206742225
0.3648936170212766 0.44991146037795027 0.46549830853671564
0.3651063829787234 0.45135661319505843 0.4798494617756074
0.36531914893617023 0.44621479169860484 0.48666586996635686
0.365531914893617 0.44859775761053355 0.49469457983115833
0.3657446808510638 0.44699560332193444 0.4952622859272767
0.3659574468085106 0.44661510264231613 0.49877870053737183
0.36617021276595746 0.4484918384793536 0.4948214609733371
0.36638297872340425 0.4496825588901479 0.48607757312776323
0.36659574468085104 0.4482224135423785 0.4809642606564466
0.3668085106382979 0.44965961301501084 0.4751540383365013
0.3670212765957447 0.44705397966426663 0.4705223881275062
0.3672340425531915 0.44708419692508317 0.4707989274169915
0.36744680851063827 0.4479726428920372 0.47371271605800325
0.3676595744680851 0.4479726428920372 0.47117545719788034
0.3678723404255319 0.44957014391895544 0.4720444208589392
0.3680851063829787 0.4545937853138759 0.46621375886052185
0.36829787234042555 0.4542994465717078 0.46113872356242586
0.36851063829787234 0.45531037987079165 0.4554051742588455
0.36872340425531913 0.45530432495241924 0.45212700370727954
0.368936170212766 0.45481191988275516 0.44848706581382636
0.36914893617021277 0.45578112952124966 0.4450650139765541
0.36936170212765956 0.4510010590184043 0.442698255377286
0.36957446808510636 0.4515566868270039 0.43934134393383556
0.3697872340425532 0.44964778072272116 0.44071420895025865
0.37 0.4501351203258547 0.4417152595168499
0.3702127659574468 0.44982264089572704 0.441133365901319
0.37042553191489364 0.44734279579003305 0.4379841303912989
0.3706382978723404 0.44625191950867454 0.43178606517124646
0.3708510638297872 0.4468765677679335 0.4286699225979873
0.371063829787234 0.44699560332193444 0.42933402676765114
0.37127659574468086 0.44699560332193444 0.43033510501990185
0.37148936170212765 0.44425855211765686 0.4340353322358942
0.37170212765957444 0.4459905880490907 0.44103545094172486
0.3719148936170213 0.44726303162767644 0.4478835001234565
0.3721276595744681 0.4491719825704072 0.448127712514687
0.3723404255319149 0.4460185637518319 0.45199828094306344
0.3725531914893617 0.446815350566472 0.4483331484029622
0.3727659574468085 0.4474624582782973 0.4434676406831328
0.3729787234042553 0.44699560332193444 0.4367568032457477
0.3731914893617021 0.44699560332193444 0.4299216555631459
0.37340425531914895 0.44699560332193444 0.42509563518322785
0.37361702127659574 0.44794920115155556 0.422616497550333
0.37382978723404253 0.45170023429204476 0.4308373478311974
0.3740425531914894 0.4507411554153396 0.43628917020957503
0.37425531914893617 0.45223726924608787 0.4439905928909719
0.37446808510638296 0.44894968246213973 0.4549577502830184
0.37468085106382976 0.44796636887947033 0.4592117349545003
0.3748936170212766 0.445383533399308 0.4623839009376458
0.3751063829787234 0.44730371269398744 0.46523016120025323
0.3753191489361702 0.4512443930871899 0.46326464452883354
0.37553191489361704 0.4501148412418053 0.4617452564782548
0.37574468085106383 0.44986685013194877 0.46647652282369273
0.3759574468085106 0.44715794622176475 0.46311824731418766
0.37617021276595747 0.44954787233394894 0.456746055473381
0.37638297872340426 0.45251514691326256 0.450954803520105
0.37659574468085105 0.4546903229556171 0.4448569967145233
0.37680851063829784 0.45632276708764297 0.43997517493228117
0.3770212765957447 0.4555418956177433 0.4351419886779685
0.3772340425531915 0.4541695760954275 0.4333170493404983
0.3774468085106383 0.4567282841564306 0.4333170493404983
0.3776595744680851 0.457743038593063 0.4383515424799214
0.3778723404255319 0.45582863922950545 0.44300808548822895
0.3780851063829787 0.45188080117244755 0.4473522969257093
0.37829787234042556 0.45188080117244755 0.4504921601467121
0.37851063829787235 0.4496384210478489 0.44862934244433994
0.37872340425531914 0.4450415241817294 0.44623195948399724
0.37893617021276593 0.4444894766366138 0.4390960567055862
0.3791489361702128 0.44273581610329216 0.4292921201931977
0.3793617021276596 0.4397880066870833 0.4264777723497801
0.37957446808510636 0.44890827236751857 0.41763323998032137
0.3797872340425532 0.44406448461162684 0.41267255343427284
0.38 0.4433914030183738 0.40774467885963195
0.3802127659574468 0.4404181024629094 0.4115604026665483
0.3804255319148936 0.44261284841529397 0.40827692956691414
0.38063829787234044 0.4411054074231212 0.41126376281769556
0.38085106382978723 0.4426986836715264 0.4149528143386563
0.381063829787234 0.4402779241667517 0.42134937882819634
0.38127659574468087 0.4407183328088193 0.4289333148064415
0.38148936170212766 0.4402703459429458 0.4312489505885637
0.38170212765957445 0.44210505726402466 0.431362970200293
0.3819148936170213 0.44221602857530595 0.4332114262366139
0.3821276595744681 0.44286709324887136 0.43278071335570123
0.3823404255319149 0.44211040547142155 0.4362927748981289
0.3825531914893617 0.44166536837176595 0.44282654892915035
0.3827659574468085 0.4422533450365945 0.45161845942820994
0.3829787234042553 0.44443615547898613 0.4632068668588985
0.3831914893617021 0.4426738704717807 0.4736393558538322
0.38340425531914896 0.44661695026383963 0.48254022252277873
0.38361702127659575 0.44791784885141256 0.482114233805003
0.38382978723404254 0.4468125932889532 0.4795091446724259
0.38404255319148933 0.45447592636498935 0.4714466505109321
0.3842553191489362 0.4492872708810594 0.4522442810542009
0.384468085106383 0.4511844210027153 0.4307805780747766
0.38468085106382977 0.45265801388224314 0.415752431810084
0.3848936170212766 0.4498373526313965 0.4003739714150529
0.3851063829787234 0.4490844564358682 0.38823845514205063
0.3853191489361702 0.4576130600467984 0.38843193950891014
0.38553191489361704 0.45381560295531614 0.39697088462816477
0.38574468085106384 0.4536479645196939 0.42121020622748806
0.38595744680851063 0.45001472105386525 0.4485446365325867
0.3861702127659574 0.45371755004075187 0.47572227715271975
0.38638297872340427 0.45304276129281673 0.4962450330215559
0.38659574468085106 0.45282220424669833 0.512781696527
0.38680851063829785 0.4504526190185602 0.5185076860300493
0.3870212765957447 0.4512905184381004 0.5163654127992183
0.3872340425531915 0.44894968246213973 0.5165630519592791
0.3874468085106383 0.44894968246213973 0.5198477707609344
0.3876595744680851 0.44921333602096214 0.530803997893861
0.3878723404255319 0.4493421558794274 0.5460524974271168
0.3880851063829787 0.4471202385484708 0.5671091528312848
0.3882978723404255 0.45108741600211716 0.5651255641044616
0.38851063829787236 0.4528578407425501 0.5574657757244713
0.38872340425531915 0.4538047323013555 0.5424529234803687
0.38893617021276594 0.4568985903842701 0.5177684439762389
0.3891489361702128 0.4581783978466922 0.4798808730135116
0.3893617021276596 0.4615835020377744 0.45434259158039486
0.3895744680851064 0.4616960157405569 0.4276251118824812
0.38978723404255317 0.4625920118580319 0.41075457776427876
0.39 0.4578520622537 0.3989047037534487
0.3902127659574468 0.4579612545477367 0.392603779102271
0.3904255319148936 0.45703632694533264 0.3903273082559844
0.39063829787234045 0.4550574407386705 0.3925369959592218
0.39085106382978724 0.4558085664430784 0.3996304461326397
0.39106382978723403 0.4564543574138996 0.41642101137399246
0.3912765957446808 0.4563480594667443 0.4383156985647096
0.39148936170212767 0.456038232857891 0.4672354820343516
0.39170212765957446 0.4572678806355496 0.4998928343530571
0.39191489361702125 0.4622208031003933 0.5205300112899065
0.3921276595744681 0.4592822273098144 0.527246663920476
0.3923404255319149 0.46460605963805596 0.522203906165559
0.3925531914893617 0.4622134764457275 0.5137223835563799
0.39276595744680853 0.45989930803582235 0.5001940326552503
0.3929787234042553 0.45969711773326827 0.4834293755683561
0.3931914893617021 0.45888446643265923 0.46851834400477055
0.3934042553191489 0.45366512629632993 0.45978226730607147
0.39361702127659576 0.45082479948406873 0.4540470326837373
0.39382978723404255 0.4503098175009623 0.4512868570710649
0.39404255319148934 0.45131756331438716 0.4502255943242785
0.3942553191489362 0.452891749651812 0.44645622017299036
0.394468085106383 0.45259062784496573 0.44006451431098154
0.3946808510638298 0.4511433664951736 0.4342754689118134
0.39489361702127657 0.4509037616023448 0.4281973208469063
0.3951063829787234 0.4518640164524839 0.42169328281904894
0.3953191489361702 0.45049595419422384 0.41522057781850036
0.395531914893617 0.44765941458121766 0.4101813279688555
0.39574468085106385 0.44890921001621387 0.40757484984582143
0.39595744680851064 0.44653976564176967 0.4083044939882227
0.39617021276595743 0.4477338902017333 0.41501407900774023
0.3963829787234043 0.44894968246213973 0.4214099856887556
0.39659574468085107 0.4473350815694147 0.4233769145157322
0.39680851063829786 0.444225130227008 0.42539363570275684
0.39702127659574465 0.45153404800948027 0.42458148540340296
0.3972340425531915 0.4461745187962715 0.4256566878241172
0.3974468085106383 0.44933792651731336 0.43088087984741025
0.3976595744680851 0.4465387348187337 0.44256039869597513
0.39787234042553193 0.4479726428920372 0.4556412230944099
0.3980851063829787 0.4469920121815896 0.46704466578093484
0.3982978723404255 0.4484380846345544 0.4790523145720888
0.3985106382978723 0.4513669567184532 0.492507592876101
0.39872340425531916 0.45105470430775524 0.4983258724211406
0.39893617021276595 0.45369908095473216 0.4931880618325971
0.39914893617021274 0.45194971914465865 0.4882380191828767
0.3993617021276596 0.4521251442468131 0.48674937912606336
0.3995744680851064 0.4492463332412326 0.46522731529416966
0.3997872340425532 0.450751259876093 0.45155900476418276
0.4 0.4508409876545679 0.43580875041636696
0.4002127659574468 0.45244700430942636 0.4243683265057198
0.4004255319148936 0.4508561236173361 0.4201031961516089
0.4006382978723404 0.4476274898974349 0.41733926322425474
0.40085106382978725 0.44699560332193444 0.41926781723118156
0.40106382978723404 0.44410341857370333 0.427350988021012
0.40127659574468083 0.4452425181320381 0.4338195342162701
0.4014893617021277 0.4472111046113053 0.4397107562166071
0.40170212765957447 0.4479726428920372 0.4480162427821976
0.40191489361702126 0.44755904996429313 0.4542484732403966
0.40212765957446805 0.4465134562276636 0.4581869495426514
0.4023404255319149 0.4483954957567465 0.46224542987470196
0.4025531914893617 0.45130537573908047 0.4619389095901568
0.4027659574468085 0.44872087007556066 0.46165119687347334
0.40297872340425533 0.4497719729145837 0.46165119687347334
0.4031914893617021 0.44898558920035603 0.4626641431817922
0.4034042553191489 0.44992672203224227 0.46329431722360465
0.40361702127659577 0.44911500460561216 0.46111005192238663
0.40382978723404256 0.4466078442984391 0.4589215996862775
0.40404255319148935 0.44702663324337016 0.4562309343557556
0.40425531914893614 0.44424615895722336 0.45481191988275516
0.404468085106383 0.4435840457321932 0.45481191988275516
0.4046808510638298 0.4449189105147177 0.457375197592028
0.4048936170212766 0.44792844298239676 0.4615922636606194
0.4051063829787234 0.4452124503803096 0.4695102449839391
0.4053191489361702 0.44839865538437285 0.47030679623495486
0.405531914893617 0.44972662119584456 0.4665598593358722
0.4057446808510638 0.44992672203224227 0.4595340627615639
0.40595744680851065 0.4470807919042407 0.4492052482090583
0.40617021276595744 0.4452776422835404 0.4378684276006245
0.40638297872340423 0.4483969421823512 0.4302380014797707
0.4065957446808511 0.45084362310937975 0.4189922175002672
0.40680851063829787 0.44804925340611584 0.41596016862088764
0.40702127659574466 0.44894968246213973 0.41827949314692736
0.4072340425531915 0.4486408737601037 0.4176338027548625
0.4074468085106383 0.44839619803023517 0.41582649911527986
0.4076595744680851 0.4505507605815883 0.4076429829892416
0.4078723404255319 0.45252371674451575 0.3998395772309774
0.40808510638297874 0.4528578407425501 0.3911105839975847
0.4082978723404255 0.44943392034660756 0.3867823283889249
0.4085106382978723 0.4518065453492097 0.38546686234655075
0.40872340425531917 0.4547288008455744 0.38471442794691113
0.40893617021276596 0.45343578067289525 0.3885934884649487
0.40914893617021275 0.45188080117244755 0.39727435935428856
0.40936170212765954 0.45188080117244755 0.41234858328594043
0.4095744680851064 0.4527849544853094 0.4302549172286962
0.4097872340425532 0.456106573948552 0.45508114221240903
0.41 0.46046653722937053 0.48015388790552405
0.4102127659574468 0.4587862061573242 0.5018346350648586
0.4104255319148936 0.46250520351754953 0.5155089982091058
0.4106382978723404 0.46270102863412726 0.5227679366466281
0.41085106382978726 0.4644071430521818 0.5232922760557362
0.41106382978723405 0.4603552527552433 0.5249993166560778
0.41127659574468084 0.45816563376472946 0.5230728405631668
0.41148936170212763 0.4595140796985556 0.5175254904040335
0.4117021276595745 0.46054499933905024 0.50833383296453
0.41191489361702127 0.457743038593063 0.4986545967929075
0.41212765957446806 0.4570030402905551 0.4884475988019846
0.4123404255319149 0.4576231908551894 0.4817912269648932
0.4125531914893617 0.45579854924714847 0.4792474989296106
0.4127659574468085 0.45526549191828025 0.47787689354541824
0.4129787234042553 0.4512573982168261 0.4649450299588206
0.41319148936170214 0.4528578407425501 0.45580003554283405
0.41340425531914893 0.4521461471055622 0.4474357943027848
0.4136170212765957 0.4499624652924934 0.4454406858161528
0.41382978723404257 0.4554002247725084 0.4514911205158746
0.41404255319148936 0.45335112233168445 0.45736043331353243
0.41425531914893615 0.4517271637350813 0.4636604909595837
0.414468085106383 0.45094050825693816 0.4749255376543829
0.4146808510638298 0.453094568137746 0.48306715828399843
0.4148936170212766 0.45521078067458426 0.48178357532677857
0.4151063829787234 0.4537875637031035 0.47680596451672663
0.4153191489361702 0.4540731990645759 0.4647491723665184
0.415531914893617 0.45188080117244755 0.4521291894663182
0.4157446808510638 0.4485433737633415 0.4383182920582591
0.41595744680851066 0.443062206250403 0.42721397418184426
0.41617021276595745 0.44752231460353065 0.4173828690815142
0.41638297872340424 0.4450415241817294 0.4107515608231237
0.4165957446808511 0.4450415241817294 0.4092128640578409
0.4168085106382979 0.4445583025969809 0.40818742051202245
0.41702127659574467 0.442594395979287 0.3996046548947731
0.41723404255319146 0.441133365901319 0.3982851885907255
0.4174468085106383 0.44155510351649246 0.3986989267717342
0.4176595744680851 0.4430874450415241 0.3983689822207948
0.4178723404255319 0.4422598719805024 0.4060401818932433
0.41808510638297874 0.4442960289356546 0.4175432129198475
0.41829787234042554 0.44640064925019124 0.428732023360186
0.41851063829787233 0.4460185637518319 0.4372375258812675
0.4187234042553191 0.44676385609237923 0.44365104080439793
0.41893617021276597 0.44785528847866174 0.4467608944951836
0.41914893617021276 0.4509026023780595 0.44308860426580937
0.41936170212765955 0.44972382709726155 0.4441659320791172
0.4195744680851064 0.4484734039005336 0.4447076835093984
0.4197872340425532 0.450444841558604 0.44331690506339455
0.42 0.4483831836135743 0.44236498806593066
0.42021276595744683 0.44791584494460435 0.437588752775898
0.4204255319148936 0.44958459454616045 0.43522178559256053
0.4206382978723404 0.44931332451232836 0.4329534072903097
0.4208510638297872 0.4486570422797463 0.4319167831862304
0.42106382978723406 0.4466453601860067 0.4320634564721486
0.42127659574468085 0.44612640343612314 0.43374840807766335
0.42148936170212764 0.4466965020527629 0.4360288025442223
0.4217021276595745 0.44699560332193444 0.43792311335375994
0.4219148936170213 0.447116787124155 0.43978520577221636
0.4221276595744681 0.44795597700244727 0.44398115516367714
0.42234042553191486 0.448813708511436 0.4432234189922279
0.4225531914893617 0.44980099461111617 0.4379795721476652
0.4227659574468085 0.4490571440884107 0.4389643635085718
0.4229787234042553 0.44982407699874644 0.43917928676111373
0.42319148936170214 0.4491932064533747 0.44211334907658434
0.42340425531914894 0.44950721054869386 0.44643261356084896
0.42361702127659573 0.45130058397875744 0.4541016647615716
0.4238297872340426 0.4533096044799083 0.4635002208471297
0.42404255319148937 0.4492932213738262 0.4626969442259132
0.42425531914893616 0.4505435969360598 0.4642221509174961
0.42446808510638295 0.4515110269010932 0.46944043797376744
0.4246808510638298 0.45188080117244755 0.47192139853352133
0.4248936170212766 0.4514228177352807 0.47279554288599956
0.4251063829787234 0.4513580875534718 0.47208108152917233
0.42531914893617023 0.4526495564744799 0.4671612475281969
0.425531914893617 0.45229464458137 0.46545355889121776
0.4257446808510638 0.44894968246213973 0.47018046761089666
0.4259574468085106 0.44894968246213973 0.47236605806849147
0.42617021276595746 0.45187498666201037 0.47454579339465275
0.42638297872340425 0.447556062854722 0.47114387254962253
0.42659574468085104 0.44718215542525475 0.47089460092997765
0.4268085106382979 0.4502871206715912 0.4698786073881298
0.4270212765957447 0.4526723421725959 0.4676989328640431
0.4272340425531915 0.4529221117014989 0.46356242870771275
0.4274468085106383 0.45483515788151746 0.461514939506139
0.4276595744680851 0.45008864941378113 0.45930739696140105
0.4278723404255319 0.45300558253216605 0.45425905469576416
0.4280851063829787 0.4516905262788109 0.45521813477194817
0.42829787234042555 0.45234688231423453 0.45616528602158773
0.42851063829787234 0.45062666587916556 0.45634315089921645
0.42872340425531913 0.45141725964089746 0.4547619633757528
0.428936170212766 0.45188080117244755 0.451248987392333
0.42914893617021277 0.4528578407425501 0.44600229313340445
0.42936170212765956 0.45295782274192786 0.438802139187278
0.42957446808510635 0.4538348803126526 0.4444946116781686
0.4297872340425532 0.4525120926727754 0.448333442121617
0.43 0.4512540387404403 0.458167107575342
0.4302127659574468 0.4517426809430034 0.46402473568400787
0.43042553191489363 0.4509037616023448 0.4689885533130386
0.4306382978723404 0.4548481927624296 0.47773268243063477
0.4308510638297872 0.4512994002305784 0.48642120389096705
0.43106382978723407 0.45376504210758434 0.4971388933199739
0.43127659574468086 0.45188080117244755 0.5062278901610591
0.43148936170212765 0.45188080117244755 0.5087302503542742
0.43170212765957444 0.45226191688353184 0.5069761328092769
0.4319148936170213 0.45186471806989037 0.5040961273139862
0.4321276595744681 0.4521276970643091 0.4946131023677559
0.4323404255319149 0.4535858003998537 0.4858666663754255
0.4325531914893617 0.45214410373099334 0.4773600006591954
0.4327659574468085 0.4538102695193171 0.46762418286409885
0.4329787234042553 0.45058657202231306 0.45906273857320473
0.4331914893617021 0.448414827864667 0.4516239554495034
0.43340425531914895 0.4489153236572501 0.4433902190282987
0.43361702127659574 0.44608339188212653 0.44074208831170963
0.43382978723404253 0.44676471005828505 0.43803049617674333
0.4340425531914894 0.44866558623955644 0.4386110943159472
0.43425531914893617 0.44894968246213973 0.4367328606726232
0.43446808510638296 0.44894968246213973 0.42968798828723315
0.4346808510638298 0.44616850393125956 0.4266277125292078
0.4348936170212766 0.4479726428920372 0.4262847752776298
0.4351063829787234 0.4476557867164183 0.4180012723944757
0.4353191489361702 0.4482993046368499 0.4182268886839876
0.43553191489361703 0.44937291291327613 0.418238225337823
0.4357446808510638 0.44894968246213973 0.4213494604378732
0.4359574468085106 0.4474971637573542 0.4269271701837261
0.43617021276595747 0.4543614429009826 0.43006870472977377
0.43638297872340426 0.4520545073365765 0.43692122183368304
0.43659574468085105 0.4517314766658678 0.43812758493772136
0.43680851063829784 0.4497320800988579 0.43644663988737115
0.4370212765957447 0.45020168083606493 0.4314390517796105
0.4372340425531915 0.4528578407425501 0.42872431957870555
0.4374468085106383 0.45072940563018205 0.4298538218520985
0.4376595744680851 0.44894968246213973 0.42813132951423327
0.4378723404255319 0.4496630647106655 0.4288815764169345
0.4380851063829787 0.45136567094891517 0.42725046768507874
0.43829787234042555 0.45036173901911947 0.4279968345031082
0.43851063829787235 0.44992672203224227 0.42629141983223867
0.43872340425531914 0.45109563365043515 0.42725410020696686
