0.0 0.44699560332193444 0.44894968246213973
0.0002127659574468085 0.4487481705326169 0.4501180606025946
0.000425531914893617 0.45058688156167337 0.4515639211317759
0.0006382978723404255 0.4511321952222187 0.4528578407425501
0.000851063829787234 0.44992672203224227 0.4532617797217282
0.0010638297872340426 0.4511586970440877 0.45506685532449803
0.001276595744680851 0.4533397244189971 0.4596573010816427
0.0014893617021276596 0.4505074870264053 0.462073670895868
0.001702127659574468 0.44922828805398773 0.46165119687347334
0.0019148936170212765 0.45135890602340845 0.46165119687347334
0.002127659574468085 0.45188080117244755 0.460842125418132
0.002340425531914894 0.4500119364210668 0.46347745443044186
0.002553191489361702 0.45010292145176006 0.46289253557285254
0.0027659574468085106 0.45165915727685085 0.46644593073627033
0.0029787234042553193 0.4512571676721731 0.46805388915498114
0.0031914893617021275 0.45236801607484517 0.46896985947066705
0.003404255319148936 0.45347120886934533 0.47117189589101127
0.003617021276595745 0.45309085546295036 0.4749087021026106
0.003829787234042553 0.453736953362574 0.47454856518496413
0.004042553191489362 0.45184599644728396 0.47728382999511476
0.00425531914893617 0.4513338455758334 0.47685374602162617
0.004468085106382979 0.4533902889067523 0.4741304155818568
0.004680851063829788 0.4506368473138552 0.4716885068629889
0.004893617021276595 0.4528578407425501 0.4698351709019066
0.005106382978723404 0.4523579874916224 0.4699446997534689
0.005319148936170213 0.4506057191453599 0.4707425954613817
0.005531914893617021 0.45070068173566424 0.4698736731676552
0.00574468085106383 0.44999048571304984 0.4685542375449991
0.005957446808510639 0.45403393163499844 0.4709547996258453
0.006170212765957446 0.4530404038630041 0.46965007655474805
0.006382978723404255 0.4500452456506969 0.4704050451315784
0.006595744680851064 0.4528578407425501 0.4699383478134737
0.006808510638297872 0.4528578407425501 0.47151697271542586
0.007021276595744681 0.4528578407425501 0.468184011155699
0.00723404255319149 0.4528578407425501 0.4665363947239862
0.007446808510638298 0.4549724656752416 0.46583151974642245
0.007659574468085106 0.45652162406927643 0.46336136130462796
0.007872340425531916 0.45430887355788435 0.46672344555203604
0.008085106382978723 0.4555908221842795 0.4657574924224621
0.008297872340425531 0.45379191656806306 0.4645608337114864
0.00851063829787234 0.452040203982075 0.4637646788233061
0.008723404255319148 0.45310449979919565 0.46359567935719886
0.008936170212765958 0.4542612487936857 0.46024778882233774
0.009148936170212766 0.4553729334734266 0.45830405218373427
0.009361702127659575 0.4548025537517889 0.45676599902296044
0.009574468085106383 0.45592791327629023 0.45676599902296044
0.00978723404255319 0.45374909740432123 0.4562345877837435
0.01 0.45531926006709267 0.4557889594528579
0.010212765957446808 0.4560446919900024 0.4557889594528579
0.010425531914893617 0.45749246994395215 0.456640714698405
0.010638297872340425 0.4597099818298058 0.4558146876459331
0.010851063829787235 0.460980148683732 0.4574370472127018
0.011063829787234043 0.4617492114571563 0.45461692613763177
0.01127659574468085 0.46012870216753715 0.4510176323039097
0.01148936170212766 0.4589626568342342 0.44821522156310567
0.011702127659574468 0.4591703878454668 0.44699560332193444
0.011914893617021277 0.45969711773326827 0.44614176582677295
0.012127659574468085 0.45778149932566936 0.4507499186719193
0.012340425531914893 0.45998647889205563 0.44294276446213043
0.012553191489361702 0.46033211029550913 0.4423742227870144
0.01276595744680851 0.45792501635564387 0.44386012326331303
0.01297872340425532 0.45969711773326827 0.4439940326168629
0.013191489361702127 0.45969711773326827 0.4444158812221875
0.013404255319148937 0.4564824578141615 0.44182686426262263
0.013617021276595745 0.46145231635458744 0.44490893716913876
0.013829787234042552 0.461059195789856 0.44083736535951035
0.014042553191489362 0.4562116039365061 0.43848401018011
0.01425531914893617 0.4576214354489423 0.439332344295549
0.01446808510638298 0.45481191988275516 0.4368137445248044
0.014680851063829787 0.45481191988275516 0.43624816805080613
0.014893617021276596 0.45617389033489175 0.43624816805080613
0.015106382978723404 0.45431473047679677 0.4346139890200303
0.015319148936170212 0.45479197396279025 0.43429408891060084
0.015531914893617021 0.4567238643602755 0.4352500611493609
0.01574468085106383 0.45079438848147885 0.43592004868820816
0.015957446808510637 0.44942399730112287 0.43306568697493864
0.016170212765957447 0.4475775008235917 0.4331302939072865
0.016382978723404256 0.44751807718222003 0.43377161505031536
0.016595744680851062 0.4479726428920372 0.4313851381194183
0.01680851063829787 0.4487518204323263 0.432723463251058
0.01702127659574468 0.4443850266865284 0.4387946362712319
0.01723404255319149 0.4477383460725669 0.43437218785042425
0.017446808510638297 0.4452506027764053 0.4350620498860274
0.017659574468085106 0.44667190684627806 0.43527410355227003
0.017872340425531916 0.4463164126984849 0.43639709252413245
0.018085106382978722 0.4445536444819402 0.4377169278322703
0.01829787234042553 0.44441662190775355 0.4414061308791681
0.01851063829787234 0.4455896722163939 0.4459233744833393
0.01872340425531915 0.444224796142101 0.44968625473653107
0.018936170212765956 0.4451588405453806 0.4538348803126526
0.019148936170212766 0.4467988420688402 0.45363811905955836
0.019361702127659575 0.4456830802025354 0.45218687364395693
0.01957446808510638 0.4450415241817294 0.4532694632089807
0.01978723404255319 0.4450415241817294 0.45517859869488125
0.02 0.4465422347733163 0.45631263047434223
0.02021276595744681 0.44612841694551436 0.46110193090506096
0.020425531914893616 0.44800059371867385 0.4655593551538837
0.020638297872340425 0.45022597379272117 0.46645711043532034
0.020851063829787235 0.45045032206432123 0.4708494009312488
0.02106382978723404 0.4478367236245334 0.4690469532829946
0.02127659574468085 0.44894968246213973 0.4679541810254256
0.02148936170212766 0.4495127796120932 0.46526104569427507
0.02170212765957447 0.44936904773936653 0.46750899606380886
0.021914893617021276 0.4494685176140011 0.46836921239695106
0.022127659574468085 0.44887238636419086 0.46864506606008915
0.022340425531914895 0.44858844808280574 0.46982874781362804
0.0225531914893617 0.44894968246213973 0.46946751343429405
0.02276595744680851 0.4474124154526827 0.4671616129201085
0.02297872340425532 0.4512606677346349 0.4708014591366867
0.023191489361702126 0.4472823334640889 0.4649837377827974
0.023404255319148935 0.451869101834645 0.46165997137682524
0.023617021276595745 0.44431861184465504 0.4676150851873003
0.023829787234042554 0.44891782509300454 0.46945477048663997
0.02404255319148936 0.44976162650232515 0.46946751343429405
0.02425531914893617 0.4482033443906495 0.47377595753827606
0.02446808510638298 0.44604412681987926 0.47433992975078326
0.024680851063829785 0.44992672203224227 0.4727999483557012
0.024893617021276595 0.45036605304668487 0.475549416362131
0.025106382978723404 0.4512600641643321 0.4766171589290699
0.025319148936170214 0.4495313598772923 0.4768884678401648
0.02553191489361702 0.44894968246213973 0.4754515042140416
0.02574468085106383 0.44947959422005357 0.47514757892167775
0.02595744680851064 0.45077184255697184 0.4770859514270553
0.026170212765957445 0.44745945051322866 0.4721173633614406
0.026382978723404255 0.4512495421595209 0.47142159257449934
0.026595744680851064 0.4536953512359101 0.4723288676062306
0.026808510638297874 0.45187168262566924 0.4684950331375807
0.02702127659574468 0.4501293470657531 0.46941685717591636
0.02723404255319149 0.45398540691788164 0.46864100046942053
0.0274468085106383 0.45504718014299844 0.46852647239332107
0.027659574468085105 0.4568936787729141 0.4639022761737994
0.027872340425531914 0.45833983920751414 0.4591542063229666
0.028085106382978724 0.45584140372111487 0.4574856676334731
0.028297872340425533 0.45825357888317153 0.45793224722294545
0.02851063829787234 0.45650498972487336 0.46165119687347334
0.02872340425531915 0.4550188267616671 0.46165119687347334
0.02893617021276596 0.45626618943659997 0.46165119687347334
0.029148936170212764 0.4560379177861899 0.4580107906896206
0.029361702127659574 0.45429241392027747 0.45676599902296044
0.029574468085106383 0.4561199708446093 0.45448090849100375
0.029787234042553193 0.45676599902296044 0.45636910649885654
0.03 0.4546870573192935 0.45676599902296044
0.03021276595744681 0.45554519592359033 0.45676599902296044
0.030425531914893618 0.4562075142980949 0.4545320601234982
0.030638297872340424 0.4569489994333664 0.4574980006645844
0.030851063829787233 0.45718831250389014 0.4540174442332963
0.031063829787234043 0.45676599902296044 0.44731485233807994
0.03127659574468085 0.4573362198609005 0.44544834291389185
0.03148936170212766 0.4571725847254037 0.44275970871109205
0.03170212765957447 0.45909521198254544 0.441133365901319
0.031914893617021274 0.4568828419031272 0.441133365901319
0.03212765957446809 0.45481191988275516 0.44052365294722334
0.03234042553191489 0.45586057888936937 0.4401563263312165
0.0325531914893617 0.45676599902296044 0.4393207726307235
0.03276595744680851 0.45710723217326044 0.4378610140407112
0.03297872340425532 0.45601705892973143 0.43688001168824236
0.033191489361702124 0.453569537401679 0.43767156136906404
0.03340425531914894 0.45481191988275516 0.43949835811847393
0.03361702127659574 0.45481191988275516 0.4382022471910112
0.033829787234042556 0.4548547936504534 0.4381507986697733
0.03404255319148936 0.459293257061306 0.4328246425767504
0.03425531914893617 0.45410007589682805 0.43327285007646904
0.03446808510638298 0.4546959769279732 0.4313919559389885
0.03468085106382979 0.4511348890168822 0.43245557347766445
0.03489361702127659 0.45305654839714965 0.4333170493404983
0.035106382978723406 0.45317580934136453 0.4324382880454475
0.03531914893617021 0.45246350244941297 0.43003278739891515
0.03553191489361702 0.4562146061029108 0.4309373235502401
0.03574468085106383 0.458915426882551 0.4309232875950881
0.03595744680851064 0.45874694601536953 0.4332901814882943
0.036170212765957444 0.4539755383803262 0.43580108899569564
0.036382978723404256 0.45431869268398956 0.4347873161093665
0.03659574468085106 0.4524543598556898 0.43586579559531125
0.03680851063829787 0.4536712697587043 0.4371434023439345
0.03702127659574468 0.45481191988275516 0.43729214750479845
0.03723404255319149 0.45406652144954107 0.4394774461343994
0.0374468085106383 0.45067079457007975 0.4413813900805982
0.03765957446808511 0.45252606314113775 0.4414468502685968
0.03787234042553191 0.4522538005255894 0.43978332697807454
0.038085106382978726 0.45210125481889374 0.4388009937992856
0.03829787234042553 0.4504132583363039 0.43967375698913397
0.03851063829787234 0.4505172909984578 0.4393616590026723
0.03872340425531915 0.44956496725596246 0.44021043871058485
0.03893617021276596 0.44894968246213973 0.4448541004922328
0.03914893617021276 0.4464030495250225 0.4417741755233034
0.039361702127659576 0.44698964049460566 0.4440465961296404
0.03957446808510638 0.45017507570346676 0.4453726624100287
0.03978723404255319 0.45285352825554226 0.44894968246213973
0.04 0.44992672203224227 0.44935509736402685
0.04021276595744681 0.4504525521229239 0.4521437162177883
0.04042553191489362 0.4538869048321119 0.4544627236702816
0.040638297872340426 0.45352436207514796 0.45946736314613745
0.04085106382978723 0.4522571802229794 0.4602977782528389
0.041063829787234045 0.45204215825168753 0.46214416520585594
0.04127659574468085 0.44900387517532214 0.4674231131054516
0.04148936170212766 0.45038291574762923 0.4718283900003682
0.04170212765957447 0.4520744352614778 0.4680164185944246
0.041914893617021276 0.4473770424244052 0.46832319612688195
0.04212765957446808 0.44748209032457764 0.4660458421565268
0.042340425531914895 0.4475272956222686 0.4660910474542177
0.0425531914893617 0.44856784527175153 0.46534598996455756
0.04276595744680851 0.44894968246213973 0.46530833881390093
0.04297872340425532 0.4498131252643326 0.4655593551538837
0.043191489361702126 0.44702657907877524 0.4675598979293502
0.04340425531914894 0.448843488297636 0.47028526175764096
0.043617021276595745 0.4465080925892979 0.47246856483566846
0.04382978723404255 0.45203236224388843 0.4733756717147044
0.044042553191489364 0.44894968246213973 0.4730580390788359
0.04425531914893617 0.4485664242394289 0.4735484068127345
0.044468085106382976 0.44749497510809655 0.47389674750308797
0.04468085106382979 0.44699560332193444 0.4734937515930993
0.044893617021276595 0.4491614003083296 0.47110401580521427
0.0451063829787234 0.44845273366024363 0.46898067945261174
0.045319148936170214 0.4481287266870963 0.47031157860839984
0.04553191489361702 0.44981173624227383 0.4717856010278563
0.045744680851063826 0.4483256776154543 0.4716925626977676
0.04595744680851064 0.4483592118106932 0.4719207296330128
0.046170212765957445 0.44787520768422157 0.47515382998245226
0.04638297872340425 0.45138745216494286 0.47484606029231163
0.046595744680851064 0.44992672203224227 0.47577262489971095
0.04680851063829787 0.45053659520105765 0.47282802836276855
0.047021276595744683 0.45100863144832465 0.4707757680204784
0.04723404255319149 0.45223362928052957 0.47066845170838634
0.047446808510638296 0.4538348803126526 0.47161953947518154
0.04765957446808511 0.4546953047883265 0.46809650976623235
0.047872340425531915 0.45557591305364326 0.46598544795231295
0.04808510638297872 0.45661592955164754 0.4688672355490423
0.048297872340425534 0.4529085589297618 0.4713962334808935
0.04851063829787234 0.4528578407425501 0.46909138060913347
0.048723404255319146 0.45259496334849836 0.46522200775372763
0.04893617021276596 0.45227745726330004 0.46244450905517837
0.049148936170212765 0.4523371871644697 0.46204331527943726
0.04936170212765957 0.4531672733024697 0.46131739336838185
0.049574468085106384 0.45305489439622537 0.4600912250406189
0.04978723404255319 0.45377931654645426 0.4615400693410766
0.05 0.4538348803126526 0.45782330690724227
0.05021276595744681 0.45101390059352536 0.45676599902296044
0.050425531914893615 0.45188080117244755 0.4560189920343648
0.05063829787234043 0.45263133026148705 0.4530843512236131
0.050851063829787234 0.4533432492597412 0.45188080117244755
0.05106382978723404 0.45348243889094175 0.45000700672727245
0.05127659574468085 0.4538348803126526 0.445132760674119
0.05148936170212766 0.4547342083540772 0.4449638126530514
0.051702127659574465 0.4566610352960398 0.4450415241817294
0.05191489361702128 0.4551730548952374 0.44456001083175306
0.052127659574468084 0.4574894007846495 0.441133365901319
0.05234042553191489 0.4571516625444515 0.4399763753368457
0.0525531914893617 0.45722438944364885 0.43768359804159707
0.05276595744680851 0.4554617226288763 0.4378773458179507
0.05297872340425532 0.45481191988275516 0.4366249875885154
0.05319148936170213 0.45481191988275516 0.43624816805080613
0.053404255319148934 0.45481191988275516 0.43451910934218196
0.05361702127659575 0.4543892320476461 0.43722520762090866
0.05382978723404255 0.45320381390946096 0.43618728812017593
0.05404255319148936 0.4552633768274358 0.4352464199204563
0.05425531914893617 0.45737528630762453 0.43502959348147785
0.05446808510638298 0.457743038593063 0.432797572962201
0.054680851063829784 0.4550954549090429 0.4341050655597423
0.0548936170212766 0.4539623531584646 0.4305134034760025
0.0551063829787234 0.4566080353854976 0.43284315842810966
0.05531914893617021 0.4560013317311073 0.4303859306301905
0.05553191489361702 0.45676599902296044 0.43244949366382146
0.05574468085106383 0.45821926116636724 0.4338260644784614
0.055957446808510634 0.45782858839439033 0.43323149953917095
0.05617021276595745 0.4552435103243261 0.4396227993558209
0.05638297872340425 0.4530163413128561 0.4339510516217225
0.056595744680851066 0.45102674314005065 0.4335015216470571
0.05680851063829787 0.4528578407425501 0.4356486127890446
0.05702127659574468 0.45183828440141527 0.4333170493404983
0.05723404255319149 0.44992672203224227 0.43427732315098627
0.0574468085106383 0.4524068681235554 0.43589116500353176
0.057659574468085104 0.44925673091984525 0.43853724274720973
0.05787234042553192 0.44706583357040586 0.44189971472600736
0.05808510638297872 0.4461200626426844 0.44211040547142155
0.05829787234042553 0.4470825104444228 0.44498937990823634
0.05851063829787234 0.45116646803012833 0.4428247386137408
0.05872340425531915 0.4467408082406566 0.44750519348449014
0.058936170212765954 0.4460185637518319 0.4486035954820769
0.05914893617021277 0.44697331423266956 0.44892739337287474
0.05936170212765957 0.44673688283587193 0.45239824214457264
0.059574468085106386 0.4460185637518319 0.4530798070504117
0.05978723404255319 0.4485634126778968 0.4520095577671952
0.06 0.44801455275494095 0.45375106058684517
0.06021276595744681 0.45084566593741643 0.45309022340226357
0.06042553191489362 0.45010085925207977 0.4560694501436104
0.06063829787234042 0.45056360921812594 0.4574028862088441
0.060851063829787236 0.45152765785766585 0.458990831103705
0.06106382978723404 0.4504337464242197 0.461144172481496
0.06127659574468085 0.44992672203224227 0.46247910323784214
0.06148936170212766 0.44992672203224227 0.4635588144562976
0.06170212765957447 0.44992672203224227 0.46462634604411696
0.06191489361702127 0.44992672203224227 0.4654721048955332
0.062127659574468086 0.44906909458105604 0.46384410025151124
0.06234042553191489 0.4516767997191081 0.46451431509933466
0.0625531914893617 0.4509037616023448 0.46751392079604004
0.0627659574468085 0.4510188909714987 0.4685480385487685
0.06297872340425532 0.45304669111412427 0.4698452141774424
0.06319148936170213 0.4538348803126526 0.4721558819163122
0.06340425531914894 0.45354466317204445 0.474497819855111
0.06361702127659574 0.45188080117244755 0.47559767138192605
0.06382978723404255 0.45147712230005305 0.47590311155261783
0.06404255319148935 0.4509037616023448 0.4753297508549097
0.06425531914893617 0.4522679556371777 0.4739655568200768
0.06446808510638298 0.4520521495564583 0.4709585981564289
0.06468085106382979 0.45188080117244755 0.46950633493112737
0.06489361702127659 0.4514972371465271 0.4706363350173568
0.0651063829787234 0.44844033158503915 0.47146325475859785
0.06531914893617022 0.44992672203224227 0.4684904738641915
0.06553191489361702 0.44992672203224227 0.4689957983451166
0.06574468085106383 0.4524629403267393 0.47010156800791825
0.06595744680851064 0.45166282367248445 0.46881551052427056
0.06617021276595744 0.4513496306672002 0.47273076595560126
0.06638297872340425 0.45119919322911717 0.47494357453835157
0.06659574468085107 0.44992672203224227 0.47335402866008575
0.06680851063829787 0.4487815746776996 0.4728258481454168
0.06702127659574468 0.44879021133928654 0.4713418570130727
0.06723404255319149 0.4514343216695912 0.47133751201010926
0.06744680851063829 0.45127787446041223 0.4710474797164319
0.06765957446808511 0.453734778540445 0.47142159257449934
0.06787234042553192 0.45232433849723575 0.4672756235986333
0.06808510638297872 0.45091893859858373 0.4684601198717136
0.06829787234042553 0.4537174082343374 0.4673959622157738
0.06851063829787234 0.4528578407425501 0.4663192714061889
0.06872340425531914 0.45383624052882887 0.46580395510045336
0.06893617021276596 0.4552894997571793 0.46469077064175984
0.06914893617021277 0.45336313073054346 0.46165119687347334
0.06936170212765957 0.45447832401983723 0.4590774220447348
0.06957446808510638 0.45481191988275516 0.4593093879235788
0.06978723404255319 0.45296800813468413 0.4541653824890547
0.06999999999999999 0.4546673290140548 0.454739624448405
0.07021276595744681 0.45481191988275516 0.45183491405007586
0.07042553191489362 0.45481191988275516 0.4502517327851286
0.07063829787234042 0.4559934256201556 0.4506992954350471
0.07085106382978723 0.46002439706116777 0.44666832399403494
0.07106382978723404 0.4593633032940392 0.4461854709714464
0.07127659574468086 0.4570348401226248 0.44699560332193444
0.07148936170212766 0.4600143577185209 0.44455933430026423
0.07170212765957447 0.4606741573033708 0.4431233964242095
0.07191489361702127 0.4557889594528579 0.43969384906375203
0.07212765957446808 0.45627245588479304 0.4428557435317889
0.07234042553191489 0.45698240491363207 0.4387989699213983
0.0725531914893617 0.45786313120536537 0.43612807543850374
0.07276595744680851 0.45843857186511966 0.43681118064689795
0.07297872340425532 0.4599972892392316 0.43745083030895504
0.07319148936170213 0.4642108105227425 0.4354568810112227
0.07340425531914893 0.45769555603432494 0.43729643145901576
0.07361702127659574 0.4563476385061553 0.43987698680456777
0.07382978723404256 0.45969711773326827 0.43902518341355395
0.07404255319148936 0.458889997229277 0.4407298056493234
0.07425531914893617 0.45613502493689556 0.43854831267504907
0.07446808510638298 0.4561551744009138 0.4352103258436708
0.07468085106382978 0.45595524942680454 0.4359155881029128
0.0748936170212766 0.45674309079808373 0.4314775113246766
0.07510638297872341 0.45590629186663334 0.4314803026140685
0.07531914893617021 0.45676599902296044 0.43285133872553405
0.07553191489361702 0.45637198534961876 0.43390007523725915
0.07574468085106383 0.4547655342994058 0.4353638996474024
0.07595744680851063 0.4525758278075245 0.4353366288632163
0.07617021276595745 0.4534078411708881 0.43505760890982115
0.07638297872340426 0.4538348803126526 0.43347023982801963
0.07659574468085106 0.45039409175735173 0.4296425759226427
0.07680851063829787 0.45678317512937305 0.432677140364705
0.07702127659574468 0.4515838502367616 0.42940889106008795
0.0772340425531915 0.4509037616023448 0.4298434661469803
0.0774468085106383 0.4509037616023448 0.43497124009435795
0.07765957446808511 0.45018931483521907 0.4382022471910112
0.07787234042553191 0.44873814606999474 0.43760795920988743
0.07808510638297872 0.4463580584202621 0.4383015972687586
0.07829787234042553 0.44439016791097863 0.4378765742196123
0.07851063829787235 0.4472092420210001 0.43879758632559523
0.07872340425531915 0.44889680750850264 0.43917928676111373
0.07893617021276596 0.4486957813693118 0.44147190069175624
0.07914893617021276 0.4457963929905902 0.4450415241817294
0.07936170212765957 0.4457484622793295 0.4446880551329293
0.07957446808510638 0.44797442677642874 0.445043308066121
0.0797872340425532 0.44832060476256846 0.4491639522496885
0.08 0.45105145912583766 0.45244316971924514
0.08021276595744681 0.4509692779061856 0.4528578407425501
0.08042553191489361 0.44879970838890487 0.4559389335260927
0.08063829787234042 0.44741445839746974 0.459418458895204
0.08085106382978724 0.4486012473068527 0.4634687442221614
0.08106382978723405 0.4479726428920372 0.4611615461815854
0.08127659574468085 0.44734272522339646 0.4632581541122166
0.08148936170212766 0.44622752199584914 0.4643733573397639
0.08170212765957446 0.4487431095229158 0.46549049750747573
0.08191489361702127 0.4460988860357021 0.4722112134822381
0.08212765957446809 0.4487839467212763 0.4655593551538837
0.0823404255319149 0.4482797509449797 0.4664806793127113
0.0825531914893617 0.44852416171804427 0.46806495312009605
0.08276595744680851 0.44744644916397674 0.4685658217502096
0.08297872340425531 0.4489467850817934 0.46881711951434113
0.08319148936170212 0.4522845835225598 0.4692764276942973
0.08340425531914894 0.45100875521656236 0.4703920561972878
0.08361702127659575 0.45179966515540837 0.4723174961275627
0.08382978723404255 0.4509037616023448 0.4716415921391717
0.08404255319148936 0.4516210968025573 0.4727572997447081
0.08425531914893616 0.4528578407425501 0.4723814159264174
0.08446808510638298 0.4528578407425501 0.47205465409041025
0.08468085106382979 0.4528578407425501 0.47239863214460187
0.0848936170212766 0.4528578407425501 0.47239863214460187
0.0851063829787234 0.4519406849133803 0.47515009963211147
0.08531914893617021 0.45479212522930623 0.47627709844483884
0.08553191489361701 0.4531168181025637 0.47380730064806037
0.08574468085106383 0.45519622079948713 0.4790017928819308
0.08595744680851064 0.4517356613977451 0.4821300889928135
0.08617021276595745 0.4509037616023448 0.4765429951332918
0.08638297872340425 0.4512283430704606 0.4766346670588833
0.08659574468085106 0.45230049968557173 0.47574944936803387
0.08680851063829788 0.45232175861161333 0.4763067904250122
0.08702127659574468 0.45188080117244755 0.4730516537848794
0.08723404255319149 0.45039865021994635 0.4758680454320027
0.0874468085106383 0.44910288592709147 0.4690454689436061
0.0876595744680851 0.44894968246213973 0.46480567601367717
0.08787234042553191 0.4460251975866545 0.45873334583281067
0.08808510638297873 0.4488448943773371 0.45948754156366306
0.08829787234042553 0.4474835735650384 0.4557889594528579
0.08851063829787234 0.44866051305018795 0.4562954430456796
0.08872340425531915 0.4457086789551115 0.4574094612063719
0.08893617021276595 0.44777397288967036 0.45676599902296044
0.08914893617021276 0.450409161446251 0.45603625953090476
0.08936170212765958 0.45178064916515925 0.45553004760101573
0.08957446808510638 0.4508641969135481 0.45676599902296044
0.08978723404255319 0.45069030787671854 0.45557550572723143
0.09 0.451287620245105 0.4534510216698926
0.0902127659574468 0.45188080117244755 0.4536474657426466
0.09042553191489362 0.4500650033951883 0.4538348803126526
0.09063829787234043 0.44803112165633474 0.45188080117244755
0.09085106382978723 0.4500518189603306 0.45163060731627086
0.09106382978723404 0.4515469765470486 0.4505699369769461
0.09127659574468085 0.453549209556199 0.45171515771673537
0.09148936170212765 0.45250001009903684 0.4475183598880867
0.09170212765957447 0.4522574526501993 0.4442882212262258
0.09191489361702128 0.4535860306899289 0.44235925509414525
0.09212765957446808 0.4544331122649768 0.439239327812427
0.09234042553191489 0.4524507699550644 0.4369402232296002
0.0925531914893617 0.45047433432654443 0.43792844104386014
0.0927659574468085 0.45188080117244755 0.4377352437818397
0.09297872340425532 0.4515950746256367 0.4386078336674922
0.09319148936170213 0.45154397144739994 0.4369051026983811
0.09340425531914893 0.4531570676563654 0.4368466218784367
0.09361702127659574 0.4535347807338755 0.4376020480334569
0.09382978723404255 0.4526678597441097 0.43662813004768686
0.09404255319148937 0.4520002571716712 0.437963335192564
0.09425531914893617 0.45188080117244755 0.433820885727415
0.09446808510638298 0.45456667132991874 0.4302886221373046
0.09468085106382979 0.45676599902296044 0.4305061583689522
0.09489361702127659 0.4556769670145756 0.43081845419610065
0.0951063829787234 0.45424396583606036 0.4315218387235802
0.09531914893617022 0.455068936125789 0.43110595395725937
0.09553191489361702 0.45307328653289347 0.43106484886018154
0.09574468085106383 0.4563625287117018 0.43061601561041735
0.09595744680851064 0.452102969664201 0.4287744823648015
0.09617021276595744 0.4491396580838049 0.4257856962121754
0.09638297872340426 0.44713906985496427 0.42821665169044065
0.09659574468085107 0.44981586231652365 0.42937193782151506
0.09680851063829787 0.4489780868813043 0.42940889106008795
0.09702127659574468 0.4498957814733916 0.42751669303758405
0.09723404255319149 0.4499736047742429 0.4295026565440893
0.09744680851063829 0.4508218374817687 0.431362970200293
0.09765957446808511 0.44992672203224227 0.4315398318566977
0.09787234042553192 0.44992672203224227 0.4332251306186938
0.09808510638297872 0.45206984931211613 0.4361745523803301
0.09829787234042553 0.4515996380327494 0.44162891710521096
0.09851063829787234 0.4509037616023448 0.4446332848558271
0.09872340425531914 0.451406852206565 0.44956933961971024
0.09893617021276596 0.45310307793604543 0.45220517796118864
0.09914893617021277 0.45417303259850333 0.44896839110586445
0.09936170212765957 0.4525201686178791 0.44868396394528953
0.09957446808510638 0.45188080117244755 0.45054298140477156
0.09978723404255319 0.4542363420989697 0.4471874625831964
0.1 0.4551893579170801 0.4455078276166354
0.10021276595744681 0.45096995804827134 0.44630011264458175
0.10042553191489362 0.44992672203224227 0.44478765057721137
0.10063829787234042 0.44992672203224227 0.4457640295791313
0.10085106382978723 0.4489648164010373 0.44313284685821686
0.10106382978723404 0.44612574726484255 0.44992672203224227
0.10127659574468086 0.4474288458929934 0.4507932071743602
0.10148936170212766 0.45095141226347274 0.456122571514176
0.10170212765957447 0.454478277233612 0.46001284409941595
0.10191489361702127 0.4514961244592543 0.4590740593021196
0.10212765957446808 0.45033266336131395 0.46291378556409135
0.10234042553191489 0.4489767436009382 0.46365939829127556
0.1025531914893617 0.44992672203224227 0.4655784169535545
0.10276595744680851 0.4499850056545907 0.4675717179164374
0.10297872340425532 0.4509037616023448 0.46891108284190064
0.10319148936170212 0.4509037616023448 0.47256872382541254
0.10340425531914893 0.4509037616023448 0.47434452625564905
0.10361702127659575 0.44992672203224227 0.4782518526596665
0.10382978723404256 0.44992672203224227 0.4763067904250122
0.10404255319148936 0.45033867758603097 0.47644410894294176
0.10425531914893617 0.4526538449358342 0.47728382999511476
0.10446808510638297 0.45314197807723633 0.478040536137988
0.10468085106382978 0.4559252105374855 0.4802149487054226
0.1048936170212766 0.45351221179385737 0.47860160611144625
0.1051063829787234 0.4533767151562496 0.47636749968230874
0.10531914893617021 0.45477958499551707 0.4791732393608439
0.10553191489361702 0.45297842966047425 0.4746541835796173
0.10574468085106382 0.45188080117244755 0.47042124029335053
0.10595744680851064 0.45188080117244755 0.46377091045653285
0.10617021276595745 0.45478256815161644 0.46749582325540573
0.10638297872340426 0.44992672203224227 0.4648951093672415
0.10659574468085106 0.4502544594204384 0.46930364474019604
0.10680851063829787 0.45400013460393157 0.4682549923718044
0.10702127659574467 0.4583800575211468 0.467513434294089
0.1072340425531915 0.4523092194722276 0.467941852593869
0.1074468085106383 0.4535935348301482 0.4692261679517896
0.1076595744680851 0.4541026933197555 0.4681792607198902
0.10787234042553191 0.45561794298370595 0.46713074894767076
0.10808510638297872 0.4538348803126526 0.4665363947239862
0.10829787234042552 0.4555364578484969 0.46540200970009016
0.10851063829787234 0.4560929510394861 0.46592841155072984
0.10872340425531915 0.45803907351322143 0.4627862046233802
0.10893617021276596 0.4575659974537955 0.46165119687347334
0.10914893617021276 0.4563329476310564 0.4612181454815693
0.10936170212765957 0.4557889594528579 0.45978058122396454
0.10957446808510639 0.45630859330716955 0.45923971201747726
0.1097872340425532 0.45676599902296044 0.45885826118364853
0.11 0.4571830103627118 0.45711752158343594
0.1102127659574468 0.45864053371687263 0.4547323754364623
0.11042553191489361 0.457743038593063 0.4536890072774092
0.11063829787234042 0.45845992642389866 0.45309680335282865
0.11085106382978724 0.4590909078400815 0.4522516308493633
0.11106382978723404 0.45614255586787517 0.451778453782278
0.11127659574468085 0.4570990604660546 0.45343538459201876
0.11148936170212766 0.4570792547587663 0.4476593871562311
0.11170212765957446 0.4543792892689917 0.44906146080471526
0.11191489361702127 0.45334858689032653 0.4457731906779437
0.11212765957446809 0.45547684349449385 0.44459824177390356
0.1123404255319149 0.45695515024153693 0.4430874450415241
0.1125531914893617 0.45299005339239884 0.4430874450415241
0.1127659574468085 0.4536626322788957 0.44274294897401023
0.11297872340425531 0.45360908246083254 0.4405699346126072
0.11319148936170213 0.45676599902296044 0.43830946022586204
0.11340425531914894 0.45676599902296044 0.4389999130715101
0.11361702127659574 0.4559190293655135 0.4370729543144153
0.11382978723404255 0.4553080955338126 0.43429408891060084
0.11404255319148936 0.45732289372743 0.43555452350749985
0.11425531914893616 0.45513707978073353 0.43559628837868175
0.11446808510638298 0.4538348803126526 0.4315732626484051
0.11468085106382979 0.4538348803126526 0.4303859306301905
0.1148936170212766 0.4528779960607142 0.4303859306301905
0.1151063829787234 0.4529424100207539 0.4304704999083943
0.11531914893617021 0.4537623121634142 0.43150810649876986
0.11553191489361703 0.4528578407425501 0.43291417586561876
0.11574468085106383 0.4535290915686134 0.43270547185241964
0.11595744680851064 0.45340408133672 0.43480184896535834
0.11617021276595745 0.45368726628194384 0.43188546876460565
0.11638297872340425 0.4518790371309174 0.4311191513181499
0.11659574468085106 0.4509037616023448 0.431362970200293
0.11680851063829788 0.45276774478947096 0.431362970200293
0.11702127659574468 0.4538348803126526 0.4333170493404983
0.11723404255319149 0.4540106897385416 0.43349285876638727
0.1174468085106383 0.45449589106011684 0.43461011773323915
0.1176595744680851 0.4515639086985366 0.4379962944176427
0.11787234042553191 0.45070821997160265 0.4417195450711399
0.11808510638297873 0.44974844268917447 0.44211040547142155
0.11829787234042553 0.4456117324912983 0.44211040547142155
0.11851063829787234 0.4469742056098689 0.4440430868995613
0.11872340425531915 0.44613751677349317 0.44516047720339064
0.11893617021276595 0.44737955293278525 0.44678646297353347
0.11914893617021277 0.44798727832308033 0.450407924101772
0.11936170212765958 0.4450415241817294 0.45188080117244755
0.11957446808510638 0.4450415241817294 0.45188080117244755
0.11978723404255319 0.44541873942059673 0.4526352316501822
0.12 0.4468616452656412 0.45327282597011315
0.1202127659574468 0.4487530735353393 0.4528638458064499
0.12042553191489362 0.44809310563420834 0.45676599902296044
0.12063829787234043 0.4498055179736413 0.4568468017286944
0.12085106382978723 0.4472664451950379 0.45899092003626896
0.12106382978723404 0.44984827342438694 0.4614942996577626
0.12127659574468085 0.44894968246213973 0.45969711773326827
0.12148936170212765 0.4487027303403148 0.4594501656114433
0.12170212765957447 0.44859558211154504 0.4584086085534116
0.12191489361702128 0.4492337601287376 0.45843600049656774
0.12212765957446808 0.4486401549860485 0.4600308737802739
0.12234042553191489 0.44992672203224227 0.4602675921186644
0.1225531914893617 0.45193306818930246 0.4622050504295935
0.12276595744680852 0.44913438053888216 0.4651698780555024
0.12297872340425532 0.4480154595487965 0.46822188288316974
0.12319148936170213 0.4503579714477755 0.46876336894147613
0.12340425531914893 0.4516535084489418 0.47523819548356333
0.12361702127659574 0.44941006738050326 0.4706952065499301
0.12382978723404255 0.4517900898409514 0.47041431589389787
0.12404255319148937 0.45236956645215887 0.4714211015851791
0.12425531914893617 0.4482487070349905 0.47924872420508613
0.12446808510638298 0.44992672203224227 0.4742032266035731
0.12468085106382978 0.44992672203224227 0.4759074809176412
0.12489361702127659 0.44992672203224227 0.475843080989585
0.1251063829787234 0.44927758506582316 0.47955247525710776
0.12531914893617022 0.4513200399932087 0.47803151156743323
0.125531914893617 0.4500217337291912 0.47728382999511476
0.12574468085106383 0.4492596414399332 0.4778734208429755
0.12595744680851065 0.45272964946488947 0.4734397673535347
0.12617021276595744 0.45126516916851817 0.4739913037186336
0.12638297872340426 0.45254433804480043 0.47365264293560044
0.12659574468085105 0.4540774360357253 0.4763067904250122
0.12680851063829787 0.45676599902296044 0.47573310962844545
0.1270212765957447 0.45676599902296044 0.4753297508549097
0.12723404255319148 0.45249998927385787 0.47362334695526853
0.1274468085106383 0.4528414910980801 0.4724149817890719
0.1276595744680851 0.45203833905672974 0.47274552017757554
0.12787234042553192 0.4528578407425501 0.46817057796029415
0.1280851063829787 0.4531254758480475 0.46404704537278624
0.12829787234042553 0.4531347075065314 0.46192806363745464
0.12851063829787235 0.45188080117244755 0.4601892905372738
0.12872340425531914 0.4531277975415839 0.4634381068406774
0.12893617021276596 0.4530716595327563 0.4617432512544019
0.12914893617021275 0.4528578407425501 0.4606741573033708
0.12936170212765957 0.4520207824409587 0.4597671083675239
0.1295744680851064 0.45279393792813094 0.46004959187265776
0.12978723404255318 0.44894968246213973 0.45647504790987664
0.13 0.4505164193894681 0.4538348803126526
0.1302127659574468 0.4528578407425501 0.4543600225885984
0.13042553191489362 0.45351689263219647 0.45349381610346234
0.13063829787234044 0.4538348803126526 0.4504698057648473
0.13085106382978723 0.45197084689952727 0.44992672203224227
0.13106382978723405 0.4557889594528579 0.44611319866412635
0.13127659574468084 0.4550873322166638 0.4465278518311384
0.13148936170212766 0.4532295263633539 0.44466983856092557
0.13170212765957448 0.454345388207359 0.4455960082957459
0.13191489361702127 0.45481191988275516 0.44311401771938835
0.1321276595744681 0.45402805172598387 0.44348497037163304
0.13234042553191488 0.4538348803126526 0.44498869741130725
0.1325531914893617 0.4538348803126526 0.44397039342113404
0.1327659574468085 0.4536737431631257 0.441133365901319
0.13297872340425532 0.45373890311758874 0.4414270533596652
0.13319148936170214 0.4557889594528579 0.44211040547142155
0.13340425531914893 0.45463981729874425 0.43981212116319435
0.13361702127659575 0.4552526039213323 0.43749338538667143
0.13382978723404254 0.45505499945793415 0.4386931276107559
0.13404255319148936 0.4536477281055598 0.43976138264971154
0.13425531914893618 0.4546641052101789 0.43835006186358766
0.13446808510638297 0.45517216040336833 0.43744354701550014
0.1346808510638298 0.4528578407425501 0.43736644801785224
0.13489361702127659 0.4528578407425501 0.43358001133075
0.1351063829787234 0.4532596486528604 0.4327418176807061
0.13531914893617022 0.4528671355439795 0.43186543218748846
0.13553191489361702 0.45188080117244755 0.4292749424579384
0.13574468085106384 0.4524099760135466 0.42737350180778716
0.13595744680851063 0.4518212604991261 0.42855093283662815
0.13617021276595745 0.4497316758674686 0.4327301020999431
0.13638297872340424 0.44894968246213973 0.43198580076915966
0.13659574468085106 0.4508591056015095 0.4318179979847178
0.13680851063829788 0.4528578407425501 0.43254503844984676
0.13702127659574467 0.4532352433761177 0.43174037283386074
0.1372340425531915 0.4534947066491295 0.4330203570974421
0.13744680851063829 0.4538851949382863 0.43429408891060084
0.1376595744680851 0.4551711363503398 0.4358889515832215
0.13787234042553193 0.4523695208647602 0.43893492691495745
0.13808510638297872 0.45369144243460197 0.43827396613003655
0.13829787234042554 0.4502581420677477 0.4390964317522374
0.13851063829787233 0.45279057352931273 0.4420431382581842
0.13872340425531915 0.44992672203224227 0.4430224050924385
0.13893617021276597 0.4495224841968635 0.4425146433068003
0.13914893617021276 0.4473207696053576 0.44520410732344096
0.13936170212765958 0.44911719378592174 0.4461860750756139
0.13957446808510637 0.44992672203224227 0.4479007334727887
0.1397872340425532 0.44992672203224227 0.45097055738589864
0.13999999999999999 0.44965021251712056 0.4493551904676457
0.1402127659574468 0.44843325933036415 0.4523414176107745
0.14042553191489363 0.44699560332193444 0.4517351511341083
0.14063829787234042 0.44704844865606697 0.4567395763558942
0.14085106382978724 0.44886579467335613 0.4558309033472497
0.14106382978723403 0.44794375066941555 0.45780082303830627
0.14127659574468085 0.4471075311176294 0.45980904552896323
0.14148936170212767 0.44882033764971696 0.4615218520610506
0.14170212765957446 0.4480540196308663 0.46165119687347334
0.14191489361702128 0.4488338537643228 0.46681846210718725
0.14212765957446807 0.4508858951753209 0.4665453279374982
0.1423404255319149 0.44907996978064285 0.4664061074054831
0.1425531914893617 0.45046315333059433 0.46609578645223576
0.1427659574468085 0.45107298097475396 0.46791734439293575
0.14297872340425533 0.45044261885569203 0.4690063706876413
0.14319148936170212 0.45029736255740166 0.46946751343429405
0.14340425531914894 0.45138046862221703 0.46946751343429405
0.14361702127659573 0.45188080117244755 0.4729132352570401
0.14382978723404255 0.45097303676195283 0.4695598803137714
0.14404255319148937 0.4536761080153329 0.47369321630934386
0.14425531914893616 0.45255974118050907 0.4753297508549097
0.14446808510638298 0.45231747655390736 0.4753297508549097
0.14468085106382977 0.4528578407425501 0.4759076987701733
0.1448936170212766 0.4528578407425501 0.4763067904250122
0.1451063829787234 0.4511812602387628 0.4763067904250122
0.1453191489361702 0.4537438400679778 0.4725200191375017
0.14553191489361703 0.45287248108085815 0.47239863214460187
0.14574468085106382 0.4576338059586786 0.4707722509075497
0.14595744680851064 0.4562295538471098 0.47283922653885374
0.14617021276595746 0.45352345794400684 0.4704445530043966
0.14638297872340425 0.4537554298227507 0.47179093662469757
0.14659574468085107 0.4542270958475939 0.47454531978502706
0.14680851063829786 0.4545572500580023 0.47244027187351073
0.14702127659574468 0.45481191988275516 0.47056033779882683
0.14723404255319147 0.4529102339553272 0.4685166704705801
0.1474468085106383 0.45481191988275516 0.46912994988258994
0.14765957446808511 0.4542727808070476 0.46778300383194277
0.1478723404255319 0.4528578407425501 0.46880092888118774
0.14808510638297873 0.45375718469333565 0.4703668573850797
0.14829787234042552 0.45481191988275516 0.4708344103298191
0.14851063829787234 0.4555354746076445 0.4697209982795074
0.14872340425531916 0.45235331326856953 0.46774969034214997
0.14893617021276595 0.4528578407425501 0.4654487429935233
0.14914893617021277 0.4531842451338997 0.4610005616947204
0.14936170212765956 0.45451231874457043 0.45933262392354374
0.14957446808510638 0.45344073655622724 0.4499100823903204
0.1497872340425532 0.4528578407425501 0.44699560332193444
0.15 0.45233589408882235 0.445951710014479
0.15021276595744681 0.45365902317561413 0.4438560428462849
0.1504255319148936 0.45481191988275516 0.4430874450415241
0.15063829787234043 0.45481191988275516 0.4422484297419248
0.15085106382978725 0.46024425529913177 0.44482657317960983
0.15106382978723404 0.45693523853721835 0.4441067944901913
0.15127659574468086 0.4549049551565372 0.44313396267841515
0.15148936170212765 0.45676599902296044 0.4436246085436572
0.15170212765957447 0.45676599902296044 0.4415957842277169
0.15191489361702126 0.45615479466240355 0.4424762406809673
0.15212765957446808 0.45520582941375776 0.44034554683931393
0.1523404255319149 0.4562742247718222 0.4406350827180067
0.1525531914893617 0.45603286064649107 0.43991099034201353
0.15276595744680851 0.45481191988275516 0.43616432877499395
0.1529787234042553 0.45481191988275516 0.43529364225806005
0.15319148936170213 0.4539290275504549 0.4370369131453041
0.15340425531914895 0.4548073318281159 0.43820683524565046
0.15361702127659574 0.4529318470983522 0.4400823199754143
0.15382978723404256 0.45374411921110824 0.438997764558025
0.15404255319148935 0.45293772659219345 0.4373849793201954
0.15425531914893617 0.4528578407425501 0.43722520762090866
0.154468085106383 0.4519332821142682 0.43630064899262677
0.15468085106382978 0.45188080117244755 0.4362208815190545
0.1548936170212766 0.4516554167401139 0.43515843626453654
0.1551063829787234 0.45027791873233625 0.43376729386045987
0.15531914893617021 0.45145399833240657 0.43114956878027255
0.155531914893617 0.44992672203224227 0.4303859306301905
0.15574468085106383 0.44878139310380893 0.43009959839808215
0.15595744680851065 0.4467849509205165 0.4290256974757457
0.15617021276595744 0.44644067726482806 0.42945316190812477
0.15638297872340426 0.4482637810731273 0.43296373614330885
0.15659574468085105 0.44758736539012617 0.43429408891060084
0.15680851063829787 0.4488217980496242 0.43703338100213535
0.1570212765957447 0.44894968246213973 0.4420478479258986
0.15723404255319148 0.44854840407607305 0.4409327267082857
0.1574468085106383 0.44699560332193444 0.440495905134076
0.1576595744680851 0.44603898749815957 0.441133365901319
0.15787234042553192 0.4456432675567334 0.442336852651327
0.15808510638297874 0.443122372184554 0.43946720558242675
0.15829787234042553 0.44211040547142155 0.43991762159329895
0.15851063829787235 0.44406448461162684 0.44110353567514293
0.15872340425531914 0.4443698839872528 0.4396373858245527
0.15893617021276596 0.4460185637518319 0.4423828812656955
0.15914893617021275 0.44635942097766074 0.443428302267353
0.15936170212765957 0.44665137346470996 0.44509717418330025
0.1595744680851064 0.44632200826975016 0.4466921588040162
0.15978723404255318 0.4480427352437265 0.4460185637518319
0.16 0.44867709718806464 0.4476847302107354
0.1602127659574468 0.44747320188127476 0.4484939263542215
0.16042553191489362 0.4469828003327252 0.44996513099987034
0.16063829787234044 0.44648076981803064 0.45378225287494756
0.16085106382978723 0.44699560332193444 0.45562292314950026
0.16106382978723405 0.44826647414639786 0.4572743473527458
0.16127659574468084 0.451647726695637 0.45862684837244133
0.16148936170212766 0.45038413975508484 0.46096507028920947
0.16170212765957448 0.44992672203224227 0.46165119687347334
0.16191489361702127 0.44992672203224227 0.4670930197598443
0.1621276595744681 0.45061251807306363 0.4653527371893657
0.16234042553191488 0.45164813529196995 0.4636052760136786
0.1625531914893617 0.45255710217028106 0.4642815770115121
0.1627659574468085 0.4510145531648323 0.4651967447763537
0.16297872340425532 0.4519425452565708 0.4682471194529883
0.16319148936170214 0.4520587444636757 0.47506118738641495
0.16340425531914893 0.45559071758100156 0.47166939491431975
0.16361702127659575 0.450990289669222 0.4684904738641915
0.16382978723404254 0.4516543184749042 0.4693964046543646
0.16404255319148936 0.4505372023267607 0.47166551359343356
0.16425531914893618 0.4514317490091773 0.4714479043223533
0.16446808510638297 0.4522194732662274 0.47239863214460187
0.1646808510638298 0.45188080117244755 0.47239863214460187
0.16489361702127658 0.45188080117244755 0.4678007596629958
0.1651063829787234 0.45188080117244755 0.4684045955636044
0.16531914893617022 0.4514311596534244 0.4684127173321352
0.16553191489361702 0.4513710948993525 0.4710604993577217
0.16574468085106384 0.45283210988546313 0.4719487086451809
0.16595744680851063 0.45061763947086486 0.4733756717147044
0.16617021276595745 0.4522216552323069 0.47567060491476904
0.16638297872340424 0.4528578407425501 0.4780977599756394
0.16659574468085106 0.4528578407425501 0.48017246947422243
0.16680851063829788 0.4528578407425501 0.47876332187363996
0.16702127659574467 0.4533536315229931 0.4765546858152337
0.1672340425531915 0.4551405146151338 0.47564085633322184
0.16744680851063828 0.45617087822201335 0.47125287583713543
0.1676595744680851 0.45519539758487315 0.4682110322838242
0.16787234042553192 0.45268170527191076 0.46507881269420576
0.16808510638297872 0.45676599902296044 0.4626215315949325
0.16829787234042554 0.45676599902296044 0.46175714815430485
0.16851063829787233 0.45676599902296044 0.46165119687347334
0.16872340425531915 0.46034361527346646 0.46165119687347334
0.16893617021276597 0.459671436195089 0.4609912766473453
0.16914893617021276 0.4593406033452995 0.46129468248550465
0.16936170212765958 0.4577747369251612 0.46165119687347334
0.16957446808510637 0.45886083406037415 0.46095291852766884
0.1697872340425532 0.46126120602145365 0.4567639365829072
0.17 0.46032822012352825 0.4531430059529676
0.1702127659574468 0.4608245428866805 0.44962595086562296
0.17042553191489362 0.46108026160161514 0.44625983707646244
0.17063829787234042 0.4606741573033708 0.4431509271706027
0.17085106382978724 0.461395294150761 0.4435526791662022
0.17106382978723403 0.46165119687347334 0.44333253816933105
0.17127659574468085 0.4592098095253111 0.4439012408242449
0.17148936170212767 0.46155635692071506 0.44500991086414327
0.17170212765957446 0.45882707090452507 0.4441714773529864
0.17191489361702128 0.46018773952429176 0.44479621328621766
0.17212765957446807 0.460129131511453 0.44406448461162684
0.1723404255319149 0.4573011265838902 0.44406448461162684
0.1725531914893617 0.4577453382847344 0.4445541542425138
0.1727659574468085 0.45933836737114675 0.44318665655778594
0.17297872340425532 0.4581873330447034 0.44135551312713917
0.17319148936170212 0.457743038593063 0.4393518354737841
0.17340425531914894 0.457743038593063 0.4382549836054368
0.17361702127659576 0.45755241467433855 0.438035543248767
0.17382978723404255 0.45676599902296044 0.43363574050020925
0.17404255319148937 0.4572002041260284 0.43429408891060084
0.17425531914893616 0.4571802123332494 0.43373126265078726
0.17446808510638298 0.45676599902296044 0.43192032074579967
0.17468085106382977 0.4559310334395821 0.4296930390335363
0.1748936170212766 0.4567618478514002 0.4323275562557152
0.1751063829787234 0.45493742355453193 0.4307624416455207
0.1753191489361702 0.45517889956732965 0.43311369604532224
0.17553191489361702 0.4528578407425501 0.43136430222411337
0.17574468085106382 0.45250859097108614 0.42836114174569606
0.17595744680851064 0.45188080117244755 0.4264777723497801
0.17617021276595746 0.45188080117244755 0.4278331898356126
0.17638297872340425 0.4507028899410599 0.4299978466757817
0.17659574468085107 0.45136208195179484 0.43469201038884814
0.17680851063829786 0.4484857767448493 0.43115563140940866
0.17702127659574468 0.4479732113061599 0.4382039524333794
0.1772340425531915 0.4488118149145125 0.441133365901319
0.1774468085106383 0.447693377359153 0.4419711624999716
0.1776595744680851 0.44699560332193444 0.44322583093723833
0.1778723404255319 0.4458936952651079 0.44211040547142155
0.17808510638297873 0.4450415241817294 0.4441160918876957
0.17829787234042552 0.4442396541358666 0.4450415241817294
0.17851063829787234 0.4450037950703618 0.44879876601666946
0.17872340425531916 0.4450415241817294 0.447202466800091
0.17893617021276595 0.44480188548859206 0.44894968246213973
0.17914893617021277 0.4447580085012065 0.44929644440692956
0.17936170212765956 0.4451368098670823 0.4494858450898675
0.17957446808510638 0.44406448461162684 0.45011001393294536
0.1797872340425532 0.44406448461162684 0.45306481540524457
0.18 0.44577636405326215 0.4538348803126526
0.1802127659574468 0.4451488727110075 0.456443953435126
0.1804255319148936 0.44505105736402273 0.4616607300557667
0.18063829787234043 0.4460185637518319 0.46368096194951336
0.18085106382978725 0.44630782372033656 0.4691782534657894
0.18106382978723404 0.4478501613653353 0.4684904738641915
0.18127659574468086 0.44894968246213973 0.4684904738641915
0.18148936170212765 0.44965130313928925 0.46919209454134103
0.18170212765957447 0.44740449911780505 0.47198973634873126
0.18191489361702126 0.44515160108323204 0.4659446243091431
0.18212765957446808 0.44607984489667796 0.4646435967286272
0.1823404255319149 0.4473802407279338 0.46594399255988306
0.1825531914893617 0.4482845018587512 0.4681786148974775
0.1827659574468085 0.44794227293892086 0.4723075222852532
0.1829787234042553 0.44956441159521177 0.4814770421856305
0.18319148936170213 0.44992672203224227 0.47829727967675406
0.18340425531914895 0.4490307835388012 0.4772027289184533
0.18361702127659574 0.4498538918168092 0.4799600429514068
0.18382978723404256 0.44773521483635254 0.47329652902947617
0.18404255319148935 0.44609769961386264 0.47194598553083045
0.18425531914893617 0.450877213880397 0.4698689483511143
0.184468085106383 0.44755204240666985 0.47003049486266085
0.18468085106382978 0.4485929489915232 0.4661796612533697
0.1848936170212766 0.447539022942362 0.46599297510355886
0.1851063829787234 0.44699560332193444 0.4670420661743535
0.1853191489361702 0.44750553921669856 0.469043241978381
0.185531914893617 0.4484603558864004 0.47093226599875987
0.18574468085106383 0.44894968246213973 0.47190381718978824
0.18595744680851065 0.450921598431943 0.47387756912195433
0.18617021276595744 0.45457690967882497 0.4741837048973931
0.18638297872340426 0.45370217284527664 0.4747668627864253
0.18659574468085105 0.4535060180086342 0.4753297508549097
0.18680851063829787 0.4538348803126526 0.4753297508549097
0.1870212765957447 0.455418775508568 0.48008143644265555
0.18723404255319148 0.4530125015657714 0.4728626146142657
0.1874468085106383 0.45172058395781906 0.468437068125982
0.1876595744680851 0.4491081195512085 0.4675662466571119
0.18787234042553191 0.4498061867782619 0.4655593551538837
0.18808510638297873 0.4479726428920372 0.46497280808401437
0.18829787234042553 0.44897248178530463 0.4622949568124867
0.18851063829787235 0.45043197885209424 0.4602358486227215
0.18872340425531914 0.44809477472847326 0.4605520254669345
0.18893617021276596 0.4529754055114605 0.4579138205050196
0.18914893617021278 0.4503867392328975 0.45765103515293193
0.18936170212765957 0.4530402216243878 0.4598339033946465
0.1895744680851064 0.45603693032174747 0.46153463339175643
0.18978723404255318 0.4528578407425501 0.45676599902296044
0.19 0.45523529316911043 0.45518103073858684
0.1902127659574468 0.4555756188304294 0.4528578407425501
0.19042553191489361 0.45478867326367817 0.45157061906179796
0.19063829787234043 0.4550358763616664 0.4501506785111535
0.19085106382978723 0.4565831667843553 0.4481554751306423
0.19106382978723405 0.45676599902296044 0.44785553005739015
0.19127659574468084 0.4567570278884462 0.4450415241817294
0.19148936170212766 0.4549419884908893 0.4450415241817294
0.19170212765957448 0.45605729692160696 0.4450415241817294
0.19191489361702127 0.457583301257701 0.44381557082961837
0.1921276595744681 0.45973339745587444 0.4431237247641305
0.19234042553191488 0.4582357936639701 0.44113844824434595
0.1925531914893617 0.4543531452958217 0.4401166660670594
0.19276595744680852 0.4543926212463003 0.44006403146642126
0.19297872340425531 0.4548366034142849 0.4382022471910112
0.19319148936170213 0.4538348803126526 0.4363150030361362
0.19340425531914893 0.4543721942096108 0.43590603060147537
0.19361702127659575 0.4542024698637698 0.4366157576019233
0.19382978723404254 0.4538348803126526 0.43739730994376375
0.19404255319148936 0.45334300613873957 0.4382022471910112
0.19425531914893618 0.4528578407425501 0.43781227444536475
0.19446808510638297 0.4537906360176081 0.43652561116461513
0.1946808510638298 0.45668178940535714 0.43426601903806644
0.19489361702127658 0.4542314633731896 0.4334492436940106
0.1951063829787234 0.45546046116513045 0.4316914684880205
0.19531914893617022 0.4540248126230601 0.4287167499555966
0.19553191489361701 0.45288603639831015 0.4265341636613002
0.19574468085106383 0.45097000223045025 0.4284318514899854
0.19595744680851063 0.45292260477010643 0.4283994694762072
0.19617021276595745 0.45460904515164646 0.42755624928543706
0.19638297872340427 0.4531572133385198 0.42745481191988266
0.19659574468085106 0.4505376968781793 0.4259080493436356
0.19680851063829788 0.44992672203224227 0.4291752092808359
0.19702127659574467 0.44992672203224227 0.4331115767830428
0.1972340425531915 0.4511785582410538 0.4367977613282238
0.19744680851063828 0.4512881384908355 0.43583159646456343
0.1976595744680851 0.4504048371830896 0.43479301332985604
0.19787234042553192 0.45161821359063586 0.4355530437404357
0.19808510638297872 0.4555793183729765 0.4362132278708259
0.19829787234042554 0.45223620250455665 0.43802454652495665
0.19851063829787233 0.45282859282390053 0.4391500388424642
0.19872340425531915 0.4529164558809755 0.44116267347053173
0.19893617021276597 0.4544044798295412 0.44231412549802857
0.19914893617021276 0.45316324003943476 0.44385907748098224
0.19936170212765958 0.4582397975808993 0.44376972490003896
0.19957446808510637 0.4514026573993437 0.4455196679548331
0.1997872340425532 0.4503037927951156 0.4460185637518319
0.2 0.4492017683739353 0.44746847106844606
0.2002127659574468 0.44894968246213973 0.45315422375729597
0.20042553191489362 0.45181409944169226 0.45288007465280183
0.20063829787234042 0.44924222175863876 0.45390801513677737
0.20085106382978724 0.45676516685900304 0.4557888405722926
0.20106382978723403 0.44992672203224227 0.45488391247673093
0.20127659574468085 0.44992672203224227 0.45549265160390245
0.20148936170212767 0.44992672203224227 0.4557889594528579
0.20170212765957446 0.44992672203224227 0.45648742189787367
0.20191489361702128 0.44992672203224227 0.4618075622192283
0.20212765957446807 0.44992672203224227 0.4628025658191331
0.2023404255319149 0.4508489001922011 0.4644725927634937
0.2025531914893617 0.45188080117244755 0.4695476414597378
0.2027659574468085 0.45188080117244755 0.4702254236474575
0.20297872340425532 0.4515231725889326 0.46910988485077915
0.20319148936170212 0.45139994821846646 0.4684904738641915
0.20340425531914894 0.45188080117244755 0.4691214639561391
0.20361702127659576 0.45111307445763316 0.4702352401491083
0.20382978723404255 0.4527139805572356 0.474064990914178
0.20404255319148937 0.4528215275875083 0.4744253375948905
0.20425531914893616 0.45214904187692356 0.47657503112948824
0.20446808510638298 0.45287263505082226 0.47922311482704766
0.20468085106382977 0.44992672203224227 0.480248297937131
0.2048936170212766 0.44992672203224227 0.4782416925508388
0.2051063829787234 0.4509443233876649 0.4801743869201026
0.2053191489361702 0.45316517289694597 0.4798800949975693
0.20553191489361702 0.45616711917099534 0.47632788394151815
0.20574468085106382 0.4576802470071314 0.47898674279159376
0.20595744680851064 0.4539556653032938 0.4753901433502303
0.20617021276595746 0.4557889594528579 0.4755461079651083
0.20638297872340425 0.4557889594528579 0.4727144046115177
0.20659574468085107 0.4562297698403577 0.4751389132647036
0.20680851063829786 0.4596660297049717 0.4743837993131035
0.20702127659574468 0.46023653657457575 0.46956931154680653
0.2072340425531915 0.45722019987390994 0.4668391952912859
0.2074468085106383 0.459633915474522 0.4674923668745069
0.2076595744680851 0.4568825193137982 0.4646988358746189
0.2078723404255319 0.45825239658952976 0.46504999715741696
0.20808510638297872 0.4593059429788388 0.46282292650481976
0.20829787234042554 0.4587200781631655 0.4605903367644813
0.20851063829787234 0.46000673448639007 0.4584104614100437
0.20872340425531916 0.45914110774849587 0.4569765138156256
0.20893617021276595 0.45954184172545304 0.45347894477381095
0.20914893617021277 0.45783795105131336 0.4528578407425501
0.20936170212765956 0.45472716188730505 0.45561944346195765
0.20957446808510638 0.454680818458484 0.4536233957761948
0.2097872340425532 0.457743038593063 0.4528578407425501
0.21 0.45570624274533433 0.4524504815730044
0.2102127659574468 0.45718296297896865 0.45079952061334283
0.2104255319148936 0.45662242478132997 0.44790085577122185
0.21063829787234042 0.4556245789210435 0.4478082623602228
0.21085106382978724 0.4557889594528579 0.44512725730570296
0.21106382978723404 0.4552746492499863 0.4448564324348369
0.21127659574468086 0.458879403973253 0.4432509877935272
0.21148936170212765 0.4543681508541169 0.4438426000973077
0.21170212765957447 0.4531002264542228 0.4433298307531969
0.2119148936170213 0.4538348803126526 0.44406448461162684
0.21212765957446808 0.4534245960741224 0.4434490582538314
0.2123404255319149 0.4528949164030332 0.4404572890809285
0.2125531914893617 0.45434633308384165 0.43917928676111373
0.2127659574468085 0.4526655533288275 0.437425296285376
0.2129787234042553 0.45188080117244755 0.4368495778216009
0.21319148936170212 0.4524971032192604 0.4390741137613474
0.21340425531914894 0.4521416792009721 0.43585935708174806
0.21361702127659574 0.4527290922838949 0.43429408891060084
0.21382978723404256 0.45287044983061775 0.43332335388453214
0.21404255319148935 0.45486509400003844 0.4342675018519592
0.21425531914893617 0.45633065787091415 0.43346216305784707
0.214468085106383 0.4543917634724882 0.43345876417084744
0.21468085106382978 0.45537594355531086 0.4309499543027461
0.2148936170212766 0.45481191988275516 0.4303859306301905
0.2151063829787234 0.4534424149088469 0.4331249405780071
0.2153191489361702 0.45696137182047336 0.42936985161709296
0.21553191489361703 0.4558335712863703 0.4284318514899854
0.21574468085106382 0.45602339582394213 0.4284318514899854
0.21595744680851064 0.4572322368164264 0.4284318514899854
0.21617021276595744 0.4561835062640926 0.4288263983012201
0.21638297872340426 0.45676599902296044 0.4303166474194719
0.21659574468085105 0.45477891379379204 0.431362970200293
0.21680851063829787 0.4509660757231206 0.4332547352197225
0.2170212765957447 0.44608759022605277 0.4350619152718387
0.21723404255319148 0.4450415241817294 0.4352711284807034
0.2174468085106383 0.445369542773836 0.43748762249459394
0.2176595744680851 0.44951834676392294 0.44031661536468025
0.2178723404255319 0.4470115763653148 0.43786591863872354
0.21808510638297873 0.44339092608293407 0.4404172353352102
0.21829787234042553 0.441133365901319 0.44211040547142155
0.21851063829787234 0.44367101555216565 0.44337923029684495
0.21872340425531914 0.4442718698261044 0.4432948302560017
0.21893617021276596 0.4422486175962008 0.4449033120569501
0.21914893617021278 0.4441326165484915 0.4451777880554587
0.21936170212765957 0.44523328333577156 0.44737912163001886
0.2195744680851064 0.4466648276392177 0.44991907829321837
0.21978723404255318 0.4470552515883347 0.45096340986874506
0.22 0.4483941869606167 0.44992672203224227
0.2202127659574468 0.4491963863397411 0.4528480648022469
0.2204255319148936 0.44894968246213973 0.4547001014742926
0.22063829787234043 0.44894968246213973 0.4597461072569972
0.22085106382978723 0.44944114061355916 0.4618150162572798
0.22106382978723405 0.45133067162964635 0.4634534307577776
0.22127659574468084 0.4495783116641327 0.4652109447857741
0.22148936170212766 0.4479886130879522 0.4636212462095936
0.22170212765957448 0.44576237827997783 0.4589285613177059
0.22191489361702127 0.44578807741076815 0.4560194457939217
0.2221276595744681 0.44515174926990053 0.4566557739347893
0.22234042553191488 0.4451610758422997 0.4568377300193026
0.2225531914893617 0.4497710755216923 0.4598527642438182
0.22276595744680852 0.44894968246213973 0.4611919568833228
0.2229787234042553 0.4477858548865349 0.46301617896877756
0.22319148936170213 0.4460185637518319 0.4625589910871817
0.22340425531914893 0.4460185637518319 0.46363688084678967
0.22361702127659575 0.4460185637518319 0.46301665599519076
0.22382978723404254 0.4460185637518319 0.46262823644357587
0.22404255319148936 0.4515603984786162 0.4672464320492295
0.22425531914893618 0.4451053391558518 0.4618426417958406
0.22446808510638297 0.44662408063469583 0.46397679870091724
0.2246808510638298 0.44894968246213973 0.463004290347775
0.22489361702127658 0.45036525665866806 0.4655593551538837
0.2251063829787234 0.4508085662976387 0.46663159002869253
0.22531914893617022 0.45054211716933634 0.4668980391569948
0.225531914893617 0.4509037616023448 0.4687828004379468
0.22574468085106383 0.4509037616023448 0.46878515155572614
0.22595744680851063 0.44970663739635547 0.46908903596718615
0.22617021276595745 0.4501969789682512 0.4713384581934615
0.22638297872340427 0.4501971527602707 0.4716920233025278
0.22659574468085106 0.4531351998232939 0.4730258314700251
0.22680851063829788 0.4529974544261404 0.47170081994168006
0.22702127659574467 0.4528578407425501 0.46868201854462593
0.2272340425531915 0.4519351101300747 0.4694132044766669
0.22744680851063828 0.4547915372882443 0.4704377588062263
0.2276595744680851 0.455650327906409 0.46842115809096707
0.22787234042553192 0.453889417468667 0.46754070287209615
0.22808510638297871 0.4557034796666861 0.46471053526303885
0.22829787234042553 0.45488879363191886 0.4636821497628423
0.22851063829787233 0.4555770634607979 0.46054470170150824
0.22872340425531915 0.4557889594528579 0.45969711773326827
0.22893617021276597 0.45702640887729523 0.4584596683088308
0.22914893617021276 0.4571088168056224 0.45964570395538495
0.22936170212765958 0.4574491496511372 0.45589210290613313
0.22957446808510637 0.457743038593063 0.4531739986450013
0.2297872340425532 0.45842180834117996 0.45353661049066707
0.23 0.45937840277594505 0.4525182310870938
0.2302127659574468 0.45833798240744056 0.45052166584661985
0.23042553191489362 0.4592185375305231 0.4477134736260521
0.23063829787234041 0.4560540588426291 0.4477242151000624
0.23085106382978723 0.458243026069814 0.44728642165462534
0.23106382978723405 0.458405963971656 0.44570444956032235
0.23127659574468085 0.45600568534358843 0.4444624064319046
0.23148936170212767 0.4558395697877622 0.44355065965912327
0.23170212765957446 0.457256127245061 0.44112693215312176
0.23191489361702128 0.45729914619100076 0.43962317916317606
0.23212765957446807 0.45590353938061523 0.43986883978376806
0.2323404255319149 0.4539548497619185 0.4392592663939577
0.2325531914893617 0.4562108349180491 0.44076325649804476
0.2327659574468085 0.45756464771086547 0.440334717213414
0.23297872340425532 0.4568208478934151 0.4383119449319205
0.23319148936170211 0.45684995447055704 0.43722520762090866
0.23340425531914893 0.457743038593063 0.4370054274866383
0.23361702127659575 0.457743038593063 0.4358913015608153
0.23382978723404255 0.4572953405509282 0.4348234304385686
0.23404255319148937 0.4572962844978771 0.43270323248585074
0.23425531914893616 0.45708073740240235 0.4307006690096324
0.23446808510638298 0.4559675888054766 0.4311843408476743
0.2346808510638298 0.45766400219331893 0.4304254488300625
0.2348936170212766 0.45863469407608715 0.42940889106008795
0.2351063829787234 0.457743038593063 0.42963006850676244
0.2353191489361702 0.4573866141466609 0.4300295061837884
0.23553191489361702 0.45477555114338286 0.42940889106008795
0.23574468085106381 0.45412526987423785 0.43004260562593183
0.23595744680851063 0.45404110577664114 0.4303859306301905
0.23617021276595745 0.4547440865200175 0.43220434304492045
0.23638297872340425 0.45564926208440765 0.4375744510420343
0.23659574468085107 0.45424483601119775 0.44088053837578633
0.23680851063829786 0.4552697914054708 0.435729000003419
0.23702127659574468 0.4536649806799126 0.43480378780882084
0.2372340425531915 0.4528578407425501 0.4375314153123811
0.2374468085106383 0.4528578407425501 0.4382022471910112
0.2376595744680851 0.4522785174814776 0.43994021697422875
0.2378723404255319 0.45119782085603755 0.44249932653413876
0.23808510638297872 0.44958097918129997 0.44441022746256903
0.23829787234042554 0.4503326204009208 0.44642446212051046
0.23851063829787233 0.4533462970188394 0.45106649568275886
0.23872340425531915 0.45097317455242686 0.44997299733229695
0.23893617021276595 0.4511292635075704 0.4498139710796295
0.23914893617021277 0.4531080069422597 0.44919984866184937
0.23936170212765956 0.4534463681882501 0.45031523415664476
0.23957446808510638 0.4533874293806145 0.45355170479266704
0.2397872340425532 0.4518173018262178 0.4551164332907129
0.24 0.4517167864996979 0.46050309416422563
0.2402127659574468 0.45188080117244755 0.45880431755415857
0.2404255319148936 0.4508135839245051 0.4546315645270757
0.24063829787234042 0.4490166966435701 0.4528578407425501
0.24085106382978724 0.4460185637518319 0.4524895274231017
0.24106382978723404 0.4455092350851097 0.45188080117244755
0.24127659574468086 0.4450415241817294 0.45447838093227433
0.24148936170212765 0.4450415241817294 0.459725606803968
0.24170212765957447 0.4515070667073873 0.4606741573033708
0.2419148936170213 0.44506036365981966 0.46458231558378116
0.24212765957446808 0.4461500649209635 0.46471381675291273
0.2423404255319149 0.44699560332193444 0.46619817941389785
0.2425531914893617 0.44687120082594867 0.4705689555003824
0.2427659574468085 0.4470621349848362 0.47089980695799716
0.2429787234042553 0.4495310381923597 0.46986319727417664
0.24319148936170212 0.44894968246213973 0.4715088634392013
0.24340425531914894 0.44894968246213973 0.47106292423330365
0.24361702127659574 0.4521674610507095 0.46964010835725417
0.24382978723404256 0.45192978254477256 0.46946751343429405
0.24404255319148935 0.45186811920054687 0.46946751343429405
0.24425531914893617 0.449843783190623 0.4693845745926748
0.244468085106383 0.4496828003972714 0.46878372103824417
0.24468085106382978 0.45335394184454314 0.4710858042952092
0.2448936170212766 0.4509037616023448 0.47435271128480694
0.2451063829787234 0.45125164774446325 0.47539636971116217
0.2453191489361702 0.45188080117244755 0.47680042698653047
0.24553191489361703 0.45188080117244755 0.47815389249651175
0.24574468085106382 0.45263267214968345 0.47923790913532005
0.24595744680851064 0.4528578407425501 0.48078254942313975
0.24617021276595744 0.4519880666997222 0.4768431180613855
0.24638297872340426 0.4562201958255455 0.4763067904250122
0.24659574468085105 0.45481191988275516 0.47435988048348027
0.24680851063829787 0.4549541994867547 0.4758799516130136
0.2470212765957447 0.45550650488241806 0.4730932171442646
0.24723404255319148 0.4552340379523067 0.47239863214460187
0.2474468085106383 0.4557889594528579 0.4695963057824692
0.2476595744680851 0.45646989709302604 0.4661515590137526
0.2478723404255319 0.45514968948403606 0.4631348908454972
0.24808510638297873 0.4565107133593716 0.46092944296695965
0.24829787234042552 0.45676599902296044 0.4597220503325723
0.24851063829787234 0.457743038593063 0.4606741573033708
0.24872340425531914 0.45749777510844186 0.4611646842726131
0.24893617021276596 0.4575303930674828 0.46262823644357587
0.24914893617021278 0.45976356641625293 0.4647152129497506
0.24936170212765957 0.4613367276847238 0.4678615354866923
0.2495744680851064 0.46165119687347334 0.4692930918378893
0.24978723404255318 0.4588293872006852 0.46758630698576875
0.25 0.459526406921148 0.46106280423023027
0.2502127659574468 0.45969711773326827 0.45189853862472
0.25042553191489364 0.45675025606589376 0.444962809396396
0.25063829787234043 0.4557889594528579 0.43994169905808717
0.2508510638297872 0.4562117929190278 0.4370137908878237
0.251063829787234 0.45706183317747057 0.43692937346639854
0.25127659574468086 0.4553138003952435 0.4386774062486255
0.25148936170212766 0.45481191988275516 0.4379581452385483
0.25170212765957445 0.45631297716431113 0.43797573626168657
0.2519148936170213 0.4549849485456636 0.4390927724296595
0.2521276595744681 0.4551223166001707 0.44190347432647786
0.2523404255319149 0.45935500565303705 0.43857914766253514
0.2525531914893617 0.4538348803126526 0.4404819825343126
0.2527659574468085 0.4547433015123277 0.4402249447016439
0.2529787234042553 0.45405778741228014 0.43802517206739533
0.2531914893617021 0.4549925557781557 0.438648350977979
0.25340425531914895 0.45664056660429436 0.4366244653068043
0.25361702127659574 0.4557889594528579 0.4361985355792645
0.25382978723404254 0.45606426152559226 0.4328906139158645
0.2540425531914894 0.457743038593063 0.4353161366035689
0.2542553191489362 0.4574206017364657 0.43233028077008495
0.25446808510638297 0.4580269363563737 0.4330331515771876
0.25468085106382976 0.45969711773326827 0.4323674750592325
0.2548936170212766 0.459057356028722 0.43075800252231355
0.2551063829787234 0.4587200781631655 0.42940889106008795
0.2553191489361702 0.4596372965061192 0.4321605460889486
0.25553191489361704 0.459538011532204 0.4326582221725242
0.25574468085106383 0.45862582707256316 0.436027470930931
0.2559574468085106 0.4591081427952248 0.43636100879995277
0.2561702127659574 0.45581772963997264 0.43769934231240254
0.25638297872340426 0.45676599902296044 0.43722520762090866
0.25659574468085106 0.45522202042358306 0.4356812290215313
0.25680851063829785 0.4557218170867446 0.4361810256846928
0.2570212765957447 0.4536857535128791 0.4360990412510326
0.2572340425531915 0.4512296373514293 0.43472819812461305
0.2574468085106383 0.4493067650217286 0.43624816805080613
0.25765957446808513 0.44992672203224227 0.4367482899102426
0.2578723404255319 0.44929563061294314 0.4378562990402078
0.2580851063829787 0.44894968246213973 0.4427509391078883
0.2582978723404255 0.44985040555751343 0.44406448461162684
0.25851063829787235 0.4498606678563944 0.44321955339321983
0.25872340425531914 0.44914182616735904 0.44561795529738735
0.25893617021276594 0.45050943362436374 0.4473899312999157
0.2591489361702128 0.45267881014994227 0.4452205547743372
0.2593617021276596 0.44908105156132067 0.4488183133629588
0.25957446808510637 0.4496971418356936 0.44774306269548847
0.2597872340425532 0.45021731822694394 0.44794633014553764
0.26 0.45214272780978915 0.4506418349650032
0.2602127659574468 0.4505329656449303 0.45262239308727653
0.2604255319148936 0.4503800747967348 0.45428823307714516
0.26063829787234044 0.45036832481981376 0.45481191988275516
0.26085106382978723 0.4518316784893767 0.45354194891133226
0.261063829787234 0.4528578407425501 0.4557617255834162
0.2612765957446809 0.45206968462617486 0.45676599902296044
0.26148936170212767 0.45106440846061513 0.4592151771584574
0.26170212765957446 0.4509037616023448 0.46042985087175453
0.26191489361702125 0.45185345144476513 0.4611490022245809
0.2621276595744681 0.4522242649137962 0.4618623888163913
0.2623404255319149 0.4495411970253358 0.46301376145048234
0.2625531914893617 0.4472532549932157 0.4654734712634566
0.26276595744680853 0.44974013468029017 0.4646445113677652
0.2629787234042553 0.4469827211672742 0.46531831580002314
0.2631914893617021 0.4483440219878837 0.46672208427190964
0.26340425531914896 0.44992672203224227 0.4664358130553138
0.26361702127659575 0.4505258809404044 0.4673568318783702
0.26382978723404255 0.45157343857202287 0.46916015083386947
0.26404255319148934 0.4541180146129547 0.4724504646883037
0.2642553191489362 0.45313152684091607 0.47253547519378486
0.264468085106383 0.45189278398943505 0.4695034618852566
0.26468085106382977 0.4494476706480463 0.46886396500362143
0.2648936170212766 0.45266376344474585 0.47142159257449934
0.2651063829787234 0.45171468751822735 0.47125547892027914
0.2653191489361702 0.45120682103343374 0.47195985015984115
0.265531914893617 0.45232435671046217 0.4731119731648365
0.26574468085106384 0.4528578407425501 0.4704445530043966
0.26595744680851063 0.4528578407425501 0.4716034275502491
0.2661702127659574 0.45457544287610924 0.4712535640555624
0.2663829787234043 0.4545845970321558 0.4704445530043966
0.26659574468085107 0.4538348803126526 0.46925065561498064
0.26680851063829786 0.45330045350542303 0.4690249006714211
0.2670212765957447 0.4533159025038638 0.4703836369569215
0.2672340425531915 0.45626762854424724 0.47425979884469294
0.2674468085106383 0.45791755247603494 0.4771931304108774
0.2676595744680851 0.45481191988275516 0.47443075413520425
0.26787234042553193 0.45459332228056837 0.4713056441336678
0.2680851063829787 0.4540282524269102 0.46728138775697986
0.2682978723404255 0.45739914235820084 0.463236319839431
0.26851063829787236 0.45752533045424615 0.4612529476371669
0.26872340425531915 0.4562965139882754 0.46054726866951645
0.26893617021276595 0.4589571831767207 0.45969711773326827
0.26914893617021274 0.45600069781010844 0.45893181652041626
0.2693617021276596 0.4553284589486642 0.457743038593063
0.2695744680851064 0.4557889594528579 0.4544821557195135
0.26978723404255317 0.4557889594528579 0.4536501939518641
0.27 0.45735758366521173 0.45148194399412167
0.2702127659574468 0.46128745335634097 0.45001765791152537
0.2704255319148936 0.45676599902296044 0.4451835644835819
0.27063829787234045 0.45694905059674273 0.44778959131825485
0.27085106382978724 0.4574284005999448 0.4460516893425798
0.27106382978723403 0.45676599902296044 0.44406448461162684
0.2712765957446808 0.45676599902296044 0.4434695450931198
0.2714893617021277 0.4560328409338095 0.4438206031306752
0.27170212765957447 0.4551314425273424 0.4420919338350805
0.27191489361702126 0.45618393355795694 0.44181937273891986
0.2721276595744681 0.4559428865039171 0.44128729295237823
0.2723404255319149 0.4577187649458303 0.4401684631548328
0.2725531914893617 0.45664020553690265 0.44088177892920344
0.2727659574468085 0.45552214309147376 0.43891247039972964
0.27297872340425533 0.455616866994715 0.4382022471910112
0.2731914893617021 0.4557236710899487 0.4376810832245054
0.2734042553191489 0.4596298589095539 0.43662296524255884
0.27361702127659576 0.459288896472026 0.43513505472695607
0.27382978723404255 0.45596106897286354 0.4371113440859398
0.27404255319148935 0.4552603462487133 0.43866702088854925
0.2742553191489362 0.45665324962109816 0.43083692823763964
0.274468085106383 0.4557889594528579 0.43429408891060084
0.2746808510638298 0.45624176087039264 0.4338412874930661
0.27489361702127657 0.45676452631725795 0.4323400097703958
0.2751063829787234 0.45655094473231617 0.4323400097703958
0.2753191489361702 0.457166835332166 0.43285775738072896
0.275531914893617 0.4567998281613893 0.4323061806319668
0.27574468085106385 0.459399057069709 0.43094896558113155
0.27595744680851064 0.46092246148129573 0.4296571952380129
0.27617021276595743 0.45969711773326827 0.42916784156976884
0.2763829787234042 0.4588474534056472 0.43123559495781155
0.2765957446808511 0.45624599948122646 0.4325370500278974
0.27680851063829787 0.45542131053068774 0.43190940725002186
0.27702127659574466 0.45792471354401326 0.436043604828072
0.2772340425531915 0.4574090204797882 0.43760655716315533
0.2774468085106383 0.45325761531595743 0.4384908796893588
0.2776595744680851 0.45188080117244755 0.4396128238282641
0.27787234042553194 0.45188080117244755 0.4410968277928814
0.27808510638297873 0.4506523956092096 0.44051916311970013
0.2782978723404255 0.44992672203224227 0.4431745475305796
0.2785106382978723 0.45056239589480124 0.4476548059607577
0.27872340425531916 0.4512859592871666 0.4475904452072154
0.27893617021276595 0.44992672203224227 0.4497526690250626
0.27914893617021275 0.4506033274906985 0.4515424984432194
0.2793617021276596 0.45188080117244755 0.4522974605968851
0.2795744680851064 0.4530561152738369 0.4526595662112633
0.2797872340425532 0.4509899131361616 0.45401452655481567
0.27999999999999997 0.44739068441464724 0.45819330337288183
0.2802127659574468 0.44699560332193444 0.4615793174261261
0.2804255319148936 0.4461170328945458 0.4690736368634384
0.2806382978723404 0.4472064462749005 0.46598104105981575
0.28085106382978725 0.4474229841145615 0.4680630930715646
0.28106382978723404 0.4460185637518319 0.46946751343429405
0.28127659574468084 0.44656684194750584 0.4689192352386201
0.2814893617021277 0.4476800411163054 0.47054378724730406
0.2817021276595745 0.4463295064067888 0.4681353196040028
0.28191489361702127 0.4460185637518319 0.4659014412400713
0.28212765957446806 0.4460185637518319 0.46467297295984883
0.2823404255319149 0.44508528974963735 0.4625844708756679
0.2825531914893617 0.4458387438429249 0.4629099362358226
0.2827659574468085 0.4450415241817294 0.4668988313549571
0.28297872340425534 0.44631733797308437 0.46445581854124857
0.28319148936170213 0.448986226258399 0.4650525634707028
0.2834042553191489 0.4487359943909819 0.466963770866302
0.2836170212765957 0.4486821556966368 0.4720380378871897
0.28382978723404256 0.4497968659914171 0.47252848818542703
0.28404255319148936 0.45186238855557753 0.4733848780231394
0.28425531914893615 0.45022793954600965 0.47450332004169066
0.284468085106383 0.45129945302479485 0.4750390767810833
0.2846808510638298 0.4507879300943825 0.4747833153158771
0.2848936170212766 0.4507419607513032 0.4753297508549097
0.2851063829787234 0.44992672203224227 0.4753297508549097
0.2853191489361702 0.45071958011301666 0.47374403469336074
0.285531914893617 0.45362443363283583 0.4751894530683652
0.2857446808510638 0.45182615268281096 0.4733756717147044
0.28595744680851065 0.450906912025435 0.4733756717147044
0.28617021276595744 0.4522131299135265 0.4733756717147044
0.28638297872340424 0.4538040123817224 0.47236776421367166
0.2865957446808511 0.4512930394466641 0.47024606912293254
0.2868085106382979 0.45082651565005233 0.47247587809689445
0.28702127659574467 0.44992672203224227 0.4733756717147044
0.28723404255319146 0.44992672203224227 0.4733756717147044
0.2874468085106383 0.44992672203224227 0.47148374273334054
0.2876595744680851 0.44699560332193444 0.4704445530043966
0.2878723404255319 0.44699560332193444 0.46994513819862804
0.28808510638297874 0.44699560332193444 0.4684904738641915
0.28829787234042553 0.44752496725046703 0.4663730181500616
0.2885106382978723 0.4479726428920372 0.4659194475684658
0.28872340425531917 0.44877818122282986 0.4681474713855718
0.28893617021276596 0.4497142430665103 0.46619679205107967
0.28914893617021276 0.45162111559128904 0.4630177648153136
0.28936170212765955 0.45189399806919994 0.4655329613603789
0.2895744680851064 0.45398420955923763 0.4612032091337182
0.2897872340425532 0.4553605053436403 0.45926866362405067
0.29 0.4556503833622167 0.46030228541645624
0.2902127659574468 0.4548379071227048 0.4576910641131641
0.2904255319148936 0.45514917160877866 0.4538695959206204
0.2906382978723404 0.45481191988275516 0.4497383684098964
0.2908510638297872 0.45665381090487916 0.4480287369510778
0.29106382978723405 0.457668370877816 0.4521111635900803
0.29127659574468084 0.45660314884350167 0.4429245948620653
0.29148936170212764 0.4560358662079696 0.4426042189816449
0.2917021276595745 0.4571327606206675 0.4433309614162127
0.2919148936170213 0.4572561119715348 0.4416234788498934
0.29212765957446807 0.45622714726077485 0.441133365901319
0.2923404255319149 0.4551877795410764 0.4393298261659749
0.2925531914893617 0.4533405861044595 0.43893791408015903
0.2927659574468085 0.45461066367009906 0.43830287529733925
0.2929787234042553 0.4538348803126526 0.4382022471910112
0.29319148936170214 0.4540020758401551 0.4382022471910112
0.29340425531914893 0.45451885195493563 0.4382022471910112
0.2936170212765957 0.45634283217388094 0.43778425521413983
0.29382978723404257 0.4577594432771954 0.4367407890068905
0.29404255319148936 0.45635030915183283 0.4340027692549062
0.29425531914893616 0.4560712074432512 0.433034801350105
0.29446808510638295 0.45329755861925036 0.4341475162850341
0.2946808510638298 0.4528578407425501 0.43429408891060084
0.2948936170212766 0.4545622592988955 0.43186229136801235
0.2951063829787234 0.4536517333095488 0.4355357593363696
0.29531914893617023 0.4553837275286952 0.43624816805080613
0.295531914893617 0.45426865900897695 0.4340751245556932
0.2957446808510638 0.4538348803126526 0.4323400097703958
0.29595744680851066 0.4538348803126526 0.43316117072696425
0.29617021276595745 0.4538348803126526 0.43140875036581827
0.29638297872340424 0.4528578407425501 0.4304933936580928
0.29659574468085104 0.45261015586947356 0.4321060248195227
0.2968085106382979 0.452549770240966 0.4349630579791194
0.2970212765957447 0.45310008917202005 0.4369829591914387
0.29723404255319147 0.45188080117244755 0.4402130651606972
0.2974468085106383 0.45316684979747596 0.44211040547142155
0.2976595744680851 0.4530513447177197 0.44211040547142155
0.2978723404255319 0.4528578407425501 0.44488260189794554
0.29808510638297875 0.4537916162733062 0.4450415241817294
0.29829787234042554 0.4516186891362755 0.44139547793749107
0.29851063829787233 0.4487204384468633 0.44360599658107397
0.2987234042553191 0.4476005847459365 0.44211040547142155
0.298936170212766 0.44699560332193444 0.44365180533760673
0.29914893617021276 0.44699560332193444 0.44569845144224507
0.29936170212765956 0.4477972021785299 0.4484233603216179
0.2995744680851064 0.44608160650804746 0.4498952006541345
0.2997872340425532 0.446238155108575 0.45101355728071635
0.3 0.448997928323931 0.4523934438883944
0.3002127659574468 0.4490718759104983 0.45423615535007394
0.30042553191489363 0.4444948013913843 0.45645208825379047
0.3006382978723404 0.4452972489698408 0.45835942077216996
0.3008510638297872 0.4460185637518319 0.4608423874127982
0.30106382978723406 0.44521016444918826 0.4632679954787608
0.30127659574468085 0.4450415241817294 0.4645406878933073
0.30148936170212765 0.4460185637518319 0.4617485004606314
0.3017021276595745 0.44578527663036555 0.4630948106865086
0.3019148936170213 0.44598400844623426 0.46458231558378116
0.3021276595744681 0.4486464216479014 0.4649192049617133
0.30234042553191487 0.45087385058280893 0.46650648370445036
0.3025531914893617 0.44881927443062086 0.46812573964245424
0.3027659574468085 0.44849369944407996 0.47073761804740966
0.3029787234042553 0.4498389888108439 0.4696429798770908
0.30319148936170215 0.4499800096526006 0.47239863214460187
0.30340425531914894 0.4503256415335221 0.47259133883420945
0.30361702127659573 0.44763957290370815 0.4730426017263754
0.3038297872340425 0.44746987886479234 0.4738214587731754
0.3040425531914894 0.447357031005391 0.4734829151949714
0.30425531914893617 0.4485104590995524 0.47239863214460187
0.30446808510638296 0.44984694091567556 0.4732958905981377
0.3046808510638298 0.4508465349373082 0.4733184450496678
0.3048936170212766 0.45008983941031006 0.47207239738846624
0.3051063829787234 0.45242125320672205 0.4707480513252721
0.30531914893617024 0.453121685338996 0.4700879555175684
0.30553191489361703 0.4493397670436562 0.47025133882994985
0.3057446808510638 0.4504107631973089 0.4692299714717454
0.3059574468085106 0.4509037616023448 0.46686570090298846
0.30617021276595746 0.45372196521535535 0.4712334007456706
0.30638297872340425 0.45198513503487625 0.4696761811591514
0.30659574468085105 0.4528578407425501 0.4709301341415339
0.3068085106382979 0.4528578407425501 0.4702462859364755
0.3070212765957447 0.45338569625685476 0.46983802603158514
0.3072340425531915 0.4538348803126526 0.4684904738641915
0.30744680851063827 0.4562786883357407 0.4676758711898289
0.3076595744680851 0.45772415490619517 0.4627226548779148
0.3078723404255319 0.45664227255069595 0.46470604205604565
0.3080851063829787 0.45552368725629805 0.4658246273504435
0.30829787234042555 0.45440314220809264 0.4653100616999987
0.30851063829787234 0.45548789733946554 0.4636052760136786
0.30872340425531913 0.4546955138797264 0.4636052760136786
0.308936170212766 0.45715686874507566 0.4636052760136786
0.3091489361702128 0.4558942601640663 0.4608321083701834
0.30936170212765957 0.4548851307656286 0.46165119687347334
0.30957446808510636 0.4576693201513856 0.46187235219850553
0.3097872340425532 0.45645445561052556 0.46349191364025916
0.31 0.4550362817286026 0.4575186767472156
0.3102127659574468 0.4570389606923483 0.4564534987130879
0.31042553191489364 0.4584537069979569 0.4557889594528579
0.31063829787234043 0.45572346392615093 0.4547464243560484
0.3108510638297872 0.45608621080353073 0.4512862984711016
0.311063829787234 0.45530469013336977 0.44554279536347063
0.31127659574468086 0.4533936282074307 0.4412279012609778
0.31148936170212765 0.4540247317897996 0.43898943528396683
0.31170212765957445 0.45387710976812246 0.4363326269617457
0.3119148936170213 0.4532434422175994 0.43429408891060084
0.3121276595744681 0.4538348803126526 0.4345852121478711
0.3123404255319149 0.4541915812570207 0.4361628808416235
0.3125531914893617 0.4555501770760242 0.4401563263312165
0.3127659574468085 0.4532089074207544 0.4401563263312165
0.3129787234042553 0.4565908991592389 0.44033142619493804
0.3131914893617021 0.4557889594528579 0.441133365901319
0.31340425531914895 0.45584661400029697 0.4411910204487581
0.31361702127659574 0.45660311622651717 0.4419475226749783
0.31382978723404253 0.45596527512976653 0.44211040547142155
0.3140425531914894 0.453249924270346 0.43957137028890964
0.3142553191489362 0.453711899118804 0.43490899487984386
0.31446808510638297 0.45461502460496594 0.4335139446182875
0.31468085106382976 0.45158586074700996 0.4333170493404983
0.3148936170212766 0.4522176163260457 0.43148433390545554
0.3151063829787234 0.4543508140362375 0.4298699969066056
0.3153191489361702 0.45291630281142703 0.4313045081314161
0.31553191489361704 0.4515555197400817 0.43461877270646404
0.31574468085106383 0.4509037616023448 0.43382193918042866
0.3159574468085106 0.4511436809420469 0.4296661726110844
0.31617021276595747 0.4517516260787796 0.42784233720088644
0.31638297872340426 0.45107144140929134 0.42988289120935097
0.31659574468085105 0.45378664155370085 0.42923277864964815
0.31680851063829785 0.4557889594528579 0.4288115125683335
0.3170212765957447 0.4544164200178298 0.4302324147211048
0.3172340425531915 0.4517084184914696 0.4319376813258333
0.3174468085106383 0.4544846677080933 0.4362434510969227
0.3176595744680851 0.455108450190973 0.4408368355931012
0.3178723404255319 0.4534186094824209 0.4432233315018206
0.3180851063829787 0.4528578407425501 0.44482779872512984
0.3182978723404255 0.4528578407425501 0.446824451912569
0.31851063829787235 0.4548493197039285 0.4490618819256597
0.31872340425531914 0.455691525279589 0.4515884986526408
0.31893617021276593 0.45384461374032325 0.4538348803126526
0.3191489361702128 0.4574916744178407 0.45354461015470054
0.3193617021276596 0.4590446874386946 0.4521704133318674
0.31957446808510637 0.45242818317381794 0.4515688680363536
0.3197872340425532 0.45188080117244755 0.44992672203224227
0.32 0.4504665012403336 0.4492195720661854
0.3202127659574468 0.44992672203224227 0.4523423451618386
0.3204255319148936 0.4508831624034276 0.4606123597066191
0.32063829787234044 0.4490957128342915 0.45481191988275516
0.32085106382978723 0.44964528937377585 0.45537478519968805
0.321063829787234 0.44937069238441485 0.45887104863433614
0.32127659574468087 0.4493654844141013 0.4627736721097554
0.32148936170212766 0.4517553890598148 0.4657095559619348
0.32170212765957445 0.4494912069811805 0.46821971160467113
0.32191489361702125 0.44979389233031986 0.4710231034687321
0.3221276595744681 0.4480811590380067 0.4658849035917923
0.3223404255319149 0.44992672203224227 0.4636631792673614
0.3225531914893617 0.44992672203224227 0.4645415659939107
0.3227659574468085 0.44879322664975096 0.46571581096627246
0.3229787234042553 0.44763155174633934 0.467513434294089
0.3231914893617021 0.4492320503497774 0.467513434294089
0.32340425531914896 0.4474923511770708 0.46847401772402153
0.32361702127659575 0.446379645107879 0.4706994298624051
0.32382978723404254 0.4490298387677942 0.4744328675904616
0.32404255319148934 0.4481470344278241 0.47088053184386386
0.3242553191489362 0.44820818856075934 0.47239863214460187
0.324468085106383 0.4523094055260458 0.4722158204057671
0.32468085106382977 0.4496081344382752 0.4720587677624335
0.3248936170212766 0.44894968246213973 0.47247315573430476
0.3251063829787234 0.44894968246213973 0.47200966307797515
0.3253191489361702 0.4496793064920366 0.471669008114705
0.325531914893617 0.45304790838804154 0.47142159257449934
0.32574468085106384 0.4538348803126526 0.4706938802469352
0.32595744680851063 0.4523613065888895 0.4770756347613311
0.3261702127659574 0.45272452755618153 0.4716443716817135
0.32638297872340427 0.45285733107201825 0.47337541687943846
0.32659574468085106 0.4510106839525528 0.47245209331970583
0.32680851063829786 0.45279023863778345 0.47017414458533
0.3270212765957447 0.45271072238432974 0.4671588356328979
0.3272340425531915 0.45510120894996636 0.46843588767995675
0.3274468085106383 0.4543117208253171 0.4646290326733282
0.3276595744680851 0.4560392891066055 0.46385560566742623
0.3278723404255319 0.45676599902296044 0.4660859127822647
0.3280851063829787 0.45500446377579745 0.4665363947239862
0.3282978723404255 0.45396363391531486 0.4648398227891056
0.32851063829787236 0.4538348803126526 0.46458231558378116
0.32872340425531915 0.45652344362499137 0.4627899400422219
0.32893617021276594 0.45772197128174047 0.4616406632178121
0.32914893617021274 0.4556527084579927 0.4602654043187753
0.3293617021276596 0.45481191988275516 0.45636403761203687
0.3295744680851064 0.4556398804775203 0.4536858013373151
0.32978723404255317 0.45676599902296044 0.45149019768958737
0.33 0.4560894623553258 0.4469200724592357
0.3302127659574468 0.4557889594528579 0.4460185637518319
0.3304255319148936 0.45954715759367876 0.44413946468142157
0.33063829787234045 0.4558017719655454 0.44406448461162684
0.33085106382978724 0.4572981839944235 0.44470788323274973
0.33106382978723403 0.45504959667108863 0.442596292014796
0.3312765957446808 0.4579675216171353 0.44293564979258143
0.33148936170212767 0.45676599902296044 0.4421654006691423
0.33170212765957446 0.45676599902296044 0.4417693708810744
0.33191489361702126 0.45355968950266856 0.44193494328139193
0.3321276595744681 0.4575611794590724 0.443051073214726
0.3323404255319149 0.4568730626684232 0.44102630225585626
0.3325531914893617 0.45698947036555954 0.4404075157403843
0.3327659574468085 0.45481191988275516 0.4395840637657432
0.33297872340425533 0.4558335854029923 0.4362035421006715
0.3331914893617021 0.45676599902296044 0.43398459456182736
0.3334042553191489 0.45676599902296044 0.4372418061697906
0.33361702127659576 0.45398631534802164 0.43264287984113375
0.33382978723404255 0.45937567324828094 0.43290253761912356
0.33404255319148934 0.4560144272800072 0.4383901493660912
0.3342553191489362 0.457487378654203 0.4328513296481156
0.334468085106383 0.4571644790775491 0.4330986487468349
0.3346808510638298 0.45613034657686236 0.43297566221649364
0.33489361702127657 0.45481191988275516 0.43429408891060084
0.3351063829787234 0.4531590576809655 0.43429408891060084
0.3353191489361702 0.45479400652899116 0.43429408891060084
0.335531914893617 0.45507561892903664 0.4316266692465745
0.33574468085106385 0.4562233826067428 0.43277443292428064
0.33595744680851064 0.45481191988275516 0.431362970200293
0.33617021276595743 0.4542616585107218 0.4335640156884266
0.3363829787234042 0.45314524191937877 0.4387193204470729
0.33659574468085107 0.4553548481079352 0.4351623116004462
0.33680851063829786 0.4538478936994471 0.43429408891060084
0.33702127659574466 0.4528578407425501 0.4355430527990185
0.3372340425531915 0.4521111109953623 0.4379719373680965
0.3374468085106383 0.44901177478455323 0.4404613087471128
0.3376595744680851 0.44699560332193444 0.441133365901319
0.33787234042553194 0.4464213005001769 0.442281971544834
0.33808510638297873 0.4481286573236982 0.4430874450415241
0.3382978723404255 0.44894968246213973 0.4436333553021071
0.3385106382978723 0.45099380796464295 0.4428380093101249
0.33872340425531916 0.4505530021757446 0.443008724836695
0.33893617021276595 0.44875396730953776 0.44621376684013153
0.33914893617021274 0.4513781370547943 0.4506241408783145
0.3393617021276596 0.4501455270663924 0.4484102529603374
0.3395744680851064 0.44992672203224227 0.4490576454735837
0.3397872340425532 0.4500953213773902 0.4528578407425501
0.34 0.45121457254622643 0.4537902735741949
0.3402127659574468 0.4514275636102738 0.4562421970150316
0.3404255319148936 0.4514990912447597 0.4573613286653752
0.3406382978723404 0.45040704986538643 0.4570061629395325
0.34085106382978725 0.448165911170588 0.45764640445378757
0.34106382978723404 0.4489473802477631 0.459692513304515
0.34127659574468083 0.4477603408607144 0.45990941976459104
0.3414893617021277 0.4465116304836169 0.4623907969711508
0.3417021276595745 0.44991730218246806 0.4657491111580397
0.34191489361702126 0.45143400064395506 0.46703882092789056
0.34212765957446806 0.45044378279403036 0.4670534554857744
0.3423404255319149 0.45142946614119184 0.46698772975524194
0.3425531914893617 0.4507797184275797 0.46598585335155235
0.3427659574468085 0.4488160298045299 0.4655593551538837
0.34297872340425534 0.4468572161766401 0.46388621508078814
0.34319148936170213 0.44785751410037655 0.4644671867921205
0.3434042553191489 0.4475874539213124 0.4662404694242973
0.34361702127659577 0.45074362364865905 0.46878520692002096
0.34382978723404256 0.4502795249308554 0.46866687531349804
0.34404255319148935 0.4516848450454418 0.47024859687739085
0.34425531914893615 0.4471261236877665 0.4704445530043966
0.344468085106383 0.4469884259214844 0.47239863214460187
0.3446808510638298 0.44604349619707373 0.47239863214460187
0.3448936170212766 0.4451874176092196 0.47239863214460187
0.3451063829787234 0.446215127803205 0.4747458393875532
0.3453191489361702 0.44740053967046695 0.47549691772794733
0.345531914893617 0.4493619119667069 0.47296344221013725
0.3457446808510638 0.45220704301287995 0.4714232785256939
0.34595744680851065 0.4525740876092993 0.4730919185814536
0.34617021276595744 0.45188080117244755 0.47239863214460187
0.34638297872340423 0.4520199436842167 0.4721899183769481
0.3465957446808511 0.45312833367692 0.47052733338789304
0.3468085106382979 0.4538348803126526 0.4697390908146795
0.34702127659574467 0.4538348803126526 0.4704445530043966
0.3472340425531915 0.4538348803126526 0.4704445530043966
0.3474468085106383 0.4538348803126526 0.46905416161796304
0.3476595744680851 0.45369315503996566 0.467229983748715
0.3478723404255319 0.4531325666250866 0.4661088069189568
0.34808510638297874 0.45368896446254425 0.4647282314338895
0.34829787234042553 0.45481191988275516 0.4624582120804472
0.3485106382978723 0.45481191988275516 0.4599102196095881
0.34872340425531917 0.45481191988275516 0.4607515962916354
0.34893617021276596 0.45481191988275516 0.4615344242975053
0.34914893617021275 0.4556288263448408 0.46165119687347334
0.34936170212765955 0.4574286283157335 0.45919169357915973
0.3495744680851064 0.4569116414168296 0.4570572838106987
0.3497872340425532 0.4595484347758108 0.4539835632701101
0.35 0.45637437816457704 0.4521735105283071
0.3502127659574468 0.45670445955801225 0.4500498009621386
0.3504255319148936 0.45484752827558284 0.4472448620717282
0.3506382978723404 0.455630613819082 0.45256811524244556
0.35085106382978726 0.45541334412235424 0.44481571527263375
0.35106382978723405 0.45588463077521546 0.44211040547142155
0.35127659574468084 0.4559689575087235 0.4432674430973899
0.35148936170212763 0.45604622448102733 0.4426249355277604
0.3517021276595745 0.454941722323589 0.44295764260069026
0.3519148936170213 0.45965473675026175 0.4460270399484332
0.35212765957446807 0.45481191988275516 0.4474115275206936
0.3523404255319149 0.45434263343890247 0.4485188627006841
0.3525531914893617 0.4528578407425501 0.44287198675545936
0.3527659574468085 0.4524801431340204 0.4384238915440544
0.3529787234042553 0.45188080117244755 0.4356764048648535
0.35319148936170214 0.4512280436109374 0.43429408891060084
0.35340425531914893 0.4509037616023448 0.43508489716056703
0.3536170212765957 0.452756543540519 0.4315655646043552
0.35382978723404257 0.45106636794491417 0.43356095885435236
0.35404255319148936 0.4530237486033779 0.4357504444683226
0.35425531914893615 0.45353385926122675 0.43422011249477604
0.354468085106383 0.4528578407425501 0.43404912420616093
0.3546808510638298 0.4528578407425501 0.43020285521510254
0.3548936170212766 0.45429199190739317 0.430843042224931
0.3551063829787234 0.45395936498305167 0.43051041530058953
0.3553191489361702 0.4528732717593608 0.43336334239093055
0.355531914893617 0.45368151557814046 0.43609480331629397
0.3557446808510638 0.45315331802597597 0.4346801739138516
0.35595744680851066 0.4534093530401594 0.4345936311579781
0.35617021276595745 0.4534074197210479 0.4351490100938103
0.35638297872340424 0.4538348803126526 0.4349313311550845
0.35659574468085103 0.4538348803126526 0.4375297028821292
0.3568085106382979 0.4538348803126526 0.4364221102281587
0.3570212765957447 0.4508494292007583 0.4382565795925977
0.35723404255319147 0.4497262559947616 0.43877835468615245
0.3574468085106383 0.4492925365366142 0.43756806169538315
0.3576595744680851 0.4484804930542638 0.4372380945390256
0.3578723404255319 0.4463811363227092 0.4380915690484818
0.35808510638297875 0.44899926177684846 0.4384341122548596
0.35829787234042554 0.44992672203224227 0.4411788880918699
0.35851063829787233 0.44992672203224227 0.44211040547142155
0.3587234042553191 0.44992222833524126 0.4518628263844436
0.35893617021276597 0.4486421933846646 0.44817763561035395
0.35914893617021276 0.4460185637518319 0.4498749503845223
0.35936170212765955 0.4463869627004836 0.44950228088511723
0.3595744680851064 0.44828882052308466 0.4515646235414
0.3597872340425532 0.4480545458492331 0.45269403482815795
0.36 0.4487274011496905 0.4559664517679259
0.3602127659574468 0.449216655798706 0.4574760652564967
0.3604255319148936 0.44725153050169336 0.4585921145732861
0.3606382978723404 0.4498925245172382 0.4606969556467069
0.3608510638297872 0.44688191683928735 0.46262823644357587
0.36106382978723406 0.4458276553007072 0.4630100533458253
0.36127659574468085 0.44543344293454323 0.46438635620737423
0.36148936170212764 0.4477521015946721 0.4641096081955037
0.3617021276595745 0.4489089901734084 0.46454162329504983
0.3619148936170213 0.4477711877379689 0.46262823644357587
0.3621276595744681 0.44937496617360834 0.46432937128945034
0.36234042553191487 0.4510116498375227 0.4670788586266265
0.3625531914893617 0.45188080117244755 0.4688362036393547
0.3627659574468085 0.44795186253779007 0.4686817257073626
0.3629787234042553 0.4495295071156108 0.46764583926629943
0.36319148936170215 0.45183352638189156 0.4703736408185626
0.36340425531914894 0.44807825437762216 0.47239863214460187
0.36361702127659573 0.44964322958053277 0.47239863214460187
0.3638297872340425 0.4515140720863772 0.4731320903167424
0.36404255319148937 0.4509037616023448 0.47485517627327445
0.36425531914893616 0.4515406002702765 0.4772402668587043
0.36446808510638296 0.4504879716301539 0.4768680400229238
0.3646808510638298 0.4521344643916617 0.4763067904250122
0.3648936170212766 0.4528578407425501 0.4746515553723619
0.3651063829787234 0.45190211195789665 0.476264168854114
0.36531914893617023 0.45188080117244755 0.47319454553591883
0.365531914893617 0.4528640291756315 0.47751726012974816
0.3657446808510638 0.4546511050548835 0.4720193473452771
0.3659574468085106 0.4528578407425501 0.4724377410187859
0.36617021276595746 0.45094783034066094 0.47210233144677843
0.36638297872340425 0.45147034350652476 0.47142159257449934
0.36659574468085104 0.45188080117244755 0.47232954691994483
0.3668085106382979 0.45191994600000923 0.4684904738641915
0.3670212765957447 0.4528578407425501 0.4681385328037563
0.3672340425531915 0.4528578407425501 0.46591229681816587
0.36744680851063827 0.4528578407425501 0.4632351034451802
0.3676595744680851 0.4534407218068956 0.4610683158091278
0.3678723404255319 0.4538348803126526 0.46423971504717726
0.3680851063829787 0.4521546460064207 0.4605186522351877
0.36829787234042555 0.45577411284186026 0.45677713398120867
0.36851063829787234 0.4535733486730351 0.4568967648427692
0.36872340425531913 0.45241351545383696 0.4572103243116736
0.368936170212766 0.4538348803126526 0.4553889497132703
0.36914893617021277 0.45431365284322045 0.4543331473521873
0.36936170212765956 0.45754153889816707 0.45438080411573495
0.36957446808510636 0.45632048578739076 0.45548724627193077
0.3697872340425532 0.4556268900298835 0.45334404901147335
0.37 0.453986082273655 0.4510549635633472
0.3702127659574468 0.4557889594528579 0.45231534473130774
0.37042553191489364 0.455612129357397 0.4434411052324459
0.3706382978723404 0.4575111417914977 0.4450415241817294
0.3708510638297872 0.45975194191360536 0.44375707948170495
0.371063829787234 0.45481191988275516 0.44211040547142155
0.37127659574468086 0.45550460770535683 0.44141771764882004
0.37148936170212765 0.4566155768630792 0.441133365901319
0.37170212765957444 0.4596528570068354 0.441133365901319
0.3719148936170213 0.45676599902296044 0.44198997879391294
0.3721276595744681 0.45676599902296044 0.4408863564009782
0.3723404255319149 0.4578272199973658 0.4405100666560183
0.3725531914893617 0.4592538678480584 0.44024686613089936
0.3727659574468085 0.45700114360842553 0.4386063085762004
0.3729787234042553 0.4550804562751399 0.43678524083557546
0.3731914893617021 0.45565276756160666 0.43624816805080613
0.37340425531914895 0.4557889594528579 0.43333117504568
0.37361702127659574 0.45481191988275516 0.4315836474863539
0.37382978723404253 0.4547176804234622 0.4335055282590842
0.3740425531914894 0.45399184161595135 0.4353496091323527
0.37425531914893617 0.4557889594528579 0.4364456026743766
0.37446808510638296 0.4554532814692923 0.4375608856044742
0.37468085106382976 0.45481191988275516 0.43962214265052824
0.3748936170212766 0.45603013255889707 0.44296068491553187
0.3751063829787234 0.4575107444056069 0.44108550308104083
0.3753191489361702 0.45509623118195003 0.43750951892010354
0.37553191489361704 0.45391680155316705 0.4354349709617322
0.37574468085106383 0.455548882172198 0.4352711284807034
0.3759574468085106 0.4557889594528579 0.4315087350384286
0.37617021276595747 0.4539474186063191 0.43412528147010115
0.37638297872340426 0.45291946910169417 0.43429408891060084
0.37659574468085105 0.45091166963156976 0.43331968535023996
0.37680851063829784 0.45368963574130977 0.4342456740534866
0.3770212765957447 0.45378473968501876 0.4343442295382347
0.3772340425531915 0.45196320055001643 0.43624816805080613
0.3774468085106383 0.45249577342136665 0.4363688571578673
0.3776595744680851 0.44992672203224227 0.43804983412061965
0.3778723404255319 0.44972988448800866 0.4417238785340199
0.3780851063829787 0.44898694907003084 0.44395268478795347
0.37829787234042556 0.4497710864204066 0.4489929083612281
0.37851063829787235 0.4505665243618536 0.4550451406691336
0.37872340425531914 0.4513817571086952 0.4606110116311652
0.37893617021276593 0.4529269117510842 0.46290786896125413
0.3791489361702128 0.4534701974186344 0.45950444093088016
0.3793617021276596 0.44992672203224227 0.4514784829887164
0.37957446808510636 0.44963756960731516 0.4437053443524147
0.3797872340425532 0.44872705561762866 0.4386475008800334
0.38 0.447587415272501 0.43986740561656434
0.3802127659574468 0.44452382388843387 0.4375697120785139
0.3804255319148936 0.44406448461162684 0.44231392806335834
0.38063829787234044 0.4444679198778517 0.44786557104530383
0.38085106382978723 0.4455791051220832 0.452597575759586
0.381063829787234 0.4479574493174312 0.45576870135338327
0.38127659574468087 0.4464772599868087 0.4595274167159289
0.38148936170212766 0.44663302984478054 0.4643609538610626
0.38170212765957445 0.4486762695090504 0.46821706091110216
0.3819148936170213 0.44992672203224227 0.4689334512330336
0.3821276595744681 0.4493390816086355 0.47025339513501196
0.3823404255319149 0.44894968246213973 0.47070437796634884
0.3825531914893617 0.45150196400280534 0.46959379249084143
0.3827659574468085 0.4509221995746776 0.47141237358833293
0.3829787234042553 0.4527009650148208 0.4705229908682612
0.3831914893617021 0.4538339881442691 0.4733747795463209
0.38340425531914896 0.45299019791158507 0.47253098931363685
0.38361702127659575 0.4538348803126526 0.4733756717147044
0.38382978723404254 0.45424207175565795 0.47378286315770973
0.38404255319148933 0.45535625497962073 0.4748970463816725
0.3842553191489362 0.45510771983588444 0.4732860320039896
0.384468085106383 0.4589143412404177 0.4699371793300044
0.38468085106382977 0.45396018791239134 0.46755520349400187
0.3848936170212766 0.4528578407425501 0.4674022149452132
0.3851063829787234 0.4540997226852283 0.4662880183354506
0.3853191489361702 0.45584904554676386 0.4655593551538837
0.38553191489361704 0.4549216484376634 0.46710721092521873
0.38574468085106384 0.4561127925060889 0.4665308543135767
0.38595744680851063 0.4544463389061012 0.46757328597401865
0.3861702127659574 0.4538348803126526 0.4684904738641915
0.38638297872340427 0.45120716243782677 0.4728700036555678
0.38659574468085106 0.4557314141166535 0.47040618944692697
0.38680851063829785 0.45316536608380215 0.46910552454669563
0.3870212765957447 0.4539368944165794 0.47239863214460187
0.3872340425531915 0.4540418434219423 0.47369525749429875
0.3874468085106383 0.45676599902296044 0.47361874790833497
0.3876595744680851 0.45888510179059316 0.47239863214460187
0.3878723404255319 0.4563172865174902 0.46986375873276826
0.3880851063829787 0.45486808600365236 0.47143095359464887
0.3882978723404255 0.46052519713796586 0.4713559109867672
0.38851063829787236 0.4599819080489198 0.4644201938912774
0.38872340425531915 0.45897586992183 0.46165119687347334
0.38893617021276594 0.45845605514228505 0.46165119687347334
0.3891489361702128 0.4582960944749627 0.4595496619860151
0.3893617021276596 0.4610965906163354 0.4578816901573475
0.3895744680851064 0.4626238101284932 0.457743038593063
0.38978723404255317 0.4599243436890232 0.45924266582175843
0.39 0.46134295109489093 0.4556862108599971
0.3902127659574468 0.4582473630506511 0.45457556232649793
0.3904255319148936 0.4571414586311195 0.4534594207044936
0.39063829787234045 0.45722872897262545 0.451829221501675
0.39085106382978724 0.45741426906031357 0.4502554915649917
0.39106382978723403 0.45852074349828 0.4468159024113741
0.3912765957446808 0.46329207897177105 0.4496761643987162
0.39148936170212767 0.4584909982333421 0.4451178841583372
0.39170212765957446 0.45663966962930747 0.4455932086636072
0.39191489361702125 0.4589949830360053 0.4451176866575212
0.3921276595744681 0.4586861418645836 0.4441662935073728
0.3923404255319149 0.4581851829728271 0.441133365901319
0.3925531914893617 0.4590082127968805 0.441693919344799
0.39276595744680853 0.46206840365864443 0.43862478958323736
0.3929787234042553 0.4617935458306434 0.4380598982338411
0.3931914893617021 0.45971089223189016 0.4382022471910112
0.3934042553191489 0.45885018894175145 0.4389190652039419
0.39361702127659576 0.46125262913127685 0.4369659557212406
0.39382978723404255 0.46184851114387326 0.4355734691398951
0.39404255319148934 0.45447178918089404 0.4332736968050174
0.3942553191489362 0.45414680179955264 0.431051048713393
0.394468085106383 0.45481191988275516 0.4316348894406795
0.3946808510638298 0.45481191988275516 0.43429408891060084
0.39489361702127657 0.4563500071783084 0.4348067846757852
0.3951063829787234 0.4558205853174778 0.4365527639977602
0.3953191489361702 0.45713824304790934 0.43800064867596
0.395531914893617 0.45503535417102625 0.4382022471910112
0.39574468085106385 0.4539719218548363 0.4372937283920005
0.39595744680851064 0.45662633120278706 0.43862093306597577
0.39617021276595743 0.45796510418058856 0.4384243127785368
0.3963829787234043 0.4533505049030717 0.43575826680726465
0.39659574468085107 0.45188080117244755 0.43687699273888203
0.39680851063829786 0.45188080117244755 0.4364566689424665
0.39702127659574465 0.4509718529272916 0.4380660645411177
0.3972340425531915 0.4529255951480624 0.4393147955721384
0.3974468085106383 0.4523671576719915 0.4419720645531254
0.3976595744680851 0.44595750867057243 0.4446954926312754
0.39787234042553193 0.444383605023774 0.4447027254359212
0.3980851063829787 0.44530348401399694 0.44614954366796566
0.3982978723404255 0.44725764117244654 0.44778171687347057
0.3985106382978723 0.44600658332488907 0.45071314585910155
0.39872340425531916 0.4436124768836041 0.45188080117244755
0.39893617021276595 0.44655676269643213 0.45250387069364884
0.39914893617021274 0.44724034855584316 0.45066095773396825
0.3993617021276596 0.44958505758142886 0.44733726777274785
0.3995744680851064 0.447028432997822 0.45376922096087746
0.3997872340425532 0.4484794375478434 0.44992672203224227
0.4 0.4469092023803864 0.4502236015750937
0.4002127659574468 0.44808475236577955 0.4509037616023448
0.4004255319148936 0.44585818381643433 0.4537473103660954
0.4006382978723404 0.44710322746681214 0.4599123660230233
0.40085106382978725 0.4455524133303689 0.46165119687347334
0.40106382978723404 0.4488117905970305 0.46165119687347334
0.40127659574468083 0.4460185637518319 0.46939131660687067
0.4014893617021277 0.4474484387715914 0.4682862060042259
0.40170212765957447 0.45251997502221897 0.467513434294089
0.40191489361702126 0.4523444911450269 0.4698318841569859
0.40212765957446805 0.4528578407425501 0.46905304451243796
0.4023404255319149 0.4489057906540548 0.46719506973873554
0.4025531914893617 0.44620217026921094 0.47068716650498327
0.4027659574468085 0.44972824802241795 0.47327643470979225
0.40297872340425533 0.4461885089234594 0.46980740377754904
0.4031914893617021 0.4484182842857477 0.47315285101784915
0.4034042553191489 0.44992672203224227 0.4734565912852022
0.40361702127659577 0.4479807533939379 0.47630273517406185
0.40382978723404256 0.4485028921216975 0.47604166581018204
0.40404255319148935 0.4484215041223256 0.4753297508549097
0.40425531914893614 0.4497482712652159 0.4726663082951415
0.404468085106383 0.4470388098416882 0.47257145822361696
0.4046808510638298 0.44815021062476795 0.4761292226922815
0.4048936170212766 0.4498931748595257 0.47438625845752375
0.4051063829787234 0.45270752601657516 0.47487880667698484
0.4053191489361702 0.4533423749386125 0.47579834269501653
0.405531914893617 0.4528578407425501 0.4733756717147044
0.4057446808510638 0.4551147142242578 0.4711187982329967
0.40595744680851065 0.45431141974852746 0.47192209270872704
0.40617021276595744 0.45461105054142503 0.47162246191582946
0.40638297872340423 0.45661808003454635 0.47142159257449934
0.4065957446808511 0.45969711773326827 0.4673854954863615
0.40680851063829787 0.4590865657250126 0.46474528580954283
0.40702127659574466 0.45608627444842154 0.46165119687347334
0.4072340425531915 0.4557182430016541 0.46210435843292275
0.4074468085106383 0.4556888128184144 0.46262823644357587
0.4076595744680851 0.45481191988275516 0.46262823644357587
0.4078723404255319 0.4586685350001602 0.46185691342009494
0.40808510638297874 0.45969711773326827 0.459828677248803
0.4082978723404255 0.4587974102954765 0.4569206632875824
0.4085106382978723 0.45880941383508034 0.45827622621407155
0.40872340425531917 0.45512918621990855 0.45808554548885905
0.40893617021276596 0.4545836665578688 0.45880219169033043
0.40914893617021275 0.45621555399759367 0.4545091758186505
0.40936170212765954 0.45478248536372745 0.4533537191573583
0.4095744680851064 0.45165465386821624 0.4550380671869865
0.4097872340425532 0.45345442085784254 0.45387596501123456
0.41 0.4559761002876239 0.4528578407425501
0.4102127659574468 0.45676599902296044 0.45227464984226384
0.4104255319148936 0.4587558107804779 0.4505542600007692
0.4106382978723404 0.4558948495110791 0.44764536109892883
0.41085106382978726 0.456466959234383 0.44534056397030675
0.41106382978723405 0.4560096069714744 0.44277234802727106
0.41127659574468084 0.45445889321051336 0.44211040547142155
0.41148936170212763 0.4538348803126526 0.44376049376177346
0.4117021276595745 0.45544544368253403 0.4466520875516108
0.41191489361702127 0.4564316679185961 0.4494742307319265
0.41212765957446806 0.45366103066491853 0.45150615404412114
0.4123404255319149 0.45697328369753076 0.4538348803126526
0.4125531914893617 0.457743038593063 0.45303048158367293
0.4127659574468085 0.4594173510686146 0.4485597241365725
0.4129787234042553 0.460636451173478 0.4424710563955485
0.41319148936170214 0.4581629303963564 0.4363773001015752
0.41340425531914893 0.45764307479481753 0.4284909612180316
0.4136170212765957 0.45623847841660364 0.42242285623010795
0.41382978723404257 0.45765476236874886 0.4187718010693521
0.41404255319148936 0.4548891125599122 0.42222886333039783
0.41425531914893615 0.4547122564119783 0.4257400938877865
0.414468085106383 0.45597720522341495 0.4288083430310995
0.4146808510638298 0.45675959717667053 0.43037312693761065
0.4148936170212766 0.4553510902727673 0.42967847625509403
0.4151063829787234 0.45524597159538843 0.4302769944853543
0.4153191489361702 0.4560158122444544 0.4315898229918896
0.415531914893617 0.45647190200130505 0.43204591274874027
0.4157446808510638 0.4557889594528579 0.431362970200293
0.41595744680851066 0.4557889594528579 0.43080572483119556
0.41617021276595745 0.4557889594528579 0.43108204680640977
0.41638297872340424 0.45913712896721315 0.43387409733605947
0.4165957446808511 0.4606695211513249 0.43429408891060084
0.4168085106382979 0.4536990625586747 0.43597653254285024
0.41702127659574467 0.4536810820246422 0.4348429164319956
0.41723404255319146 0.4545406899271233 0.43791252741845227
0.4174468085106383 0.45341376590018573 0.4401563263312165
0.4176595744680851 0.4531384337313318 0.4429421126565001
0.4178723404255319 0.45218614505810567 0.4454078759805157
0.41808510638297874 0.454775851153185 0.44746608874220073
0.41829787234042554 0.45322850227865624 0.44711915716730316
0.41851063829787233 0.45386634713233076 0.4469798699120954
0.4187234042553191 0.45594845226530517 0.4463375493767265
0.41893617021276597 0.4556136025360742 0.44710834552687245
0.41914893617021276 0.4528578407425501 0.4450415241817294
0.41936170212765955 0.4523465416397389 0.4460641223873517
0.4195744680851064 0.45253339637266454 0.44699560332193444
0.4197872340425532 0.4528578407425501 0.4485859490088209
0.42 0.4528578407425501 0.44988765118558827
0.42021276595744683 0.4528578407425501 0.4540347295808931
0.4204255319148936 0.4528578407425501 0.45602780274479626
0.4206382978723404 0.45173214504503145 0.45751646282130615
0.4208510638297872 0.45095857710507004 0.4597519332359933
0.42106382978723406 0.44991343025845415 0.4606741573033708
0.42127659574468085 0.4513343843627855 0.46146905793691934
0.42148936170212764 0.4490765183424139 0.4635207187601625
0.4217021276595745 0.45160045318634073 0.4629085844296827
0.4219148936170213 0.4494120694449978 0.46625293562817083
0.4221276595744681 0.45162723312381603 0.4688522096249271
0.42234042553191486 0.45237112730280254 0.46849408655479896
0.4225531914893617 0.45188080117244755 0.46993454423805636
0.4227659574468085 0.45114041587129766 0.4699408219721998
0.4229787234042553 0.45177814969461677 0.46596996106520683
0.42319148936170214 0.45194205490845557 0.4686436082042116
0.42340425531914894 0.45342553185056966 0.47296632325262145
0.42361702127659573 0.4508852692267 0.4706656974273662
0.4238297872340426 0.4534533131466225 0.47473427845083715
0.42404255319148937 0.45128519321296784 0.4758539666981037
0.42425531914893616 0.4505927640479995 0.473642622361983
0.42446808510638295 0.45251420632637795 0.47239863214460187
0.4246808510638298 0.4519173213359456 0.4676960351115792
0.4248936170212766 0.4510091204137613 0.46283895406640885
0.4251063829787234 0.4513840643095891 0.4648306840152104
0.42531914893617023 0.44953677405215176 0.4663392511140648
0.425531914893617 0.44894968246213973 0.46891610291412916
0.4257446808510638 0.4503443887485648 0.4690498467179716
0.4259574468085106 0.4503360723731215 0.4685432534936396
0.42617021276595746 0.45088288698439133 0.47075631644912846
0.42638297872340425 0.4534485287409805 0.47142159257449934
0.42659574468085104 0.4612006767834988 0.4705008680156434
0.4268085106382979 0.4538348803126526 0.46870930217567963
0.4270212765957447 0.4540448695321969 0.47086162132238124
0.4272340425531915 0.45676599902296044 0.46325832069143363
0.4274468085106383 0.4564074656902368 0.46183046353983515
0.4276595744680851 0.4555503382853957 0.46262823644357587
0.4278723404255319 0.45656905024267747 0.46204124226838317
0.4280851063829787 0.45232699967591194 0.46105112746255594
0.42829787234042555 0.45041767523157605 0.46116024367413955
0.42851063829787234 0.4521453891715536 0.457570088380349
0.42872340425531913 0.4528578407425501 0.45956817591383564
0.428936170212766 0.45553067295272553 0.4597832132333124
0.42914893617021277 0.4547627295184164 0.4568151893872992
0.42936170212765956 0.4536473521550465 0.45736798227785064
0.42957446808510635 0.4541512453955611 0.45514225712635237
0.4297872340425532 0.455846897554757 0.4542944310467543
0.43 0.45481191988275516 0.45331665045436054
0.4302127659574468 0.45565830889054193 0.4514576066685541
0.43042553191489363 0.4559552439139163 0.45009300649330075
0.4306382978723404 0.4558939730244975 0.4516548153164955
0.4308510638297872 0.45880259977348997 0.4497616788115938
0.43106382978723407 0.45806518374822575 0.44715667589951585
0.43127659574468086 0.4624363262860518 0.43854768547455447
0.43148936170212765 0.45611569848271155 0.4409933348885246
0.43170212765957444 0.4538348803126526 0.43600744524515384
0.4319148936170213 0.4538348803126526 0.43374536001475067
0.4321276595744681 0.4541825425954193 0.4352711284807034
0.4323404255319149 0.45481191988275516 0.4352711284807034
0.4325531914893617 0.45481191988275516 0.43589137000728834
0.4327659574468085 0.45708669621416176 0.43624816805080613
0.4329787234042553 0.457743038593063 0.4380489122873376
0.4331914893617021 0.45487571798963583 0.43722520762090866
0.43340425531914895 0.4557889594528579 0.4374293828392612
0.43361702127659574 0.4557889594528579 0.44235073789895923
0.43382978723404253 0.45535539092310207 0.44732531085370775
0.4340425531914894 0.4577696209931652 0.44505038498176347
0.43425531914893617 0.4563886016584893 0.44173300810695043
0.43446808510638296 0.4538348803126526 0.4384325349466559
0.4346808510638298 0.4520604626149261 0.4382022471910112
0.4348936170212766 0.4536725678571791 0.434618713821548
0.4351063829787234 0.4518186900194928 0.43429408891060084
0.4353191489361702 0.4497583825612187 0.43362073102650656
0.43553191489361703 0.44986922256762596 0.4291598771562089
0.4357446808510638 0.4509978414000559 0.4273607321221718
0.4359574468085106 0.44992672203224227 0.4272774450466677
0.43617021276595747 0.45064039000189826 0.424336768440812
0.43638297872340426 0.4500535896518837 0.4235466536394723
0.43659574468085105 0.44992672203224227 0.4254570634786185
0.43680851063829784 0.44964562756234316 0.42861924780325145
0.4370212765957447 0.4472262315077548 0.4306165588160108
0.4372340425531915 0.44760415964251604 0.4332053864478984
0.4374468085106383 0.44598536860665045 0.4392788721966583
0.4376595744680851 0.44568416614447387 0.44211040547142155
0.4378723404255319 0.4460185637518319 0.4448347595649792
0.4380851063829787 0.4460185637518319 0.4421715855379367
