0.0 0.4509037616023448 0.4636052760136786
0.0002127659574468085 0.4509037616023448 0.46098366355823117
0.000425531914893617 0.4521004845733897 0.4585003947622234
0.0006382978723404255 0.4543754689364225 0.45730658764673027
0.000851063829787234 0.4560915066762972 0.4584175309397262
0.0010638297872340426 0.4561544584310347 0.45743726829710013
0.001276595744680851 0.45743762774413205 0.4563908978999066
0.0014893617021276596 0.4611662604360527 0.4557889594528579
0.001702127659574468 0.4594665456631903 0.4569965710930383
0.0019148936170212765 0.4536533101325411 0.4570192145886881
0.002127659574468085 0.4468588364717536 0.45676599902296044
0.002340425531914894 0.44119691712146425 0.45483734037081325
0.002553191489361702 0.43467368031824843 0.457623548960572
0.0027659574468085106 0.4293853348347287 0.4552651053297677
0.0029787234042553193 0.4253241638566877 0.4509037616023448
0.0031914893617021275 0.42458529674899625 0.448826475383297
0.003404255319148936 0.4280870831698122 0.44634901572440083
0.003617021276595745 0.4332953492185205 0.4483504386468915
0.003829787234042553 0.4397655638151965 0.4471258574939411
0.004042553191489362 0.44344507656510046 0.449855195727527
0.00425531914893617 0.4477681318675826 0.450790281682231
0.004468085106382979 0.4463286230134992 0.4570760582846277
0.004680851063829788 0.4459526779221969 0.45670011319332543
0.004893617021276595 0.4487559685826468 0.45891661543353796
0.005106382978723404 0.44847773925003237 0.4575236435599533
0.005319148936170213 0.4497035335131826 0.45763144433353314
0.005531914893617021 0.44894968246213973 0.45568404777302984
0.00574468085106383 0.44846029182621105 0.4515545407484951
0.005957446808510639 0.4463152445866077 0.4505200837017939
0.006170212765957446 0.44699560332193444 0.4505771924480048
0.006382978723404255 0.44755956835128485 0.4478217524034391
0.006595744680851064 0.4479726428920372 0.44560773540708315
0.006808510638297872 0.44880256322653844 0.4458714445162306
0.007021276595744681 0.44992050529827665 0.4460185637518319
0.00723404255319149 0.4504684392313302 0.44406448461162684
0.007446808510638298 0.453008712289889 0.4437890952707056
0.007659574468085106 0.4513211836606713 0.4426700229831977
0.007872340425531916 0.45296224525678414 0.44265112751358987
0.008085106382978723 0.45118721354934077 0.445073195114008
0.008297872340425531 0.44992672203224227 0.44281620046411907
0.00851063829787234 0.4474006806619666 0.44126839168132975
0.008723404255319148 0.44699560332193444 0.4401723261143335
0.008936170212765958 0.45054981373754527 0.43990708964909525
0.009148936170212766 0.4570563920361263 0.4382022471910112
0.009361702127659575 0.4636052760136786 0.4395726454422753
0.009574468085106383 0.4664611841018136 0.44020646674599817
0.00978723404255319 0.46761777642787616 0.4369690891867327
0.01 0.4672946773078446 0.439281298386239
0.010212765957446808 0.4648266965115246 0.4365740092877973
0.010425531914893617 0.4625119950483048 0.43362702639455447
0.010638297872340425 0.45969711773326827 0.4405815395302223
0.010851063829787235 0.4604831963265332 0.43617710282988875
0.011063829787234043 0.460679138326231 0.43370686896396726
0.01127659574468085 0.4598172840268482 0.43429408891060084
0.01148936170212766 0.46296144274068407 0.43625945771141683
0.011702127659574468 0.46042093189584105 0.43722520762090866
0.011914893617021277 0.46063126767333273 0.43815935756097313
0.012127659574468085 0.455413398394256 0.43917928676111373
0.012340425531914893 0.45148731161164724 0.43878579720031347
0.012553191489361702 0.4478499523723323 0.4377444000358861
0.01276595744680851 0.4428305678420469 0.44242001742892767
0.01297872340425532 0.43734540001598354 0.44461310059421555
0.013191489361702127 0.42918576528588925 0.44173344857346963
0.013404255319148937 0.4320372666582538 0.4428314885050752
0.013617021276595745 0.43585285219077 0.4422421774247669
0.013829787234042552 0.4391513782137938 0.449852299239389
0.014042553191489362 0.44147893857047293 0.44808783378175515
0.01425531914893617 0.44523414521352345 0.4496514788232777
0.01446808510638298 0.4492984625461753 0.4522295812564831
0.014680851063829787 0.44992672203224227 0.4510418784520664
0.014893617021276596 0.4516322518688699 0.4495181924076822
0.015106382978723404 0.4501058477664786 0.4533667132523316
0.015319148936170212 0.4497538648070511 0.4556161022276667
0.015531914893617021 0.44716139236847835 0.4557889594528579
0.01574468085106383 0.44400067314023345 0.45481191988275516
0.015957446808510637 0.44346425769431125 0.45481191988275516
0.016170212765957447 0.4437898165088718 0.4551248468009696
0.016382978723404256 0.4424316448037522 0.4557889594528579
0.016595744680851062 0.446307050926782 0.4574708841892242
0.01680851063829787 0.44727480951116927 0.45802224478229775
0.01702127659574468 0.4494921337787361 0.4602395690498646
0.01723404255319149 0.44992672203224227 0.4606741573033708
0.017446808510638297 0.45559135845979015 0.46262823644357587
0.017659574468085106 0.4533845946943056 0.46307852206192296
0.017872340425531916 0.4508150058709026 0.4649375806842961
0.018085106382978722 0.4479709441612516 0.4640912477025516
0.01829787234042553 0.4463717583482889 0.4632520814172216
0.01851063829787234 0.44525622538985943 0.4643676143756511
0.01872340425531915 0.4441408234164258 0.46458231558378116
0.018936170212765956 0.4435354763767242 0.46177920582638765
0.019148936170212766 0.4489280061422871 0.4634055328356876
0.019361702127659575 0.4443676294213565 0.46229128906338945
0.01957446808510638 0.4454598359711224 0.4607022405016341
0.01978723404255319 0.448583273883834 0.4603077487250651
0.02 0.4496963155140155 0.4606741573033708
0.02021276595744681 0.44816095679468965 0.45890839206581796
0.020425531914893616 0.45181436352036586 0.45582217827889876
0.020638297872340425 0.4498214770506104 0.45676599902296044
0.020851063829787235 0.4484615216111249 0.45676599902296044
0.02106382978723404 0.4503774012740089 0.4575555395154644
0.02127659574468085 0.44962923550673434 0.45867778816637633
0.02148936170212766 0.44999421832869174 0.45631122738613394
0.02170212765957447 0.44951894897133654 0.4540811599252673
0.021914893617021276 0.44513283997492153 0.45422752133035593
0.022127659574468085 0.4438895225813842 0.45481191988275516
0.022340425531914895 0.44406448461162684 0.4557335613717701
0.0225531914893617 0.44595342182275016 0.4546816360245917
0.02276595744680851 0.4450415241817294 0.45230161131402175
0.02297872340425532 0.44442738675154303 0.44961965331714915
0.023191489361702126 0.4418037909670881 0.44809391307918234
0.023404255319148935 0.4401563263312165 0.4486438485958195
0.023617021276595745 0.4401563263312165 0.44992672203224227
0.023829787234042554 0.43857322139349214 0.4515098269699666
0.02404255319148936 0.4382022471910112 0.4509682528322441
0.02425531914893617 0.441391623227728 0.44900133392742153
0.02446808510638298 0.446134650327817 0.44969454888027205
0.024680851063829785 0.44767548388462025 0.44751938918358
0.024893617021276595 0.44958203003716035 0.44567387175675
0.025106382978723404 0.45173596309067654 0.4455059042864855
0.025319148936170214 0.45537790153350566 0.4460185637518319
0.02553191489361702 0.4544420197520248 0.447365503452665
0.02574468085106383 0.4530422059912422 0.44876531721344765
0.02595744680851064 0.4510267517094425 0.44711859342903215
0.026170212765957445 0.4520030546744455 0.4490108092131387
0.026382978723404255 0.4554852324755263 0.44992672203224227
0.026595744680851064 0.4632365541972617 0.4493184042785565
0.026808510638297874 0.4620232112405343 0.44967871245420177
0.02702127659574468 0.4587200781631655 0.4502347111797807
0.02723404255319149 0.45670998954885184 0.44760962338593047
0.0274468085106383 0.45499790678260155 0.4477866559921908
0.027659574468085105 0.4538970507837079 0.4470577737929897
0.027872340425531914 0.45267467208504225 0.4504151717855964
0.028085106382978724 0.44992672203224227 0.4566562762455441
0.028297872340425533 0.4490487877081281 0.45217344594715225
0.02851063829787234 0.4473751810925572 0.45247826297192745
0.02872340425531915 0.4484668191818055 0.44990409601337433
0.02893617021276596 0.4483361693426747 0.44735912977257203
0.029148936170212764 0.44723642179844897 0.44699560332193444
0.029361702127659574 0.44785599400930043 0.44699560332193444
0.029574468085106383 0.45183093530088414 0.4499357885543447
0.029787234042553193 0.4407626575232084 0.45175723171307736
0.03 0.4379581448632155 0.4506596592745491
0.03021276595744681 0.43795565946866033 0.44956149610836643
0.030425531914893618 0.43917928676111373 0.44846386834464874
0.030638297872340424 0.4397876655292688 0.44553912781941735
0.030851063829787233 0.4408858646323799 0.44990079102093433
0.031063829787234043 0.4428325835848735 0.447632756963561
0.03127659574468085 0.4430874450415241 0.4450844550284694
0.03148936170212766 0.43907771938087786 0.4441660519918627
0.03170212765957447 0.43775483497796175 0.4445941119686799
0.031914893617021274 0.43659324499184893 0.4427423681004813
0.03212765957446809 0.43909245893953813 0.44304403113073637
0.03234042553191489 0.4417214886511346 0.4475932211105203
0.0325531914893617 0.44346086059076295 0.44857626691290103
0.03276595744680851 0.44874199532612147 0.4487522280111196
0.03297872340425532 0.44902693399744925 0.4444507422881744
0.033191489361702124 0.44508024627964266 0.44394831831788706
0.03340425531914894 0.4467679100964738 0.441240415379125
0.03361702127659574 0.4537688169720201 0.442338149528789
0.033829787234042556 0.459932659276044 0.4427355939022926
0.03404255319148936 0.4660325788742935 0.44258362919183136
0.03425531914893617 0.47009538481418206 0.4430874450415241
0.03446808510638298 0.4745474967241105 0.44452002142786323
0.03468085106382979 0.47700453946283494 0.4467163127896546
0.03489361702127659 0.4734482568844927 0.44699560332193444
0.035106382978723406 0.4735905921628239 0.45058138093016553
0.03531914893617021 0.4751023242973645 0.4479726428920372
0.03553191489361702 0.4733065597674113 0.44727520854710673
0.03574468085106383 0.47142159257449934 0.4464902017226691
0.03595744680851064 0.4702306466058116 0.44520918436890305
0.036170212765957444 0.4687495796880598 0.4469362195965639
0.036382978723404256 0.4676505830221723 0.4479726428920372
0.03659574468085106 0.4629172510029404 0.45256882618318556
0.03680851063829787 0.45975843288405716 0.45316441649649464
0.03702127659574468 0.45921009230646376 0.45792604671767634
0.03723404255319149 0.45376927188840444 0.459023888545117
0.0374468085106383 0.45452429716238424 0.4584324554427946
0.03765957446808511 0.4523167508538076 0.45676599902296044
0.03787234042553191 0.4492295529071213 0.45544037489029726
0.038085106382978726 0.44404835100659823 0.4501027696202286
0.03829787234042553 0.4457978654880301 0.44623926201563374
0.03851063829787234 0.44186655307054795 0.4509037616023448
0.03872340425531915 0.43739446972692014 0.4509037616023448
0.03893617021276596 0.4393642747451 0.4509037616023448
0.03914893617021276 0.44293386297741877 0.4521389478613405
0.039361702127659576 0.44513180737673264 0.4543685416952055
0.03957446808510638 0.446676104145677 0.45349683909506505
0.03978723404255319 0.4477763280407822 0.4512963913048547
0.04 0.4434526594025478 0.4554237450918342
0.04021276595744681 0.43780553806379013 0.4568651763047657
0.04042553191489362 0.42971677728737306 0.45989109651309606
0.040638297872340426 0.4236575866683884 0.46471329944946616
0.04085106382978723 0.41751360283642236 0.46464380191274607
0.041063829787234045 0.4160397703902993 0.46908644553328493
0.04127659574468085 0.4169984140971397 0.47173341546787395
0.04148936170212766 0.42224922745617827 0.4731161864780456
0.04170212765957447 0.4284853154748567 0.47419878202060173
0.041914893617021276 0.43129953318825837 0.47907931660523345
0.04212765957446808 0.434384057500771 0.4782608695652173
0.042340425531914895 0.4344302054302653 0.47847110032782686
0.0425531914893617 0.43038456996553437 0.4802163093700787
0.04276595744680851 0.42665231940375686 0.48216902784562765
0.04297872340425532 0.4262005347423263 0.4793742919577088
0.043191489361702126 0.4288029757398423 0.4752615842651754
0.04340425531914894 0.42940889106008795 0.47117820098948027
0.043617021276595745 0.43123363006026383 0.4658827055039567
0.04382978723404255 0.4361925379672424 0.4605628971362433
0.044042553191489364 0.43634167778489974 0.4578279537430019
0.04425531914893617 0.44203997902734216 0.45323047156197055
0.044468085106382976 0.44825481358272756 0.4476904722013467
0.04468085106382979 0.45276370673961247 0.43889688475230093
0.044893617021276595 0.4551740868557782 0.4342721966408077
0.0451063829787234 0.45910319434372754 0.43020078891280894
0.045319148936170214 0.4641993520736866 0.42670755045583686
0.04553191489361702 0.46465454943183043 0.42451337408842515
0.045744680851063826 0.47154574191871274 0.4230500562626187
0.04595744680851064 0.4731396947108551 0.4203795579253152
0.046170212765957445 0.47349066875161894 0.42220179764871163
0.04638297872340425 0.47093092935654146 0.4225653272035568
0.046595744680851064 0.4696029076743483 0.4253653385396233
0.04680851063829787 0.4677650681599111 0.42720317805406055
0.047021276595744683 0.4649748758928569 0.42999337032111473
0.04723404255319149 0.4616812320968555 0.4352210697750664
0.047446808510638296 0.4629674347344365 0.43974461724588143
0.04765957446808511 0.4679349996952919 0.44430204906576765
0.047872340425531915 0.4742451437662054 0.4439569170930251
0.04808510638297872 0.4704478504114397 0.44308579633800266
0.048297872340425534 0.4684904738641915 0.4452795242997649
0.04851063829787234 0.4684904738641915 0.4474310415451998
0.048723404255319146 0.4652238770121899 0.4471559936790367
0.04893617021276596 0.46084068813852797 0.44699560332193444
0.049148936170212765 0.45676599902296044 0.4460185637518319
0.04936170212765957 0.45537226253999535 0.4452221429044233
0.049574468085106384 0.4496196637753505 0.4411892307007463
0.04978723404255319 0.4493487995138373 0.4379819356060209
0.05 0.44837082114402316 0.4367668016802125
0.05021276595744681 0.44507476722198547 0.43658492892092565
0.050425531914893615 0.44253343891488817 0.43777921374754464
0.05063829787234043 0.44478047528919196 0.4399822937361915
0.050851063829787234 0.4481537034118265 0.4411695780052769
0.05106382978723404 0.45347934051080513 0.4422657804134853
0.05127659574468085 0.4564904339580162 0.4422607498466914
0.05148936170212766 0.45499184198196574 0.43975776759577034
0.051702127659574465 0.449682050738393 0.43917928676111373
0.05191489361702128 0.444109281237055 0.43599714923648564
0.052127659574468084 0.4377876851852216 0.43732252311420233
0.05234042553191489 0.43099245797834124 0.4390781988697553
0.0525531914893617 0.4294215242029859 0.438240146619705
0.05276595744680851 0.4303859306301905 0.44153978661632637
0.05297872340425532 0.43115707207931453 0.44586381465958286
0.05319148936170213 0.4344511280361917 0.4520378402980382
0.053404255319148934 0.4367470173512358 0.45483257891351203
0.05361702127659575 0.43722520762090866 0.45640563295564796
0.05382978723404255 0.4386987096531176 0.458976252071274
0.05404255319148936 0.43917928676111373 0.45969711773326827
0.05425531914893617 0.4421225793327558 0.45871764339089866
0.05446808510638298 0.44648639186565053 0.457488432864921
0.054680851063829784 0.4438431132020721 0.45604084883970725
0.0548936170212766 0.4422755665166201 0.4571402987464816
0.0551063829787234 0.43426754409215057 0.4572478826033991
0.05531914893617021 0.42925670346456324 0.4579993215452933
0.05553191489361702 0.4252335052035593 0.46020094930738126
0.05574468085106383 0.42106249134830237 0.4572129554420981
0.055957446808510634 0.4196001055533239 0.45775583519497565
0.05617021276595745 0.41643798206562604 0.4595282619125503
0.05638297872340425 0.4142768768938078 0.4662497877353755
0.056595744680851066 0.41433606566932524 0.46927000635312555
0.05680851063829787 0.4159783398723669 0.46415579649715866
0.05702127659574468 0.4159701772454909 0.4625083163601564
0.05723404255319149 0.41968494467362705 0.46031751123696
0.0574468085106383 0.42532180048977697 0.4581283625463974
0.057659574468085104 0.43074081313318957 0.4543326059663354
0.05787234042553192 0.43902297538946583 0.4538348803126526
0.05808510638297872 0.44485435091949743 0.45100249489082866
0.05829787234042553 0.4531993518886014 0.45210055962513984
0.05851063829787234 0.45808483240196324 0.4545668097870516
0.05872340425531915 0.4587200781631655 0.4586662203646489
0.058936170212765954 0.45703359551341033 0.45945619164044604
0.05914893617021277 0.45384213555573744 0.45900026878934985
0.05936170212765957 0.45105181407408673 0.45913457171234595
0.059574468085106386 0.4478335341269799 0.45917382075695257
0.05978723404255319 0.4466626597056344 0.458075982209363
0.06 0.4454671903919528 0.4539220062681087
0.06021276595744681 0.4459263338138718 0.4537426503746925
0.06042553191489362 0.4461112048197982 0.45288100100954165
0.06063829787234042 0.44992672203224227 0.4541794360894553
0.060851063829787236 0.4502784149885318 0.46022465716770256
0.06106382978723404 0.4524712287404476 0.46321866401157596
0.06127659574468085 0.45261903499852785 0.4666087244406557
0.06148936170212766 0.44986092326719723 0.46894609426672024
0.06170212765957447 0.45086437935342133 0.46976693845837914
0.06191489361702127 0.4481067221323856 0.4719541846204214
0.062127659574468086 0.44874499017653213 0.46889985843540666
0.06234042553191489 0.4479726428920372 0.4684904738641915
0.0625531914893617 0.44783030566551096 0.46806346218461287
0.0627659574468085 0.44726094720149284 0.46609004291300044
0.06297872340425532 0.4460315072357165 0.46596052576903246
0.06319148936170213 0.44359728074830856 0.4620757688933254
0.06340425531914894 0.44784072250718376 0.460044784320778
0.06361702127659574 0.44992672203224227 0.45743968057655354
0.06382978723404255 0.45080249992117516 0.45764177691189334
0.06404255319148935 0.44986390239779517 0.45375112080005653
0.06425531914893617 0.446851668119497 0.45050246284199214
0.06446808510638298 0.4460185637518319 0.4533330392536416
0.06468085106382979 0.4453652912997348 0.4515541649463989
0.06489361702127659 0.4449592167462769 0.4495616634003697
0.0651063829787234 0.4443131566420667 0.44740417385544873
0.06531914893617022 0.4465358988164256 0.44699560332193444
0.06553191489361702 0.44473516629214094 0.4453768650219864
0.06574468085106383 0.4459201863937751 0.44689722596387765
0.06595744680851064 0.451895451738697 0.446980952755685
0.06617021276595744 0.4532596293396739 0.44548284562233353
0.06638297872340425 0.45604651681194974 0.4423679628305134
0.06659574468085107 0.4571466895697297 0.44499089777537043
0.06680851063829787 0.4567342424929327 0.4469638467919068
0.06702127659574468 0.4551588930305228 0.4460185637518319
0.06723404255319149 0.4570716618327026 0.4460185637518319
0.06744680851063829 0.457743038593063 0.4451464157544158
0.06765957446808511 0.4606629332532964 0.4450415241817294
0.06787234042553192 0.46262823644357587 0.446521196662316
0.06808510638297872 0.46262823644357587 0.44430822365327455
0.06829787234042553 0.4637357094110027 0.4476034852362282
0.06851063829787234 0.46602187871214973 0.4493082211132649
0.06872340425531914 0.4654370355965501 0.44913240335385696
0.06893617021276596 0.4666006556826423 0.4443044831901196
0.06914893617021277 0.467513434294089 0.4422913286568822
0.06936170212765957 0.465676203161561 0.4457848677364773
0.06957446808510638 0.4644002257469438 0.43917928676111373
0.06978723404255319 0.46134775554771906 0.43887584543535946
0.06999999999999999 0.4593079927261851 0.43722520762090866
0.07021276595744681 0.45554542635197603 0.4365973184091695
0.07042553191489362 0.4491513626761116 0.4330806298229119
0.07063829787234042 0.44587309058559765 0.4309471869983589
0.07085106382978723 0.4429956945618714 0.4279532541671965
0.07106382978723404 0.44050290059006164 0.42728152479046005
0.07127659574468086 0.43552589860474816 0.432085239646351
0.07148936170212766 0.4419646037674042 0.431144267644267
0.07170212765957447 0.43994307611045824 0.429924603035293
0.07191489361702127 0.4402325325397257 0.4356222104069074
0.07212765957446808 0.44407247991940574 0.4377197238867942
0.07234042553191489 0.44980176754760187 0.4385487527951521
0.0725531914893617 0.45188080117244755 0.4409638019782881
0.07276595744680851 0.45501109879924767 0.44211040547142155
0.07297872340425532 0.46118054862770297 0.4484005928420743
0.07319148936170213 0.4676033403251299 0.4500166280632832
0.07340425531914893 0.4692989116653773 0.45171219940353075
0.07361702127659574 0.4690769001699983 0.4517834010610551
0.07382978723404256 0.4687839059677824 0.4538348803126526
0.07404255319148936 0.4649866846645463 0.4522851702532126
0.07425531914893617 0.46049244855326704 0.4502811961102625
0.07446808510638298 0.45797274777029034 0.45142138281799277
0.07468085106382978 0.4525172832660888 0.45449367883593456
0.0748936170212766 0.454833315545071 0.4518166141855
0.07510638297872341 0.4562169030110386 0.4490923303148666
0.07531914893617021 0.4587200781631655 0.4491379553113895
0.07553191489361702 0.4571819573200674 0.44814919395425806
0.07574468085106383 0.4543046556609926 0.45094125047576744
0.07595744680851063 0.4550957395180887 0.4499895123642935
0.07617021276595745 0.45277682238523964 0.4542209223304718
0.07638297872340426 0.4536355465036702 0.4549115867872464
0.07659574468085106 0.453821550724506 0.4567926581992537
0.07680851063829787 0.4528578407425501 0.4584470100106668
0.07702127659574468 0.45182752588467684 0.45702357773742874
0.0772340425531915 0.44818667783516114 0.45888754553353084
0.0774468085106383 0.4454777126587183 0.4606741573033708
0.07765957446808511 0.44406448461162684 0.4613049857840393
0.07787234042553191 0.4470841234843168 0.46240610659164577
0.07808510638297872 0.45148826269983866 0.46262823644357587
0.07829787234042553 0.45298478337 0.46553396662839375
0.07851063829787235 0.457595943408702 0.465317791505586
0.07872340425531915 0.4578409761976989 0.46919876914060943
0.07893617021276596 0.4610358021646461 0.4681288290029162
0.07914893617021276 0.46045381139750474 0.46871081977005746
0.07936170212765957 0.456732557899836 0.47203456921506015
0.07957446808510638 0.45135965277957674 0.47187748375173105
0.0797872340425532 0.4475209656770176 0.4684904738641915
0.08 0.44921440343998886 0.46715919379335885
0.08021276595744681 0.4477804446612019 0.4646481648180514
0.08042553191489361 0.44485412473851427 0.46183859631668844
0.08063829787234042 0.44699560332193444 0.4621323871992856
0.08085106382978724 0.44699560332193444 0.4636885579732334
0.08106382978723405 0.44750761938904654 0.46165119687347334
0.08127659574468085 0.4442892757727229 0.4642821733872692
0.08148936170212766 0.441133365901319 0.46371070355680116
0.08170212765957446 0.43987438023823533 0.46165119687347334
0.08191489361702127 0.44049340784325014 0.46033707579133704
0.08212765957446809 0.4389862784555331 0.45969711773326827
0.0823404255319149 0.4382022471910112 0.45830928886497413
0.0825531914893617 0.4348746664151071 0.4564120062827014
0.08276595744680851 0.4347191652490814 0.457191075361441
0.08297872340425531 0.43604271987994103 0.4538850815968755
0.08319148936170212 0.43624816805080613 0.4537137896961118
0.08340425531914894 0.4436088748145395 0.452914791967186
0.08361702127659575 0.44599973314272495 0.4538254650080991
0.08382978723404255 0.450130026932426 0.4537840540876067
0.08404255319148936 0.45410424483832323 0.4521844294283736
0.08425531914893616 0.45654749175059506 0.4467084223958085
0.08446808510638298 0.4590842776862441 0.4434516445646027
0.08468085106382979 0.46063388317587334 0.44406448461162684
0.0848936170212766 0.46106153332067273 0.44406448461162684
0.0851063829787234 0.46350941872685225 0.44477329996749715
0.08531914893617021 0.46458231558378116 0.4458707044564087
0.08553191489361701 0.46541542071514547 0.4451854586204676
0.08574468085106383 0.46718528516656327 0.4450415241817294
0.08595744680851064 0.4658146999585321 0.4458908913495077
0.08617021276595745 0.4655593551538837 0.4478864720181526
0.08638297872340425 0.466402457795986 0.44712954024993473
0.08659574468085106 0.46221832471051316 0.44699560332193444
0.08680851063829788 0.4598601497451543 0.44699560332193444
0.08702127659574468 0.4559021066184975 0.4432005922071637
0.08723404255319149 0.4509260172011529 0.4460185637518319
0.0874468085106383 0.45175814282120635 0.44626388045431425
0.0876595744680851 0.45014557887914347 0.44962032244658057
0.08787234042553191 0.45479348535255687 0.44310587957172237
0.08808510638297873 0.4539704233916467 0.4439289415326327
0.08829787234042553 0.4586276666850815 0.44486328234036493
0.08851063829787234 0.4576378856211619 0.44435511347769396
0.08872340425531915 0.4560890309462496 0.4433875165349158
0.08893617021276595 0.4534785556037546 0.4423173104251564
0.08914893617021276 0.44662288892976304 0.4430011128732482
0.08936170212765958 0.4441148204549871 0.4411165872868656
0.08957446808510638 0.4461923560891632 0.4405579499476021
0.08978723404255319 0.44088083270237854 0.4433399782404646
0.09 0.4394093141045517 0.44406448461162684
0.0902127659574468 0.4372186681098826 0.4435726950710624
0.09042553191489362 0.4368385295644399 0.44190672201425646
0.09063829787234043 0.43722520762090866 0.4445808414452777
0.09085106382978723 0.43722520762090866 0.44441572641625215
0.09106382978723404 0.4340498016750935 0.44406448461162684
0.09127659574468085 0.4368572984975444 0.44406448461162684
0.09148936170212765 0.44012989057466 0.44311388079808056
0.09170212765957447 0.44050349269663247 0.44406448461162684
0.09191489361702128 0.4501098432549741 0.4427287343847912
0.09212765957446808 0.45888696804462914 0.44227729535288496
0.09234042553191489 0.4676203429971629 0.4456572476607731
0.0925531914893617 0.4743346416242735 0.4445484869815447
0.0927659574468085 0.47869240222114356 0.4468307330288279
0.09297872340425532 0.4830839450541349 0.447255393804859
0.09319148936170213 0.4874756149205833 0.44448122237087184
0.09340425531914893 0.4842093113082573 0.44406448461162684
0.09361702127659574 0.4942447732330895 0.4432662361912018
0.09382978723404255 0.4878580143917741 0.4449548987444948
0.09404255319148937 0.4854360483912158 0.4427822091419823
0.09425531914893617 0.48419212341376994 0.4392483031890508
0.09446808510638298 0.48364023023812 0.4416207570789026
0.09468085106382979 0.4786937768489363 0.4402367469014799
0.09489361702127659 0.4734810731129733 0.44146094089039867
0.0951063829787234 0.4698357539174558 0.44381899095618565
0.09531914893617022 0.4655567154132029 0.44797396276237755
0.09553191489361702 0.4629105033674523 0.44894968246213973
0.09574468085106383 0.45844272920075474 0.4497817293493721
0.09595744680851064 0.45565244378383635 0.45271703909613814
0.09617021276595744 0.4489675895194525 0.4532791301379244
0.09638297872340426 0.4434603324800813 0.4560556298322383
0.09659574468085107 0.43571334526745814 0.457743038593063
0.09680851063829787 0.4309522725915186 0.4585312975093895
0.09702127659574468 0.42953846847259025 0.45956754032076597
0.09723404255319149 0.42940889106008795 0.46338350449648563
0.09744680851063829 0.4332857477288234 0.4626360618464946
0.09765957446808511 0.43624816805080613 0.46563733428905846
0.09787234042553192 0.43641545606088095 0.46586724268368696
0.09808510638297872 0.43812946363564187 0.46389419486420236
0.09829787234042553 0.44200789390578754 0.4693239972424064
0.09851063829787234 0.44299699887210847 0.4650345464308592
0.09872340425531914 0.4459867505443801 0.46458231558378116
0.09893617021276596 0.4460969473131609 0.46247146932091787
0.09914893617021277 0.4477720329182634 0.4601565375724848
0.09936170212765957 0.45290708616569253 0.4566182627535332
0.09957446808510638 0.45493323150633 0.4509846360180614
0.09978723404255319 0.45767576832450324 0.45279057047399035
0.1 0.45624036613381674 0.45188080117244755
0.10021276595744681 0.4499685225793489 0.45188080117244755
0.10042553191489362 0.44051184406793453 0.45188080117244755
0.10063829787234042 0.4351950619643447 0.4534034104148704
0.10085106382978723 0.4318793691008733 0.45660902018228644
0.10106382978723404 0.43098400447529794 0.45969711773326827
0.10127659574468086 0.4353906768030074 0.46017531102248443
0.10148936170212766 0.4366156090043896 0.4635644492410582
0.10170212765957447 0.44389978810457575 0.4627550960077041
0.10191489361702127 0.4418644125478315 0.47295384925374423
0.10212765957446808 0.4435983180218377 0.47163232267413163
0.10234042553191489 0.4445041862189729 0.4705421893598071
0.1025531914893617 0.4428739864067104 0.46844534706220825
0.10276595744680851 0.44277180521276377 0.465874994982644
0.10297872340425532 0.438616086019365 0.4677950346649633
0.10319148936170212 0.43797447117657723 0.4669919467528542
0.10340425531914893 0.4382022471910112 0.4665363947239862
0.10361702127659575 0.44235164294748647 0.46377013088633606
0.10382978723404256 0.4456689559851391 0.4610237650700636
0.10404255319148936 0.4460185637518319 0.45791061905485164
0.10425531914893617 0.44992672203224227 0.45429957286946665
0.10446808510638297 0.44990411171283756 0.44692777236372033
0.10468085106382978 0.44884610083366117 0.4441680662401054
0.1048936170212766 0.4477993751451083 0.44486825643480055
0.1051063829787234 0.44772697105050546 0.4445520630973408
0.10531914893617021 0.45025420578727726 0.44536359624176197
0.10553191489361702 0.4509037616023448 0.44406448461162684
0.10574468085106382 0.452279764420947 0.44314714939922534
0.10595744680851064 0.45540942053045363 0.44211040547142155
0.10617021276595745 0.45676599902296044 0.4415981822234029
0.10638297872340426 0.4581558249352422 0.44020681529313116
0.10659574468085106 0.45969711773326827 0.43917928676111373
0.10680851063829787 0.460534407692831 0.44043522170045796
0.10702127659574467 0.46202668859773416 0.4413594220228999
0.1072340425531915 0.46333223889648795 0.4405083275576725
0.1074468085106383 0.46458231558378116 0.44214173018822356
0.1076595744680851 0.46612606163886916 0.4436785480978548
0.10787234042553191 0.4702979340794426 0.44263557998771136
0.10808510638297872 0.4714016602193777 0.44211040547142155
0.10829787234042552 0.46993812032100035 0.4416039727880253
0.10851063829787234 0.46848889949737876 0.4408071612556806
0.10872340425531915 0.46657073203017496 0.44016777209994606
0.10893617021276596 0.4645367941028623 0.4392065996496651
0.10914893617021276 0.45947509077769205 0.4419993919936335
0.10936170212765957 0.4571504510028363 0.4417259534915457
0.10957446808510639 0.45454298826008305 0.44406448461162684
0.1097872340425532 0.4532403828823759 0.4443617333267652
0.11 0.45237237777398037 0.4457788890840287
0.1102127659574468 0.45412642702629297 0.4470980027511161
0.11042553191489361 0.4544889202188423 0.44601052317346795
0.11063829787234042 0.45327627506729296 0.4476933402693573
0.11085106382978724 0.45354829252007295 0.44699560332193444
0.11106382978723404 0.4596377366120336 0.4470549844431691
0.11127659574468085 0.45880810513169756 0.44788461592350515
0.11148936170212766 0.4587200781631655 0.45134280216107625
0.11170212765957446 0.4551186702660094 0.45278115314673656
0.11191489361702127 0.45090942813707235 0.4548090866153914
0.11212765957446809 0.4560053477264107 0.45698332796483176
0.1123404255319149 0.45006231707487415 0.4583132930352698
0.1125531914893617 0.4507520708768786 0.4562440316292566
0.1127659574468085 0.45321004738546694 0.4575186737901994
0.11297872340425531 0.45481191988275516 0.4587200781631655
0.11319148936170213 0.4574992936817279 0.4596158694294898
0.11340425531914894 0.46014901122722235 0.45909871907492533
0.11361702127659574 0.46073189657281677 0.45567348091396587
0.11382978723404255 0.45864827749945636 0.4533343937503165
0.11404255319148936 0.45116946793808743 0.4528578407425501
0.11425531914893616 0.4393784352929603 0.4488912833891299
0.11446808510638298 0.43452305023160254 0.44699560332193444
0.11468085106382979 0.430908395444288 0.44699560332193444
0.1148936170212766 0.4347662443795947 0.4461195405720536
0.1151063829787234 0.4400393982402199 0.44697221770373513
0.11531914893617021 0.45216607253565594 0.44899722768934114
0.11553191489361703 0.4583938328004968 0.44992672203224227
0.11574468085106383 0.4666680475964891 0.44964492646637566
0.11595744680851064 0.4614352336867989 0.4484045692653861
0.11617021276595745 0.45855224276406054 0.4491310040800009
0.11638297872340425 0.4503571669688807 0.44699560332193444
0.11659574468085106 0.44240889940073325 0.4469107851168356
0.11680851063829788 0.4351091500746307 0.44598616807061736
0.11702127659574468 0.43063780761909404 0.44509189957951006
0.11723404255319149 0.4261254103143846 0.4416331079290846
0.1174468085106383 0.42266607895542774 0.4439680197255689
0.1176595744680851 0.4192850499820005 0.44458001927827606
0.11787234042553191 0.41635036336409703 0.44406448461162684
0.11808510638297873 0.4149075251742203 0.44406448461162684
0.11829787234042553 0.4136046145284028 0.444579414841758
0.11851063829787234 0.4128097597327598 0.446963979228687
0.11872340425531915 0.42148384792789 0.45094316221263736
0.11893617021276595 0.42838104304024216 0.453895130089435
0.11914893617021277 0.4346953368602644 0.45652608584777754
0.11936170212765958 0.4381097705535712 0.4577122130472496
0.11957446808510638 0.44111000818162843 0.45879015132223727
0.11978723404255319 0.4403794972691078 0.46098168405979933
0.12 0.44182767387377503 0.4599798493309147
0.1202127659574468 0.44429989568187384 0.4603366790169651
0.12042553191489362 0.44555754340875964 0.4617061957574312
0.12063829787234043 0.44413692331047855 0.4588649555608689
0.12085106382978723 0.4495639312461174 0.4623863759194926
0.12106382978723404 0.45265900506789875 0.46262823644357587
0.12127659574468085 0.4606709068877704 0.4669688287464762
0.12148936170212765 0.4624529894564288 0.4635044713793113
0.12170212765957447 0.4618160613765715 0.46425258657758484
0.12191489361702128 0.45995329628347414 0.46203546469878215
0.12212765957446808 0.458767486241267 0.46629935433347874
0.12234042553191489 0.45470938414577794 0.46270513824630877
0.1225531914893617 0.4509156280871023 0.4655504552903156
0.12276595744680852 0.45187983222010114 0.4655593551538837
0.12297872340425532 0.45086669605884744 0.464471118953289
0.12319148936170213 0.45007975183508486 0.4621102862820011
0.12340425531914893 0.45324151932638834 0.46082249754993687
0.12361702127659574 0.45203580159267637 0.4615736966633589
0.12382978723404255 0.4490328018614474 0.4588031975624732
0.12404255319148937 0.44805366498496757 0.450741717416484
0.12425531914893617 0.4494635963838016 0.4498062056649095
0.12446808510638298 0.4524737247059353 0.4522537508900187
0.12468085106382978 0.45481604209070664 0.4460247470637591
0.12489361702127659 0.45688896686477093 0.4494415538293818
0.1251063829787234 0.4585220113625029 0.45311749833236337
0.12531914893617022 0.4610649000659332 0.45109968097471553
0.125531914893617 0.4621636856911397 0.44699560332193444
0.12574468085106383 0.4638780487170516 0.45012013400562373
0.12595744680851065 0.46528491813814676 0.4497729935093506
0.12617021276595744 0.4647995846074288 0.44591060027632
0.12638297872340426 0.4653683662428022 0.4489717774768348
0.12659574468085105 0.46472371988804595 0.44491291043721554
0.12680851063829787 0.46458231558378116 0.44406448461162684
0.1270212765957447 0.46167371550471287 0.44115588453255855
0.12723404255319148 0.4631683407461876 0.4448230565479839
0.1274468085106383 0.4587098309493269 0.44348235975510064
0.1276595744680851 0.45511145890744575 0.4447419851570388
0.12787234042553192 0.45705253631683135 0.44108168398442754
0.1280851063829787 0.4581552602218956 0.4383092761949694
0.12829787234042553 0.4603159027822615 0.4443250151395109
0.12851063829787235 0.4638537557563193 0.44259048555624253
0.12872340425531914 0.46615316647635047 0.4397730980835806
0.12893617021276596 0.4636069919958401 0.43942397564917984
0.12914893617021275 0.4643775651428029 0.43830462241150037
0.12936170212765957 0.46041402437281354 0.4383137327326786
0.1295744680851064 0.4541871343436922 0.4413094929168388
0.12978723404255318 0.4551549567882436 0.44147640280680733
0.13 0.45292134571964504 0.4415266282207279
0.1302127659574468 0.4500923963451038 0.4430874450415241
0.13042553191489362 0.44968508087083947 0.44088124981542487
0.13063829787234044 0.4479213232403991 0.4401563263312165
0.13085106382978723 0.4462872767270123 0.43873967314137197
0.13106382978723405 0.44939241255623746 0.43988917159321406
0.13127659574468084 0.45484481339998595 0.4411136297909805
0.13148936170212766 0.4604310022307267 0.43864257788948624
0.13170212765957448 0.4651561831455041 0.43941176321615005
0.13191489361702127 0.46910275442876065 0.4374097615680154
0.1321276595744681 0.47070266238841724 0.43959100307915483
0.13234042553191488 0.4667837081836541 0.43917928676111373
0.1325531914893617 0.4600693245429947 0.43917928676111373
0.1327659574468085 0.4578035264530525 0.4382627350510007
0.13297872340425532 0.44854884871552253 0.44081269890402525
0.13319148936170214 0.4442835088582625 0.4378822803608157
0.13340425531914893 0.4464318927306169 0.4401563263312165
0.13361702127659575 0.44894968246213973 0.44209531273987834
0.13382978723404254 0.4470873564774475 0.4428229339551653
0.13404255319148936 0.4460185637518319 0.4466600807678972
0.13425531914893618 0.44421887479915345 0.4488724873683764
0.13446808510638297 0.44606627634371415 0.45290555333443233
0.1346808510638298 0.44699560332193444 0.4536451385752143
0.13489361702127659 0.44699560332193444 0.4525278023684926
0.1351063829787234 0.44699560332193444 0.45188080117244755
0.13531914893617022 0.44638317954842843 0.45371807249296553
0.13553191489361702 0.44534531743530864 0.45683165883232507
0.13574468085106384 0.44271518247778624 0.45541669688911984
0.13595744680851063 0.44119732959688324 0.4557249957572937
0.13617021276595745 0.4368568993378984 0.45766694718217643
0.13638297872340424 0.44264375463738725 0.4573748832976346
0.13659574468085106 0.4386824649653788 0.45853131185769214
0.13680851063829788 0.44169069180749543 0.453690391133227
0.13702127659574467 0.4427605559906627 0.45307334838813634
0.1372340425531915 0.44542561548843745 0.4541313544443498
0.13744680851063829 0.4460185637518319 0.45301534403855936
0.1376595744680851 0.4469780222286404 0.4547767576961671
0.13787234042553193 0.4497903692276742 0.4550521161014793
0.13808510638297872 0.4547537449358998 0.4565071953937209
0.13829787234042554 0.45188080117244755 0.4557889594528579
0.13851063829787233 0.4529485823161588 0.45685674059656917
0.13872340425531915 0.44913598716339864 0.4590855794928499
0.13893617021276597 0.4494144963552514 0.46130971308881275
0.13914893617021276 0.44808066458994666 0.45980513943117773
0.13936170212765958 0.4479726428920372 0.46617546402788934
0.13957446808510637 0.44338584791829444 0.46561903572923774
0.1397872340425532 0.4440640934874623 0.4675126520457598
0.13999999999999999 0.44406448461162684 0.4654750215734744
0.1402127659574468 0.44406448461162684 0.46423122955130924
0.14042553191489363 0.44367370862569283 0.46321440042247686
0.14063829787234042 0.44220297057562247 0.4651890947370801
0.14085106382978724 0.4429840843213693 0.4618062379537055
0.14106382978723403 0.441133365901319 0.46474958474456407
0.14127659574468085 0.44075216875365536 0.4673863685782011
0.14148936170212767 0.4390626459246343 0.46675149440739205
0.14170212765957446 0.44256089338863486 0.4670629463768757
0.14191489361702128 0.4439503178101765 0.46544518835243337
0.14212765957446807 0.44323882659185826 0.4642795524831128
0.1423404255319149 0.4445335017454141 0.4614556936091076
0.1425531914893617 0.4460185637518319 0.45747352710029
0.1427659574468085 0.44648652889015567 0.45676599902296044
0.14297872340425533 0.44841041219549155 0.45545269111259734
0.14319148936170212 0.44992672203224227 0.4509037616023448
0.14340425531914894 0.44992672203224227 0.45066874998989653
0.14361702127659573 0.45123533992987686 0.45123533992987686
0.14382978723404255 0.4529949266599959 0.4534149034863243
0.14404255319148937 0.45440180001779523 0.4515973413198762
0.14425531914893616 0.45889013060547723 0.45069145004051847
0.14446808510638298 0.46242907806034295 0.45275826155093357
0.14468085106382977 0.4650690242354928 0.45578171491949915
0.1448936170212766 0.46905475961794135 0.4554127689503579
0.1451063829787234 0.47142159257449934 0.4565230675305966
0.1453191489361702 0.47142159257449934 0.457743038593063
0.14553191489361703 0.46974142221913157 0.4543826978823276
0.14574468085106382 0.47038179002018665 0.4547491568985452
0.14595744680851064 0.4695996499465131 0.4529459317506961
0.14617021276595746 0.4720471278489598 0.4549876720305762
0.14638297872340425 0.4710695327393764 0.4545389999828983
0.14659574468085107 0.4692148133697574 0.45051630741179993
0.14680851063829786 0.4655593551538837 0.4471711934667987
0.14702127659574468 0.4604479768001627 0.44455816993648317
0.14723404255319147 0.4612738333402592 0.4449157363373247
0.1474468085106383 0.46068261674365074 0.4411079875804792
0.14765957446808511 0.46136519840604107 0.4379162487235789
0.1478723404255319 0.4601541080151839 0.4364766631917639
0.14808510638297873 0.4621390445079322 0.4368999758646027
0.14829787234042552 0.46503393928489756 0.4360238346492307
0.14851063829787234 0.46738137530957186 0.43949603140863097
0.14872340425531916 0.4665363947239862 0.43548777391096455
0.14893617021276595 0.46641492177302923 0.43917928676111373
0.14914893617021277 0.4649070830014658 0.438092166507084
0.14936170212765956 0.4607577872530108 0.4346058304423617
0.14957446808510638 0.4536777871761099 0.43411304903813447
0.1497872340425532 0.4485258423453383 0.43318769000399865
0.15 0.446230631510778 0.4334230832199713
0.15021276595744681 0.44249194297165895 0.43181582922373973
0.1504255319148936 0.44243631569252934 0.431362970200293
0.15063829787234043 0.4415895927991412 0.4328608224426761
0.15085106382978725 0.4433234039238127 0.4325870366663338
0.15106382978723404 0.44895354616770566 0.43478454054843513
0.15127659574468086 0.45087828853837725 0.4362226949868386
0.15148936170212765 0.45302654310624074 0.43693561321108204
0.15170212765957447 0.46165119687347334 0.4435872322289419
0.15191489361702126 0.46203123033057925 0.4479726428920372
0.15212765957446808 0.46262823644357587 0.4495327424466087
0.1523404255319149 0.46262823644357587 0.4548414182438241
0.1525531914893617 0.4642370040147831 0.45515723145175324
0.15276595744680851 0.4637343004921156 0.4547474076435367
0.1529787234042553 0.4604773861491072 0.4552020540906747
0.15319148936170213 0.4531703788493671 0.45481191988275516
0.15340425531914895 0.44658476437144545 0.4556757193289352
0.15361702127659574 0.4420055164193538 0.45087753933932784
0.15382978723404256 0.4375499162718597 0.4507421356811816
0.15404255319148935 0.4345944787864785 0.45361036037924446
0.15425531914893617 0.43614940561418625 0.450025484468862
0.154468085106383 0.4378031481675214 0.4506835041019782
0.15468085106382978 0.44105844321996757 0.45188080117244755
0.1548936170212766 0.4455115236540881 0.4476294034441142
0.1551063829787234 0.44796115545321663 0.45188080117244755
0.15531914893617021 0.4471280402842793 0.4510861793983782
0.155531914893617 0.4486066085372247 0.44665252939701944
0.15574468085106383 0.45246986985234655 0.44992672203224227
0.15595744680851065 0.4568343384088707 0.44949822801849687
0.15617021276595744 0.4627548325016516 0.4494698512617099
0.15638297872340426 0.4655952971929665 0.44790075881387154
0.15659574468085105 0.4656734744359565 0.4477444043278914
0.15680851063829787 0.46640759868608195 0.4495616654117821
0.1570212765957447 0.46598953377448865 0.4482540865301786
0.15723404255319148 0.46009824999503435 0.4477978678454667
0.1574468085106383 0.45568953005483415 0.451441996086408
0.1576595744680851 0.4514917650807323 0.45501088726942746
0.15787234042553192 0.44927651505464056 0.4557889594528579
0.15808510638297874 0.43860479587254264 0.4557889594528579
0.15829787234042553 0.433188089497773 0.45440026679757084
0.15851063829787235 0.4266631109882991 0.4538348803126526
0.15872340425531914 0.42060229844336816 0.4554034382191354
0.15893617021276596 0.41720266229160335 0.45091729331794034
0.15914893617021275 0.41506175221086916 0.4491039098132998
0.15936170212765957 0.41475329750854906 0.4533815303833109
0.1595744680851064 0.4177542894055018 0.45971109237059726
0.15978723404255318 0.4228742293171637 0.4603695420555769
0.16 0.4256990187479414 0.45873446843438215
0.1602127659574468 0.4283688193450759 0.46357375994122374
0.16042553191489362 0.4344069208594329 0.4655593551538837
0.16063829787234044 0.4399955018890963 0.46466272780484114
0.16085106382978723 0.4443854425521088 0.4629491943840579
0.16106382978723405 0.4452968313770898 0.4636052760136786
0.16127659574468084 0.44669452346409333 0.4636052760136786
0.16148936170212766 0.4488228675781215 0.4636052760136786
0.16170212765957448 0.446046370789952 0.4635774689755585
0.16191489361702127 0.4466901081323029 0.4624245729838215
0.1621276595744681 0.4442427545648579 0.46049588735013974
0.16234042553191488 0.4456908794242758 0.45948066598575277
0.1625531914893617 0.4492283550732234 0.4587200781631655
0.1627659574468085 0.45188080117244755 0.4582877536961865
0.16297872340425532 0.4546902156167157 0.457743038593063
0.16319148936170214 0.4637502028640331 0.4556477774407411
0.16340425531914893 0.46988166416987026 0.4556482372442263
0.16361702127659575 0.4821601318332356 0.4596793257084841
0.16382978723404254 0.47742105021108106 0.4502011624641749
0.16404255319148936 0.47953750743795454 0.45111481844880524
0.16425531914893618 0.4831460674157304 0.4505200088315352
0.16446808510638297 0.48158607939061365 0.45129785271743333
0.1646808510638298 0.47977246405114543 0.4492169599200524
0.16489361702127658 0.4806539007502902 0.4491195907443898
0.1651063829787234 0.47807557389547556 0.4477704934818308
0.16531914893617022 0.47735292899082815 0.4479035438963237
0.16553191489361702 0.47562953020591114 0.44831127300158763
0.16574468085106384 0.4751453428271651 0.4473644193774236
0.16595744680851063 0.47161484967494754 0.4497817792069061
0.16617021276595745 0.4638240081012419 0.4472483724827809
0.16638297872340424 0.4544599486620721 0.44992672203224227
0.16659574468085106 0.4481685726586621 0.4509816116563904
0.16680851063829788 0.44368087256296684 0.453764941821725
0.16702127659574467 0.44525252806773297 0.4537645456839848
0.1672340425531915 0.44490596157621204 0.4553111857952101
0.16744680851063828 0.4467842346785875 0.4560266410955478
0.1676595744680851 0.44884704601809644 0.45666336257891715
0.16787234042553192 0.44391664106261225 0.4576321559313021
0.16808510638297872 0.4394928762674869 0.454314332334958
0.16829787234042554 0.43651568943921326 0.4505431942304118
0.16851063829787233 0.43722520762090866 0.4473052369224712
0.16872340425531915 0.4389639293191204 0.44579924076927246
0.16893617021276597 0.44226468145472236 0.4430874450415241
0.16914893617021276 0.44536577574218417 0.440809114340864
0.16936170212765958 0.44759039116900273 0.439774074608182
0.16957446808510637 0.4507156510541811 0.4374133181690726
0.1697872340425532 0.45026676550037886 0.4394762393949433
0.17 0.44992672203224227 0.43923754801518844
0.1702127659574468 0.43790058718001607 0.4335583773492944
0.17042553191489362 0.43108620539611964 0.43653879409956137
0.17063829787234042 0.4206155349291647 0.43393043447588175
0.17085106382978724 0.41839276007306747 0.43571568345192285
0.17106382978723403 0.4221461094954392 0.43683142008869585
0.17127659574468085 0.4243458029391509 0.43509323821027945
0.17148936170212767 0.43114766267450844 0.4359832020294978
0.17170212765957446 0.4333457394644022 0.4352711284807034
0.17191489361702128 0.43669821860441227 0.4358711958855116
0.17212765957446807 0.4388919915168912 0.4388919915168912
0.1723404255319149 0.44039047805931636 0.4378375420462937
0.1725531914893617 0.44227798121162454 0.4368679069409082
0.1727659574468085 0.44192727400721254 0.43664073765739164
0.17297872340425532 0.4455718320179077 0.43722520762090866
0.17319148936170212 0.44639780538193263 0.4376773013543097
0.17340425531914894 0.4475189243493761 0.4382022471910112
0.17361702127659576 0.44699560332193444 0.4382022471910112
0.17382978723404255 0.4495130036342157 0.4382022471910112
0.17404255319148937 0.4536349920642976 0.4382022471910112
0.17425531914893616 0.45481191988275516 0.44029100376863917
0.17446808510638298 0.4533541066272804 0.4418622725290564
0.17468085106382977 0.4505807057008408 0.4436284954992278
0.1748936170212766 0.45294928102178456 0.44708704360116913
0.1751063829787234 0.4473120355759175 0.4496033540762209
0.1753191489361702 0.4460185637518319 0.4542303255844758
0.17553191489361702 0.4460185637518319 0.45481191988275516
0.17574468085106382 0.4460185637518319 0.45481191988275516
0.17595744680851064 0.4428891558915683 0.45168251202249154
0.17617021276595746 0.4456391671589665 0.4537267709523808
0.17638297872340425 0.4452144534761329 0.45540563649802246
0.17659574468085107 0.44461900317634545 0.45246184806454587
0.17680851063829786 0.4450415241817294 0.44927263596758804
0.17702127659574468 0.4458327986028686 0.4552798778312541
0.1772340425531915 0.4460185637518319 0.4548963673997044
0.1774468085106383 0.450514064650566 0.4539327707490399
0.1776595744680851 0.45522905711723083 0.45462528577087946
0.1778723404255319 0.45313678434715454 0.4546717111264661
0.17808510638297873 0.45371740822992074 0.46024437355968545
0.17829787234042552 0.4525322517192119 0.4588013391689559
0.17851063829787234 0.4542678603925914 0.45644409835324656
0.17872340425531916 0.4545163064003578 0.4597873168561785
0.17893617021276595 0.4539929372678782 0.4573982268438629
0.17914893617021277 0.4538348803126526 0.4577210052052566
0.17936170212765956 0.4530866610567343 0.45981152789036034
0.17957446808510638 0.45481191988275516 0.46017121685788387
0.1797872340425532 0.45403172343921083 0.45989037282848205
0.18 0.4518073373895815 0.4648027069323789
0.1802127659574468 0.4515654554811363 0.4635432710213405
0.1804255319148936 0.4503210176218607 0.46321098042406017
0.18063829787234043 0.44680730291719073 0.46204556645615275
0.18085106382978725 0.4451412019712565 0.4634059204346243
0.18106382978723404 0.44204272246168563 0.46262823644357587
0.18127659574468086 0.4401666100520917 0.46262823644357587
0.18148936170212765 0.442038193217539 0.4627004486974584
0.18170212765957447 0.44182195566081084 0.46346755806178025
0.18191489361702126 0.44946448209894047 0.46165119687347334
0.18212765957446808 0.44003572340107644 0.46233634618544345
0.1823404255319149 0.4433214324750611 0.4660547232449275
0.1825531914893617 0.44412619054409047 0.4661832900084128
0.1827659574468085 0.45074207553598405 0.4644206295174203
0.1829787234042553 0.45277675371128806 0.4664553076927243
0.18319148936170213 0.4522237596131357 0.46815788257389573
0.18340425531914895 0.44906424144897344 0.46935295444746034
0.18361702127659574 0.45118885572962814 0.46722834016680564
0.18382978723404256 0.45188080117244755 0.4670334553302101
0.18404255319148935 0.4509761710911942 0.4687196077357601
0.18425531914893617 0.44911153772888013 0.47109788204101855
0.184468085106383 0.44985221783490154 0.4696165218289755
0.18468085106382978 0.446729843120274 0.4670698542503178
0.1848936170212766 0.4480300729509642 0.4651953885912315
0.1851063829787234 0.4501254769780096 0.46281862380997624
0.1853191489361702 0.4509037616023448 0.45841974494769305
0.185531914893617 0.4529780778043044 0.4557889594528579
0.18574468085106383 0.4566997995294466 0.4544226993379748
0.18595744680851065 0.45963973866991154 0.4498119639055288
0.18617021276595744 0.45872042483655023 0.4479733362388066
0.18638297872340426 0.4636515408907718 0.44891883921074427
0.18659574468085105 0.46635541782371354 0.44699560332193444
0.18680851063829787 0.46458231558378116 0.44716393431261503
0.1870212765957447 0.4647794653147812 0.45070661187134475
0.18723404255319148 0.46844530775249643 0.4470407694336295
0.1874468085106383 0.4665587004565013 0.4489273767296247
0.1876595744680851 0.46946751343429405 0.44711125921006
0.18787234042553191 0.46946751343429405 0.44771767560635767
0.18808510638297873 0.46946751343429405 0.4466012698305117
0.18829787234042553 0.4668176549173657 0.4428387335315179
0.18851063829787235 0.4639401808293133 0.4433670001035558
0.18872340425531914 0.4590378136624541 0.43971281810530083
0.18893617021276596 0.4586400635103095 0.4355111724392714
0.18914893617021278 0.45799658481420535 0.43911590020582814
0.18936170212765957 0.460450693993036 0.4374019119373863
0.1895744680851064 0.4567740832370435 0.43495083810005797
0.18978723404255318 0.4580151922131463 0.43660061102581577
0.19 0.4570521043176093 0.43722520762090866
0.1902127659574468 0.4598196328422461 0.4384711641704186
0.19042553191489361 0.4581611176298288 0.4384811567760613
0.19063829787234043 0.45200663272196273 0.4365238858307106
0.19085106382978723 0.4509037616023448 0.43371768164273183
0.19106382978723405 0.4479630129529099 0.4352855733893943
0.19127659574468084 0.4457213732445022 0.4376078661763517
0.19148936170212766 0.44435506788555024 0.43487525545844763
0.19170212765957448 0.44763657771486076 0.4366806769729947
0.19191489361702127 0.44860651313807975 0.4377995197369749
0.1921276595744681 0.449136351279897 0.43891582984366534
0.19234042553191488 0.4490718957669221 0.44174376555707456
0.1925531914893617 0.44698516184613485 0.44405404313582725
0.19276595744680852 0.44406448461162684 0.4412657665864732
0.19297872340425531 0.4435323794177271 0.443174615859221
0.19319148936170213 0.44138712233328986 0.4463802053208977
0.19340425531914893 0.44196993250556327 0.4460888002347611
0.19361702127659575 0.44583437545668125 0.44681141502678395
0.19382978723404254 0.4499069193504164 0.4472448138849166
0.19404255319148936 0.45523722375078046 0.44872898818130874
0.19425531914893618 0.45681952693866046 0.4518005092988975
0.19446808510638297 0.4587200781631655 0.4486195493513555
0.1946808510638298 0.4584185247954493 0.4485033701605157
0.19489361702127658 0.4584932747216281 0.45113056504388244
0.1951063829787234 0.45846089424735514 0.4511629455181554
0.19531914893617022 0.45399595111145324 0.4523038311602487
0.19553191489361701 0.4504948475185912 0.45188080117244755
0.19574468085106383 0.4474266762117165 0.45604754420665705
0.19595744680851063 0.44311494653056543 0.45288534223159144
0.19617021276595745 0.4402149442800518 0.4568972021117129
0.19638297872340427 0.4340600353330385 0.4582111457481877
0.19659574468085106 0.4335713096827042 0.45868007636444463
0.19680851063829788 0.43584386968336813 0.45656384983924153
0.19702127659574467 0.44082937320135007 0.4582684637951307
0.1972340425531915 0.4430874450415241 0.4573933859544062
0.19744680851063828 0.44468576993885833 0.45676599902296044
0.1976595744680851 0.4450415241817294 0.45676599902296044
0.19787234042553192 0.44309593158953764 0.4577387953190562
0.19808510638297872 0.4471154448793125 0.4594574346185122
0.19829787234042554 0.4477202790264633 0.4585001301897845
0.19851063829787233 0.4473848334290477 0.4606741573033708
0.19872340425531915 0.44902189839620926 0.4596249017991986
0.19893617021276597 0.45054866597808263 0.45934202210900604
0.19914893617021276 0.45164027642412274 0.45969711773326827
0.19936170212765958 0.4543686015325002 0.45969711773326827
0.19957446808510637 0.45796587705770464 0.4614993789760965
0.1997872340425532 0.461632019642683 0.46359431759608416
0.2 0.46596587321562644 0.46053865128278987
0.2002127659574468 0.47003673349083147 0.4593355710892401
0.20042553191489362 0.4619294889933018 0.4622788627184388
0.20063829787234042 0.45858408720232025 0.4606741573033708
0.20085106382978724 0.45670258681327075 0.4609912183518192
0.20106382978723403 0.4557889594528579 0.4653405113007407
0.20127659574468085 0.4557889594528579 0.46377899501058034
0.20148936170212767 0.45831816135504505 0.46613447791586576
0.20170212765957446 0.45621848200700243 0.4657025293385985
0.20191489361702128 0.4557889594528579 0.4681900586629314
0.20212765957446807 0.4532230321467535 0.46677985566012187
0.2023404255319149 0.4465030875670759 0.4737989697816709
0.2025531914893617 0.43861167688057573 0.46694582441355076
0.2027659574468085 0.43177805892415966 0.4692427330957996
0.20297872340425532 0.4222676486593442 0.4654587000172085
0.20319148936170212 0.41963849535906195 0.46522910318889715
0.20340425531914894 0.41990583422883765 0.4664440788149864
0.20361702127659576 0.42340025928474734 0.46314115528774813
0.20382978723404255 0.434518764783328 0.4623774485444508
0.20404255319148937 0.4411926262255358 0.46161168999066227
0.20425531914893616 0.44784050689177646 0.45906778068657655
0.20446808510638298 0.4562439009168287 0.4587200781631655
0.20468085106382977 0.46298178374192006 0.45756626494389097
0.2048936170212766 0.4638706121372363 0.45676599902296044
0.2051063829787234 0.46021222796434486 0.45591773701062704
0.2053191489361702 0.4586621734276496 0.44894968246213973
0.20553191489361702 0.4533827955458694 0.44925107230666184
0.20574468085106382 0.4506137017168444 0.4488733424038418
0.20595744680851064 0.44884673141591114 0.44370448773951643
0.20617021276595746 0.4454751621415941 0.4404266729759285
0.20638297872340425 0.443602682311864 0.43624816805080613
0.20659574468085107 0.4434082678036079 0.4355919512427872
0.20680851063829786 0.44706041187506185 0.43288734838058096
0.20702127659574468 0.44982962913784147 0.43326850289329794
0.2072340425531915 0.44992672203224227 0.4331426885603751
0.2074468085106383 0.45079725715616703 0.43092770263833063
0.2076595744680851 0.454480007952527 0.4297314548800251
0.2078723404255319 0.4571543773052531 0.43311676633498103
0.20808510638297872 0.46050110942469247 0.4350608138764548
0.20829787234042554 0.4660072657088322 0.4350201003831606
0.20851063829787234 0.4707538156920937 0.43770141452920697
0.20872340425531916 0.476090735833985 0.4438052191023941
0.20893617021276595 0.4789272404930056 0.4420152096245947
0.20914893617021277 0.4857925720418337 0.441133365901319
0.20936170212765956 0.4884009080382064 0.441133365901319
0.20957446808510638 0.4895060063436819 0.44013796288664675
0.2097872340425532 0.4918116366286158 0.43917928676111373
0.21 0.49217867070600874 0.43770370193961883
0.2102127659574468 0.4945697901576486 0.43985557423190363
0.2104255319148936 0.4928345159429715 0.43429408891060084
0.21063829787234042 0.49059936970684115 0.43483861031516574
0.21085106382978724 0.48708359352062824 0.43722520762090866
0.21106382978723404 0.4796434767676917 0.438976502944928
0.21127659574468086 0.47211192097050186 0.43845184099764595
0.21148936170212765 0.46497146925513805 0.44010192020436834
0.21170212765957447 0.4587481688855491 0.44211040547142155
0.2119148936170213 0.45676599902296044 0.44211040547142155
0.21212765957446808 0.4517455718987804 0.44354481322118733
0.2123404255319149 0.4452252871939137 0.44484805708468156
0.2125531914893617 0.4423082211821193 0.44855405104074425
0.2127659574468085 0.443991866971354 0.4460185637518319
0.2129787234042553 0.4424578505872769 0.44619228630975954
0.21319148936170212 0.44469026609968165 0.4482471662980441
0.21340425531914894 0.4464670634268039 0.45404325932714923
0.21361702127659574 0.44934967350054217 0.4595085912270188
0.21382978723404256 0.451635663426238 0.4606741573033708
0.21404255319148935 0.44493252420247864 0.4606741573033708
0.21425531914893617 0.43731767944433686 0.4595121740864119
0.214468085106383 0.4394723231679312 0.45368287960970033
0.21468085106382978 0.43054408286052787 0.45129588164404383
0.2148936170212766 0.42484467461100067 0.4473165847233601
0.2151063829787234 0.4267397231565073 0.4494735840755942
0.2153191489361702 0.4281919743170785 0.45127234280094275
0.21553191489361703 0.4298824943277062 0.4523544044400658
0.21574468085106382 0.4303859306301905 0.4528578407425501
0.21595744680851064 0.4316065178966268 0.4528578407425501
0.21617021276595744 0.4303371107049995 0.45352547376434876
0.21638297872340426 0.42820297689747827 0.45323192323134787
0.21659574468085105 0.42802574249286474 0.454570632461496
0.21680851063829787 0.42951168921215055 0.4563288783139405
0.2170212765957447 0.4313716304384781 0.4587373986395356
0.21723404255319148 0.43427737567118224 0.4630958646793538
0.2174468085106383 0.43761635913333546 0.46419116407135425
0.2176595744680851 0.4414857394127098 0.4637814627693739
0.2178723404255319 0.4463385217681086 0.4655593551538837
0.21808510638297873 0.4493338518109451 0.46536173174678463
0.21829787234042553 0.4413224494132384 0.4626912642808823
0.21851063829787234 0.44188975714685225 0.4657248413973107
0.21872340425531914 0.4379410900455375 0.46757642385503356
0.21893617021276596 0.43671700787474566 0.4618074768147865
0.21914893617021278 0.4383142957742323 0.4624552382461996
0.21936170212765957 0.4335298982287768 0.4624153875552974
0.2195744680851064 0.4297803566347795 0.4661649291492947
0.21978723404255318 0.4268397011795386 0.467295940455743
0.22 0.4278854761381176 0.4644666044501483
0.2202127659574468 0.4294793392088165 0.4660830990132992
0.2204255319148936 0.4320589853664359 0.46528160367180227
0.22063829787234043 0.435184154751545 0.4636052760136786
0.22085106382978723 0.43879036099395935 0.46301716221073047
0.22106382978723405 0.4417571738689774 0.4605701893087611
0.22127659574468084 0.4464112901931519 0.45979450325473203
0.22148936170212766 0.45307494364362433 0.4631710264885196
0.22170212765957448 0.4643507364541646 0.4607373152478117
0.22191489361702127 0.4676341406936341 0.46165119687347334
0.2221276595744681 0.4709970208396343 0.4618090448263984
0.22234042553191488 0.4776309606052349 0.46367470213570267
0.2225531914893617 0.4819910571619753 0.46458231558378116
0.22276595744680852 0.48001183453388013 0.4651916580984085
0.2229787234042553 0.47859941596104194 0.46559795477125476
0.22319148936170213 0.4768283683694392 0.46165119687347334
0.22340425531914893 0.4763067904250122 0.45987124522078976
0.22361702127659575 0.47703547144821307 0.4587200781631655
0.22382978723404254 0.47383564048711213 0.4552718886551629
0.22404255319148936 0.46745993516285916 0.4547940868390119
0.22425531914893618 0.4644312691928782 0.45292860196723467
0.22446808510638297 0.46313604721102763 0.4482072572933627
0.2246808510638298 0.46165119687347334 0.4481583292373881
0.22489361702127658 0.4586542343545222 0.4447085283462904
0.2251063829787234 0.45238810555482156 0.4426552790484411
0.22531914893617022 0.45066518546031004 0.4417411737573877
0.225531914893617 0.4491830296083896 0.4406230206237161
0.22574468085106383 0.44894968246213973 0.44191408214993955
0.22595744680851063 0.4448783471313792 0.44406448461162684
0.22617021276595745 0.441133365901319 0.4444302872313813
0.22638297872340427 0.4400748322512627 0.4460185637518319
0.22659574468085106 0.43648508597278823 0.4455251493197517
0.22680851063829788 0.43314627793285293 0.4448296919301254
0.22702127659574467 0.43240105840574145 0.4449804755463836
0.2272340425531915 0.4333170493404983 0.44406448461162684
0.22744680851063828 0.4341167326030875 0.44646353439939435
0.2276595744680851 0.43900395498569655 0.44416968367687715
0.22787234042553192 0.44406448461162684 0.44328984142882855
0.22808510638297871 0.44479191121395273 0.4450415241817294
0.22829787234042553 0.45198564651329454 0.4461930726105048
0.22851063829787233 0.4555835646818832 0.44568733564126767
0.22872340425531915 0.4499526507768844 0.44546522210517525
0.22893617021276597 0.44894968246213973 0.4422713757652408
0.22914893617021276 0.45036869195372914 0.44033076142839545
0.22936170212765958 0.4466653473308812 0.44198104875561167
0.22957446808510637 0.44501706637662286 0.4372863521336749
0.2297872340425532 0.44382676490914086 0.4410753576567581
0.23 0.4479726428920372 0.4352711284807034
0.2302127659574468 0.44920672960038877 0.43650521518905505
0.23042553191489362 0.4531040950234911 0.43655199712515147
0.23063829787234041 0.4561938635058354 0.43458015666916333
0.23085106382978723 0.4559369571426945 0.43678121455139884
0.23106382978723405 0.4528780397730187 0.4391658207408013
0.23127659574468085 0.4566988672493268 0.43725877350772546
0.23148936170212767 0.4617613987897523 0.441463971650156
0.23170212765957446 0.4633659738083905 0.44406448461162684
0.23191489361702128 0.4670990300795155 0.442909728417403
0.23212765957446807 0.46946751343429405 0.44322779952474545
0.2323404255319149 0.46814335357922227 0.4437173643266574
0.2325531914893617 0.4652071169732632 0.4423186726012489
0.2327659574468085 0.46374103879349554 0.44126912868113594
0.23297872340425532 0.46269720409555265 0.44204143781944477
0.23319148936170211 0.4579549770165527 0.44117575358601696
0.23340425531914893 0.457743038593063 0.443013588099343
0.23361702127659575 0.4575300073313363 0.43841527845273787
0.23382978723404255 0.4527175977901758 0.44211040547142155
0.23404255319148937 0.4473263711465153 0.44307981308970434
0.23425531914893616 0.4460185637518319 0.4462401124292297
0.23446808510638298 0.4482019218310356 0.44666262804451495
0.2346808510638298 0.451465694932306 0.44897505749145694
0.2348936170212766 0.45679204330608214 0.4469695590388128
0.2351063829787234 0.46124329161919214 0.45008795109378247
0.2353191489361702 0.46165119687347334 0.4499296176615163
0.23553191489361702 0.46123030705378104 0.45160524463516527
0.23574468085106381 0.458999157408533 0.45550988020749045
0.23595744680851063 0.4580218300713291 0.45648720754469435
0.23617021276595745 0.4529875924383678 0.4587200781631655
0.23638297872340425 0.44836882793236377 0.4587200781631655
0.23659574468085107 0.44553410982897584 0.4579893314166862
0.23680851063829786 0.43679589504875943 0.46373985978067744
0.23702127659574468 0.4334436337246947 0.4587557136666342
0.2372340425531915 0.4313478350513579 0.4567962693208308
0.2374468085106383 0.4302561746940154 0.4585903222269904
0.2376595744680851 0.42919390049218553 0.45828051501281897
0.2378723404255319 0.4272283749079421 0.46262823644357587
0.23808510638297872 0.42611891260448553 0.4629870961888706
0.23829787234042554 0.42500861375477694 0.46458951406348
0.23851063829787233 0.426413979849503 0.4687098328870971
0.23872340425531915 0.4297650995452996 0.4704445530043966
0.23893617021276595 0.4321998005142558 0.46772374817829887
0.23914893617021277 0.43638382047988267 0.4731043668565513
0.23936170212765956 0.43881866817843795 0.46905656610934293
0.23957446808510638 0.4418274198009555 0.4671664073442706
0.2397872340425532 0.4401511032108567 0.46457883350354123
0.24 0.43722520762090866 0.46199805864761323
0.2402127659574468 0.4379940089086584 0.45934479301022396
0.2404255319148936 0.43981018791624044 0.4611319892510093
0.24063829787234042 0.4383316922307092 0.45982656277296624
0.24085106382978724 0.4401563263312165 0.46037376986788864
0.24106382978723404 0.4408098114787238 0.45676599902296044
0.24127659574468086 0.44344552564870465 0.45640791841577993
0.24148936170212765 0.44406448461162684 0.45529236139327056
0.24170212765957447 0.44724535434881296 0.45226722409300624
0.2419148936170213 0.4497238820469379 0.458645757450327
0.24212765957446808 0.4526661436435602 0.4551953140807349
0.2423404255319149 0.45517362708848363 0.45859950909458935
0.2425531914893617 0.46086707329847726 0.4579234949935992
0.2427659574468085 0.4603236015982261 0.4606368435307051
0.2429787234042553 0.457743038593063 0.45723672197925697
0.24319148936170212 0.457743038593063 0.46019590875295757
0.24340425531914894 0.45245246200780487 0.4646743834936208
0.24361702127659574 0.4518019138155844 0.46466120294064434
0.24382978723404256 0.45072741270255046 0.4633701441472861
0.24404255319148935 0.4477806775370753 0.4598890830882302
0.24425531914893617 0.4450423097102281 0.45904641262694884
0.244468085106383 0.44341943412313456 0.4576178140303104
0.24468085106382978 0.44951007810111726 0.45795136055862556
0.2448936170212766 0.4538865247676445 0.45676599902296044
0.2451063829787234 0.4563723588851989 0.45676599902296044
0.2453191489361702 0.4622836787769371 0.45676599902296044
0.24553191489361703 0.4658870891430654 0.4554612254636762
0.24574468085106382 0.46991408599542434 0.4512109423307521
0.24595744680851064 0.47213236131434333 0.44788352935237363
0.24617021276595744 0.4738479685353425 0.4450739701105557
0.24638297872340426 0.4731535966003085 0.4410666979003804
0.24659574468085105 0.4687002647472607 0.43843961328164555
0.24680851063829787 0.4613725584046911 0.43644771122261194
0.2470212765957447 0.454772255210327 0.43722520762090866
0.24723404255319148 0.4536529080511174 0.4374071798824439
0.2474468085106383 0.4518846290387307 0.4382022471910112
0.2476595744680851 0.44905252490172076 0.43951354288679356
0.2478723404255319 0.4469350018254222 0.440095724834704
0.24808510638297873 0.44661468500566964 0.43739092299960053
0.24829787234042552 0.44820306389643516 0.4356444377635557
0.24851063829787234 0.450817172724334 0.43340363821850925
0.24872340425531914 0.45590144338842126 0.4363606519863695
0.24893617021276596 0.4600815663543876 0.43527908748935545
0.24914893617021278 0.4639168307594413 0.4344498662834822
0.24936170212765957 0.46291194460318336 0.43924224430675396
0.2495744680851064 0.4602280574379717 0.4389986567480664
0.24978723404255318 0.4560588906942281 0.43965753800662727
0.25 0.45546825983873845 0.4394999863752332
0.2502127659574468 0.45470176084403874 0.44244088258757114
0.25042553191489364 0.45287335458836026 0.4445607613195832
0.25063829787234043 0.4528508630240251 0.44406448461162684
0.2508510638297872 0.45155062109401356 0.44315078092417115
0.251063829787234 0.448556014391438 0.4452597500370357
0.25127659574468086 0.44657305386430635 0.4492269275183769
0.25148936170212766 0.4433489198899761 0.44546816636625963
0.25170212765957445 0.4433796771253415 0.4419795470039322
0.2519148936170213 0.4440536882848465 0.4435813629899656
0.2521276595744681 0.4436719547185268 0.44231095558061906
0.2523404255319149 0.44544229584683825 0.4418222715189247
0.2525531914893617 0.44807133646601727 0.4414261479000265
0.2527659574468085 0.44894968246213973 0.441133365901319
0.2529787234042553 0.4531641822171644 0.4470336655583537
0.2531914893617021 0.45287428601053836 0.439327294173008
0.25340425531914895 0.45639815170108033 0.4382942090214812
0.25361702127659574 0.4528578407425501 0.43940779621950626
0.25382978723404254 0.45269355649864507 0.44961548533108736
0.2540425531914894 0.45039232382631805 0.45684995218538527
0.2542553191489362 0.4457155235351997 0.45481191988275516
0.25446808510638297 0.4424026070358579 0.4542579606908322
0.25468085106382976 0.4390633105502283 0.4517648249615619
0.2548936170212766 0.43737100896267245 0.4509037616023448
0.2551063829787234 0.43625312223485085 0.449931676216287
0.2553191489361702 0.4309852000174268 0.4458473439269073
0.25553191489361704 0.4369110446050673 0.44437864762746815
0.25574468085106383 0.4363770947341531 0.4460185637518319
0.2559574468085106 0.44197090602785843 0.44722828354959326
0.2561702127659574 0.4464253699699696 0.45033352825038
0.25638297872340426 0.4489814273797078 0.45288958566011817
0.25659574468085106 0.45142895021918017 0.45743786296693156
0.25680851063829785 0.45188080117244755 0.4602076162918192
0.2570212765957447 0.45057217935574534 0.46111036457560484
0.2572340425531915 0.4482934869008689 0.4626354902153796
0.2574468085106383 0.4484657535482652 0.4654644057195796
0.25765957446808513 0.4537336153890697 0.4678839971374134
0.2578723404255319 0.45988042543538077 0.4676006377463571
0.2580851063829787 0.46886627816090465 0.4679712134914116
0.2582978723404255 0.47565080655012776 0.46946751343429405
0.25851063829787235 0.4787952790385156 0.4709789624776949
0.25872340425531914 0.48078324290971614 0.4733756717147044
0.25893617021276594 0.4749752144348794 0.4754715654229217
0.2591489361702128 0.46251898341759673 0.4733210452017149
0.2593617021276596 0.45393640049580625 0.4706243129632727
0.25957446808510637 0.4481759587734131 0.4713809293982241
0.2597872340425532 0.44659440004330236 0.47112069011552526
0.26 0.44260966792447687 0.4684904738641915
0.2602127659574468 0.4415109003788781 0.4669803359539552
0.2604255319148936 0.44005454506084263 0.4641711435016654
0.26063829787234044 0.43319748597575825 0.4623969595201335
0.26085106382978723 0.4279914005523265 0.4574546255087083
0.261063829787234 0.4223818870351679 0.45346748333724024
0.2612765957446809 0.42044874218098255 0.45366808756447047
0.26148936170212767 0.42346801947981316 0.45288405212910315
0.26170212765957446 0.43150805299746664 0.4551859606718472
0.26191489361702125 0.44318416267981053 0.4587200781631655
0.2621276595744681 0.4588449651050545 0.45978140585324434
0.2623404255319149 0.4772229560068466 0.46535404160101596
0.2625531914893617 0.48633132345180813 0.46943685234960947
0.26276595744680853 0.49047610562144306 0.4711089850605013
0.2629787234042553 0.48436898368355497 0.46718297810043036
0.2631914893617021 0.4782618617456669 0.4632569711403594
0.26340425531914896 0.4712007095663515 0.4604556934333033
0.26361702127659575 0.4639576397694838 0.45786888279156485
0.26382978723404255 0.4569760749265655 0.45584898113960215
0.26404255319148934 0.4500078824241862 0.45385806899606523
0.2642553191489362 0.44306870823618066 0.45187845907177965
0.264468085106383 0.44033472563324966 0.4515367112464132
0.26468085106382977 0.4376007430303187 0.45119496342104676
0.2648936170212766 0.43534259319584084 0.45047497331152003
0.2651063829787234 0.435825775005845 0.4475758824514955
0.2653191489361702 0.4365098871987102 0.4447143752468493
0.265531914893617 0.43859017179582926 0.4421140195004505
0.26574468085106384 0.44093320835348526 0.4396384049830373
0.26595744680851063 0.44407664583165674 0.4375427799975896
0.2661702127659574 0.447227306095479 0.43584525393625706
0.2663829787234043 0.4503896399577846 0.43479114264882185
0.26659574468085107 0.45055226035044554 0.43429408891060084
0.26680851063829786 0.4480382833326912 0.43429408891060084
0.2670212765957447 0.44592151751931947 0.4343911351431133
0.2672340425531915 0.44542790431295437 0.4348847483494784
0.2674468085106383 0.44513216172095577 0.43545240355915615
0.2676595744680851 0.4455493826790986 0.43628684547544194
0.26787234042553193 0.44596660363724155 0.4371212873917279
0.2680851063829787 0.4490495340509676 0.4389571906489862
0.2682978723404255 0.45251167447644747 0.4409355566064032
0.26851063829787236 0.45373976372986885 0.441133365901319
0.26872340425531915 0.4547196631354421 0.441133365901319
0.26893617021276595 0.4557564540939636 0.4416056330069232
0.26914893617021274 0.4567995838264046 0.44209361306969946
0.2693617021276596 0.4578556765295955 0.44156556671810404
0.2695744680851064 0.4588157259294175 0.441133365901319
0.26978723404255317 0.45934268270531264 0.441133365901319
0.27 0.45831713964158105 0.4407883713783972
0.2702127659574468 0.4541020837736357 0.4397346074114108
0.2704255319148936 0.45063293754903105 0.4381809958623806
0.27063829787234045 0.4479948166673956 0.4360704991570723
0.27085106382978724 0.4450578724862946 0.4352711284807034
0.27106382978723403 0.4419387409504032 0.4352711284807034
0.2712765957446808 0.44467618924061736 0.43409018736760396
0.2714893617021277 0.44945220264855784 0.43249818289829056
0.27170212765957447 0.45466715779840233 0.4318659661937797
0.27191489361702126 0.4598851209144579 0.4314569717908878
0.2721276595744681 0.4641244491628079 0.4335766359150628
0.2723404255319149 0.4671987003040253 0.4353760398107246
0.2725531914893617 0.4656296152276466 0.43589906816951757
0.2727659574468085 0.4635282372430243 0.43659952749772507
0.27297872340425533 0.46035846957463694 0.43765611672052074
0.2731914893617021 0.4607572175805333 0.4392208168996951
0.2734042553191489 0.4649738551521358 0.4413291356854963
0.27361702127659576 0.4678698302705337 0.443443841017969
0.27382978723404255 0.46998829553647536 0.4455623062839107
0.27404255319148935 0.4697339694436424 0.4470844390929633
0.2742553191489362 0.4688283386351477 0.4484428853057054
0.274468085106383 0.46587421266352524 0.45025781306247287
0.2746808510638298 0.4617010733953412 0.45234438269656485
0.27489361702127657 0.4562935450455373 0.4528578407425501
0.2751063829787234 0.450483116475159 0.4528578407425501
0.2753191489361702 0.4446642636628251 0.45572827258041393
0.275531914893617 0.4388747801461607 0.4589027821321373
0.27574468085106385 0.4335811120140282 0.4620789830114169
0.27595744680851064 0.42884948799673483 0.4646941961964518
0.27617021276595743 0.4262088873272802 0.46522231633034267
0.2763829787234042 0.42509022296305443 0.4661258849073631
0.2765957446808511 0.4266560263831426 0.4676916883274514
0.27680851063829787 0.4279729004479657 0.4684904738641915
0.27702127659574466 0.42903053522649265 0.4684904738641915
0.2772340425531915 0.42804892167306685 0.4671305044771704
0.2774468085106383 0.4259314544202144 0.46501303722431797
0.2776595744680851 0.4238329416065392 0.4629145244106428
0.27787234042553194 0.42173926893418556 0.46082085173828913
0.27808510638297873 0.4225537380906991 0.4587518301205069
0.2782978723404255 0.4235976088738058 0.4567999691791828
0.2785106382978723 0.42489268699515664 0.4576633545934166
0.27872340425531916 0.42618776511650774 0.4585267400076506
0.27893617021276595 0.42809536664745945 0.4579112810143259
0.27914893617021275 0.43017970816903267 0.4568691102535393
0.2793617021276596 0.43341868431540215 0.4563327484965017
0.2795744680851064 0.4367844424103074 0.45585192591151524
0.2797872340425532 0.437657563133236 0.45708602598984
0.27999999999999997 0.4381550700069456 0.45857854661096864
0.2802127659574468 0.44392474142628857 0.45919695268277205
0.2804255319148936 0.4501107497001734 0.459743124650251
0.2806382978723404 0.45374632372464935 0.46065201815636997
0.28085106382978725 0.45738189774912624 0.46156091166248914
0.28106382978723404 0.4590123659449441 0.462074305990767
0.28127659574468084 0.4604216888092744 0.46254408027887706
0.2814893617021277 0.4619613733005524 0.46262823644357587
0.2817021276595745 0.46352950752974886 0.46262823644357587
0.28191489361702127 0.46209490492810024 0.46212477941504976
0.28212765957446806 0.4606193624014038 0.4615416070695393
0.2823404255319149 0.4600964563957316 0.4604957950581949
0.2825531914893617 0.458947755390257 0.4598220114571035
0.2827659574468085 0.45577664189530154 0.46035053037292933
0.28297872340425534 0.4538348803126526 0.45986253785826825
0.28319148936170213 0.4538348803126526 0.4577689653430537
0.2834042553191489 0.4530087597013919 0.45649062548587355
0.2836170212765957 0.45142290459280676 0.4559620071163452
0.28382978723404256 0.4462577017586168 0.4554315702341095
0.28404255319148936 0.43935051694953353 0.4549002483257184
0.28425531914893615 0.43945318843859893 0.4531439982193049
0.284468085106383 0.4409535547934654 0.45114350974614964
0.2846808510638298 0.44252145200789644 0.4495156754957675
0.2848936170212766 0.4440421750650509 0.4479614881187492
0.2851063829787234 0.44300916302813353 0.4474449821002905
0.2853191489361702 0.44224791844260886 0.44727062926430905
0.285531914893617 0.4433060027184687 0.4493867978160286
0.2857446808510638 0.44406448461162684 0.45000639321002694
0.28595744680851065 0.44406448461162684 0.44683722153320893
0.28617021276595744 0.4456754383956398 0.44527166043658833
0.28638297872340424 0.44939257311798003 0.4458026796826369
0.2865957446808511 0.4527812543265639 0.44476690193568585
0.2868085106382979 0.45594492770898415 0.44265778634740577
0.28702127659574467 0.456405252970462 0.44247115152391997
0.28723404255319146 0.45591806707599186 0.44295833741839014
0.2874468085106383 0.45695077632508335 0.4430874450415241
0.2876595744680851 0.45853149438986107 0.4430874450415241
0.2878723404255319 0.4573845463382482 0.4417519132166068
0.28808510638297874 0.4558680983240995 0.4402354652024581
0.28829787234042553 0.45772076494369085 0.4416051804493411
0.2885106382978723 0.45969711773326827 0.44303969375990504
0.28872340425531917 0.45969711773326827 0.44146532852600756
0.28893617021276596 0.45969711773326827 0.4401563263312165
0.28914893617021276 0.45969711773326827 0.4401563263312165
0.28936170212765955 0.45918398362248875 0.4403273710348097
0.2895744680851064 0.45759085263303767 0.44085841469795994
0.2897872340425532 0.4539619757180323 0.44036863227270223
0.29 0.44814743979369415 0.43878284974788273
0.2902127659574468 0.4450092492163595 0.4395479999049744
0.2904255319148936 0.44341694395418313 0.44167107358787616
0.2906382978723404 0.4414030667502749 0.4408471217529846
0.2908510638297872 0.43927919049824554 0.43925421456396263
0.29106382978723405 0.4326196887966291 0.44119762459633977
0.29127659574468084 0.4264777723497801 0.4430874450415241
0.29148936170212764 0.4264777723497801 0.4430874450415241
0.2917021276595745 0.4280825997499832 0.44148261764132113
0.2919148936170213 0.43083912802489305 0.4401563263312165
0.29212765957446807 0.43446344172513046 0.4401563263312165
0.2923404255319149 0.43810840072148405 0.4401563263312165
0.2925531914893617 0.44488056576333224 0.44063143291473467
0.2927659574468085 0.4523816566246633 0.4424265240458477
0.2929787234042553 0.4582018755469795 0.44751921560287444
0.29319148936170214 0.46136218178858757 0.44929369470474817
0.29340425531914893 0.4642722878675929 0.45074874774425083
0.2936170212765957 0.46637554228663924 0.4525242109218354
0.29382978723404257 0.46565746163105176 0.4553965335441856
0.29404255319148936 0.46872617341541584 0.4552611564092691
0.29425531914893616 0.4706545243548492 0.45577075515731785
0.29446808510638295 0.4677614753527032 0.4593870664100005
0.2946808510638298 0.4631805907133912 0.45969711773326827
0.2948936170212766 0.4599879793693567 0.46072638463428933
0.2951063829787234 0.45909685235950376 0.4620630751490685
0.29531914893617023 0.4620069618299255 0.457697910943436
0.295531914893617 0.4666336974301751 0.45733820773533174
0.2957446808510638 0.4697902720690518 0.45742027995830525
0.29595744680851066 0.4703709756620794 0.4566188443383261
0.29617021276595745 0.46964141589601904 0.45515972480620515
0.29638297872340424 0.46671444454244787 0.45316007854764756
0.29659574468085104 0.4627970412737123 0.45277343832748196
0.2968085106382979 0.4582612357563822 0.45476603564207685
0.2970212765957447 0.45101929060480145 0.4540418411269188
0.29723404255319147 0.44166848533223063 0.4538348803126526
0.2974468085106383 0.4330923550254576 0.45546896040408696
0.2976595744680851 0.4274108503114381 0.4596531561248237
0.2978723404255319 0.42619712525145553 0.458439431064841
0.29808510638297875 0.4257865811642259 0.46088737082309433
0.29829787234042554 0.4264572161785125 0.468264355980248
0.29851063829787233 0.4297203750057042 0.46795004008820423
0.2987234042553191 0.4323400097703958 0.467513434294089
0.298936170212766 0.4323400097703958 0.467513434294089
0.29914893617021276 0.4373957194196456 0.46801900525901396
0.29936170212765956 0.44273916281409886 0.4684904738641915
0.2995744680851064 0.4448370471693329 0.4684904738641915
0.2997872340425532 0.4437674319767341 0.4691275199666891
0.3 0.4410883973038265 0.4689677514998697
0.3002127659574468 0.43723158457544364 0.468003548317774
0.30042553191489363 0.4341286316091437 0.4671326020035691
0.3006382978723404 0.4318050199012011 0.4663580647675881
0.3008510638297872 0.4294814081932585 0.4655835275316072
0.30106382978723406 0.432419796256074 0.46405390255589063
0.30127659574468085 0.4355276952503244 0.46249995305876546
0.30148936170212765 0.4394922967551459 0.46043045657042253
0.3017021276595745 0.4444880078048286 0.457740458312901
0.3019148936170213 0.44948371885451 0.45505046005538025
0.3021276595744681 0.45752753166490606 0.4540118346582643
0.30234042553191487 0.4658679413148155 0.45313389680037913
0.3025531914893617 0.4688235455473037 0.4521916973763257
0.3027659574468085 0.46930938220155427 0.45122002406782435
0.3029787234042553 0.4691375516230507 0.4515636852248316
0.30319148936170215 0.46864836977898505 0.45254204891296296
0.30340425531914894 0.4694751075747102 0.44990393961099395
0.30361702127659573 0.47092903269401465 0.44554216425308085
0.3038297872340425 0.47111056398778656 0.44375345602491406
0.3040425531914894 0.4706401784810267 0.4432830705181542
0.30425531914893617 0.4701941847029963 0.4450903914527267
0.30446808510638296 0.46976555751047777 0.4485194089928748
0.3046808510638298 0.4691168074812492 0.4499685457275585
0.3048936170212766 0.4679656471147921 0.4468987847503397
0.3051063829787234 0.46681448674833503 0.44382902377312083
0.30531914893617024 0.4626905010147072 0.4429548280170662
0.30553191489361703 0.4576196031271075 0.44277996946921794
0.3057446808510638 0.45254870523950774 0.44260511092136967
0.3059574468085106 0.447477807351908 0.4424302523735214
0.30617021276595746 0.44240690946430694 0.44225539382567314
0.30638297872340425 0.43841603914198124 0.4421256763250623
0.30659574468085105 0.4396675660183392 0.44221507110194497
0.3068085106382979 0.4409190928946974 0.4423044658788277
0.3070212765957447 0.4421706197710553 0.4423938606557104
0.3072340425531915 0.44342214664741325 0.4424832554325931
0.30744680851063827 0.4446736735237712 0.4425726502094758
0.3076595744680851 0.4459252004001294 0.4426620449863585
0.3078723404255319 0.44717672727648733 0.4427514397632412
0.3080851063829787 0.44842825415284526 0.44284083454012396
0.30829787234042555 0.44967978102920353 0.44293022931700665
0.30851063829787234 0.4509313079055614 0.44301962409388934
0.30872340425531913 0.4517211210519633 0.4433269652222504
0.308936170212766 0.45105945971316186 0.4443194572304525
0.3091489361702128 0.4503977983743606 0.4453119492386544
0.30936170212765957 0.4508133305715925 0.4458919053890676
0.30957446808510636 0.4538914038897935 0.4454521806293246
0.3097872340425532 0.45685370916037826 0.445070760894202
0.31 0.45818052576076923 0.44551303309433227
0.3102127659574468 0.4595073423611602 0.4459553052944626
0.31042553191489364 0.4608599980491754 0.4464061905238009
0.31063829787234043 0.462216966353432 0.44685851329188647
0.3108510638297872 0.46424131687603304 0.446672987235443
0.311063829787234 0.4665559020009659 0.4462100702104565
0.31127659574468086 0.46863410669481975 0.44657889995219735
0.31148936170212765 0.4705455220854748 0.4475346076475249
0.31170212765957445 0.47063087930398645 0.44744550071169525
0.3119148936170213 0.46917109376539556 0.4464723103526346
0.3121276595744681 0.46393335753468695 0.44539713879780857
0.3123404255319149 0.45539549062130563 0.4442328842187111
0.3125531914893617 0.4469321392552304 0.4430810986348537
0.3127659574468085 0.44300512612956233 0.4426883973222869
0.3129787234042553 0.43907811300389427 0.44229569600972013
0.3131914893617021 0.4376449468392148 0.4412709270348093
0.31340425531914895 0.43843966033732573 0.43968150003858736
0.31361702127659574 0.4393036324006875 0.4382851442840604
0.31382978723404253 0.4410975043645825 0.439481058926657
0.3140425531914894 0.44289137632847797 0.44067697356925395
0.3142553191489362 0.44468524829237294 0.4418728882118506
0.31446808510638297 0.44624512129586813 0.44397051010236327
0.31468085106382976 0.44774700291416025 0.44629159987608746
0.3148936170212766 0.4492488845324528 0.44861268964981227
0.3151063829787234 0.45075076615074494 0.45093377942353646
0.3153191489361702 0.4522526477690371 0.45325486919726066
0.31553191489361704 0.45375452938732963 0.45557595897098546
0.31574468085106383 0.45525641100562175 0.45789704874470966
0.3159574468085106 0.4552153407503801 0.4582898641363072
0.31617021276595747 0.4543265778246033 0.4576232919419746
0.31638297872340426 0.45343781489882673 0.45695671974764224
0.31659574468085105 0.4525490519730501 0.4562901475533098
0.31680851063829785 0.4513683380786702 0.4564039151653907
0.3170212765957447 0.44930288159540965 0.4588824629453032
0.3172340425531915 0.4472374251121497 0.461361010725215
0.3174468085106383 0.446635416368062 0.46129100991960087
0.3176595744680851 0.44622746707761524 0.46088306062915413
0.3178723404255319 0.44581951778716855 0.46047511133870744
0.3180851063829787 0.44541156849672187 0.46006716204826076
0.3182978723404255 0.4450415241817294 0.45980958412428874
0.31851063829787235 0.4450415241817294 0.4610199947330853
0.31872340425531914 0.4450415241817294 0.46223040534188153
0.31893617021276593 0.4453503186701934 0.4617018529781838
0.3191489361702128 0.4458102959665786 0.4603219210890282
0.3193617021276596 0.44548865497617995 0.45969711773326827
0.31957446808510637 0.4445202926570163 0.45969711773326827
0.3197872340425532 0.44252688625565456 0.4599533841259303
0.32 0.43962192109173753 0.46043754498658307
0.3202127659574468 0.4375716775666283 0.46151491680254797
0.3204255319148936 0.4363383956927946 0.4631592926343262
0.32063829787234044 0.43532769506990154 0.46412978287019574
0.32085106382978723 0.4357479142745812 0.46076802923275906
0.321063829787234 0.43616813347926087 0.4574062755953224
0.32127659574468087 0.4385261676160944 0.45752533221138986
0.32148936170212766 0.4413401076720155 0.4584633122300302
0.32170212765957445 0.44495362710856795 0.45903599167840403
0.32191489361702125 0.4488685271979168 0.4594709805772207
0.3221276595744681 0.4527301340881237 0.45888539662847766
0.3223404255319149 0.4565340370189032 0.4571947731036868
0.3225531914893617 0.4601308934046251 0.4557889594528579
0.3227659574468085 0.4627057737775431 0.4557889594528579
0.3229787234042553 0.4652806541504604 0.4557889594528579
0.3231914893617021 0.46835183102934635 0.45556202991468786
0.32340425531914896 0.471895451889782 0.4551190773071333
0.32361702127659575 0.4737520819051794 0.45481191988275516
0.32382978723404254 0.4717928787607314 0.45481191988275516
0.32404255319148934 0.4693804392585785 0.45389982238633964
0.3242553191489362 0.46596761855605257 0.4509745474984603
0.324468085106383 0.464125322792033 0.44842963568378535
0.32468085106382977 0.46581486425874374 0.4467400942170746
0.3248936170212766 0.46750440572545493 0.4450505527503634
0.3251063829787234 0.46854106910579857 0.44761061121100343
0.3253191489361702 0.4697366698305423 0.44992672203224227
0.325531914893617 0.4723425801101046 0.44992672203224227
0.32574468085106384 0.472324988158872 0.4495688885394302
0.32595744680851063 0.46345582088719306 0.44800374137383975
0.3261702127659574 0.45368396615502865 0.4471801066145724
0.32638297872340427 0.4422783256273785 0.44769854482037474
0.32659574468085106 0.4331578040533648 0.44821036319953267
0.32680851063829786 0.42660070375647874 0.44871475553006235
0.3270212765957447 0.4257859861975079 0.4492295990318942
0.3272340425531915 0.42997762703252995 0.4497535541362719
0.3274468085106383 0.436544010860241 0.4495813193215791
0.3276595744680851 0.4442826986878083 0.4490654067997413
0.3278723404255319 0.4525271659558628 0.4481361071866358
0.3280851063829787 0.4609178918917824 0.4470872664446458
0.3282978723404255 0.45836817551162484 0.44412295963031706
0.32851063829787236 0.4547707590115126 0.44097522019271895
0.32872340425531915 0.44904751645649155 0.43831503254038523
0.32893617021276594 0.4425767679591028 0.43582628311831256
0.32914893617021274 0.4383541170888559 0.4344770573914283
0.3293617021276596 0.43477691780625927 0.43345500045354357
0.3295744680851064 0.4335552790283214 0.4344252641639175
0.32978723404255317 0.4327011892296272 0.43570639886195894
0.33 0.4325819012963318 0.43624816805080613
0.3302127659574468 0.4330010385473734 0.43624816805080613
0.3304255319148936 0.4330160652115628 0.43664948022272015
0.33063829787234045 0.43179277428353413 0.438280534793425
0.33085106382978724 0.4305694833555058 0.4399115893641294
0.33106382978723403 0.43369115474385045 0.44180893838804647
0.3312765957446808 0.4375798746762245 0.4437532983542335
0.33148936170212767 0.44076682828629726 0.44705649588946045
0.33170212765957446 0.4438200667659909 0.45061860744910287
0.33191489361702126 0.4520667080323989 0.45325735672610135
0.3321276595744681 0.46075314189510186 0.4558152876501016
0.3323404255319149 0.4682939421511687 0.45832888773545716
0.3325531914893617 0.47557127601620924 0.46060515011442804
0.3327659574468085 0.47917785713580635 0.45957469836597165
0.33297872340425533 0.48154330595444317 0.4588988558463611
0.3331914893617021 0.47787629492730843 0.4599465732826854
0.3334042553191489 0.4732580771472449 0.4582837645637575
0.33361702127659576 0.4664780018415663 0.4504606007495131
0.33382978723404255 0.4619751595298378 0.4447124099243557
0.33404255319148934 0.4604640870511459 0.4416902649669717
0.3342553191489362 0.4591847255073752 0.4401563263312165
0.334468085106383 0.4581441953341195 0.4401563263312165
0.3346808510638298 0.4570978358977862 0.44176933306940847
0.33489361702127657 0.4560478190555284 0.4443943751750531
0.3351063829787234 0.45618415082336017 0.4470174810342406
0.3353191489361702 0.4567086452906782 0.44963995337083085
0.335531914893617 0.456353566279544 0.45240131849274107
0.33574468085106385 0.4558904966394146 0.4551797363335176
0.33595744680851064 0.45456318408865826 0.45497177587672477
0.33617021276595743 0.45299314701129434 0.45392508449181546
0.3363829787234042 0.4537870333624888 0.45337028400268325
0.33659574468085107 0.4548038560699628 0.45286187264894623
0.33680851063829786 0.455315480348619 0.4528578407425501
0.33702127659574466 0.45575430913653237 0.45278854010989905
0.3372340425531915 0.45523863337612996 0.45175718858909436
0.3374468085106383 0.45445366868674525 0.45117244999935224
0.3376595744680851 0.4523770415493048 0.4527299203524326
0.33787234042553194 0.4507532934408545 0.45428628479712346
0.33808510638297873 0.4502354054446871 0.45583994878562584
0.3382978723404255 0.45013359810656145 0.4575935033202371
0.3385106382978723 0.45064572185489293 0.4596419983135633
0.33872340425531916 0.4506486064909197 0.4614396226376462
0.33893617021276595 0.45013432384574514 0.4629824705731699
0.33914893617021274 0.4493102552725907 0.464529976153156
0.3393617021276596 0.44827648294946315 0.4660806346378473
0.3395744680851064 0.4476113527321813 0.4654525242444187
0.3397872340425532 0.44709967269633794 0.463917484136889
0.34 0.4465235760293921 0.46454933059876335
0.3402127659574468 0.44638977108712385 0.46528094965241473
0.3404255319148936 0.44890266927932304 0.4633962760082653
0.3406382978723404 0.4478405787270964 0.4622110077825467
0.34085106382978725 0.4460826599389192 0.4609075284754806
0.34106382978723404 0.45116022911187903 0.45728069335193794
0.34127659574468083 0.4531246852572314 0.460497651277312
0.3414893617021277 0.4512516159629521 0.46225919867933296
0.3417021276595745 0.4459560221640213 0.4615356878559274
0.34191489361702126 0.4394437390729431 0.46081210084580765
0.34212765957446806 0.4346717595654561 0.45949732809485233
0.3423404255319149 0.430306935631938 0.45905892385290853
0.3425531914893617 0.4266497212606342 0.4595251688224142
0.3427659574468085 0.4280436171844279 0.4581312728986205
0.34297872340425534 0.4288700908694018 0.45642832045481374
0.34319148936170213 0.429792328609764 0.4548886073926904
0.3434042553191489 0.43318645535351274 0.45556743274144024
0.34361702127659577 0.4369289041005114 0.45666723118282804
0.34382978723404256 0.4412174037889571 0.4572607306577263
0.34404255319148935 0.4472868666922712 0.45450188388349266
0.34425531914893615 0.4533563295955853 0.451743037109259
0.344468085106383 0.459425792498901 0.4489841903350246
0.3446808510638298 0.46444749678296854 0.44735124291214934
0.3448936170212766 0.46886263209902135 0.4463701017308042
0.3451063829787234 0.4725267644072502 0.44726789059354405
0.3453191489361702 0.47514930716244547 0.4490399043083718
0.345531914893617 0.47382410748805853 0.44970250414556523
0.3457446808510638 0.47032573119074217 0.44861960466482986
0.34595744680851065 0.4660822678790102 0.44688207161069043
0.34617021276595744 0.4635309576257381 0.44624424404737245
0.34638297872340423 0.46047130098939104 0.44688133793350593
0.3465957446808511 0.45811549024668585 0.44822094399445245
0.3468085106382979 0.46015443644466186 0.44958024145976966
0.34702127659574467 0.46044867922135824 0.45082863436029247
0.3472340425531915 0.46014606599726054 0.4520390872566833
0.3474468085106383 0.45984345277316296 0.4532495401530738
0.3476595744680851 0.4573590814685719 0.4533153166982757
0.3478723404255319 0.45283176567126104 0.45230924652109555
0.34808510638297874 0.4516066129716886 0.4525836525417913
0.34829787234042553 0.4528307947705971 0.45380783434069966
0.3485106382978723 0.4497076919208846 0.451734781098209
0.34872340425531917 0.44735890398312417 0.44949076123881465
0.34893617021276596 0.44965709709752616 0.44673292950153237
0.34914893617021275 0.45205109799340853 0.4441212502186138
0.34936170212765955 0.45730522644057425 0.445872626367669
0.3495744680851064 0.46183759921893514 0.44815904523749883
0.3497872340425532 0.4650801629246554 0.4514016089432193
0.35 0.46137955591420454 0.4484847142902082
0.3502127659574468 0.4564749437666587 0.44449971692032714
0.3504255319148936 0.45157033161911414 0.44051471955044713
0.3506382978723404 0.44768205371188347 0.43805695260093436
0.35085106382978726 0.44430602830055355 0.4363689398952694
0.35106382978723405 0.4409300028892245 0.4346809271896049
0.35127659574468084 0.43755397747789543 0.4329929144839404
0.35148936170212763 0.4341779520665664 0.43130490177827585
0.3517021276595745 0.4308019266552365 0.4296168890726109
0.3519148936170213 0.42813686916831706 0.42807787270398334
0.35212765957446807 0.4271468919624582 0.4268899000569528
0.3523404255319149 0.4261569147565991 0.4257019274099219
0.3525531914893617 0.4251669375507403 0.42451395476289133
0.3527659574468085 0.4241769603448815 0.42332598211586075
0.3529787234042553 0.4238484480247681 0.42272051126201765
0.35319148936170214 0.42467912377361494 0.42313584913644103
0.35340425531914893 0.42553768009079695 0.4235624882013806
0.3536170212765957 0.4289227143928963 0.4250132171879946
0.35382978723404257 0.43230774869499655 0.42646394617460903
0.35404255319148936 0.4392872039615043 0.4329618202614815
0.35425531914893615 0.4463012454877763 0.43950825901933555
0.354468085106383 0.4481736744012907 0.44157001162644394
0.3546808510638298 0.4494811827947588 0.4431390216986056
0.3548936170212766 0.45078869118822695 0.44470803177076723
0.3551063829787234 0.4522248831563454 0.4466493807223113
0.3553191489361702 0.4543135247742638 0.45047855702182843
0.355531914893617 0.4564021663921816 0.45430773332134455
0.3557446808510638 0.45754864886716723 0.45731029025546854
0.35595744680851066 0.45700568674227765 0.45883058420515943
0.35617021276595745 0.4564627246173881 0.46035087815485
0.35638297872340424 0.45591976249249866 0.4618711721045405
0.35659574468085103 0.4553768003676092 0.46339146605423104
0.3568085106382979 0.4548338382427196 0.4649117600039219
0.3570212765957447 0.45429087611783014 0.4664320539536125
0.35723404255319147 0.4537479139929407 0.467952347903303
0.3574468085106383 0.45320495186805104 0.4694726418529939
0.3576595744680851 0.45239672864740166 0.47031280669149705
0.3578723404255319 0.45111837722833453 0.4699475634289065
0.35808510638297875 0.4498400258092671 0.4695823201663158
0.35829787234042554 0.44856167439019995 0.4692170769037252
0.35851063829787233 0.4472833229711328 0.4688518336411346
0.3587234042553191 0.4460067819757073 0.46849518657464134
0.35893617021276597 0.44489870157024536 0.4689384187368261
0.35914893617021276 0.44379062116478374 0.46938165089901074
0.35936170212765955 0.44268254075932206 0.4698248830611954
0.3595744680851064 0.44157446035386017 0.47026811522338013
0.3597872340425532 0.4406946498359613 0.4708832690697543
0.36 0.4399657998902383 0.4716121190154773
0.3602127659574468 0.43923694994451534 0.47234096896120026
0.3604255319148936 0.4382833553106484 0.47114432811395035
0.3606382978723404 0.4373104523487596 0.469782263967306
0.3608510638297872 0.4363375493868708 0.4684201998206617
0.36106382978723406 0.43536464642498174 0.467058135674017
0.36127659574468085 0.43439174346309295 0.4656960715273727
0.36148936170212764 0.4379832864841176 0.46473953347088
0.3617021276595745 0.44208410084462874 0.46382824139076645
0.3619148936170213 0.44810446010374794 0.4632193517781229
0.3621276595744681 0.454746605573215 0.4627084175112407
0.36234042553191487 0.4610526333398384 0.4617509574624125
0.3625531914893617 0.46729609563666774 0.460710380412941
0.3627659574468085 0.4730659531139551 0.45966460842703144
0.3629787234042553 0.4783867369915762 0.4588039897807381
0.36319148936170215 0.47968470999033347 0.459669305113243
0.36340425531914894 0.4809826829890904 0.46053462044574767
0.36361702127659573 0.4824849751106397 0.4615361485267805
0.3638297872340425 0.48402654925739846 0.46256386462461957
0.36404255319148937 0.48359773773160863 0.4605267594266785
0.36425531914893616 0.4827378160098979 0.4587200781631655
0.36446808510638296 0.48063483109269173 0.4587200781631655
0.3646808510638298 0.4808028574875619 0.4569563518167476
0.3648936170212766 0.47941273296488757 0.4532980020179653
0.3651063829787234 0.47427498210558083 0.4484078669102914
0.36531914893617023 0.4629297194770895 0.4453824635426937
0.365531914893617 0.4536906046401368 0.44238799343728386
0.3657446808510638 0.443752746371598 0.4384873763324714
0.3659574468085106 0.43291496717875144 0.4352711284807034
0.36617021276595746 0.4215941300039818 0.4352711284807034
0.36638297872340425 0.41484003411018217 0.4360214107461574
0.36659574468085104 0.40832438307807684 0.43575096412966524
0.3668085106382979 0.404636260329799 0.43668952418855495
0.3670212765957447 0.4065666588835769 0.4410329209345553
0.3672340425531915 0.4090805457117007 0.44484216807420673
0.36744680851063827 0.41294283722667136 0.44741702908418707
0.3676595744680851 0.42138607794779515 0.44621653058218747
0.3678723404255319 0.4311513621964417 0.44576053800429266
0.3680851063829787 0.4408571428737053 0.44713542466465045
0.36829787234042555 0.44999613121456067 0.4478970070263885
0.36851063829787234 0.45774931679294223 0.44735031969289185
0.36872340425531913 0.4623902932939716 0.44625650690143626
0.368936170212766 0.4639093155575643 0.4447374846378437
0.36914893617021277 0.465429083951945 0.4432177162434628
0.36936170212765956 0.4696934074890137 0.4410204188739592
0.36957446808510636 0.47142159257449934 0.4387860863451396
0.3697872340425532 0.4723217511636406 0.43835040585733526
0.37 0.4753756873621023 0.44209509330235736
0.3702127659574468 0.4799514007312916 0.4405698555126277
0.37042553191489364 0.48174716233078146 0.4401563263312165
0.3706382978723404 0.4828455028122179 0.4401563263312165
0.3708510638297872 0.48400314692336205 0.4400363662687456
0.371063829787234 0.4832410452499379 0.4392742645953212
0.37127659574468086 0.4831460674157304 0.43850897815175327
0.37148936170212765 0.48177865122443847 0.4377464417939139
0.37170212765957444 0.47801485598814647 0.43742521604975193
0.3719148936170213 0.471019828865428 0.4380611276063627
0.3721276595744681 0.4624182925495294 0.4399645524122024
0.3723404255319149 0.4581080429656627 0.44259338339171794
0.3725531914893617 0.4583225678115825 0.4450415241817294
0.3727659574468085 0.4562139228869127 0.4450415241817294
0.3729787234042553 0.45338154602533587 0.44624523089549034
0.3731914893617021 0.4503484967058398 0.44776175555523834
0.37340425531914895 0.44763701886711726 0.4491174944745997
0.37361702127659574 0.4461201337729852 0.4498759370216656
0.37382978723404253 0.4396940416429944 0.4485212726747229
0.3740425531914894 0.43431191702192773 0.44748709445887364
0.37425531914893617 0.43190825521617127 0.4472682458298736
0.37446808510638296 0.4331353992983758 0.4478515428639555
0.37468085106382976 0.43083911861324037 0.4463206890738652
0.3748936170212766 0.4303859306301905 0.445404744206449
0.3751063829787234 0.4283743154066352 0.4446392011370183
0.3753191489361702 0.42454671521544446 0.44349207407308694
0.37553191489361704 0.4207302465229751 0.44120219285760526
0.37574468085106383 0.41987578922164265 0.44409234873140674
0.3759574468085106 0.42069175400036335 0.44662141214368145
0.37617021276595747 0.421907424932167 0.4489171941907365
0.37638297872340426 0.42359563042041004 0.45059595669703273
0.37659574468085105 0.43114337585810036 0.44833163306572577
0.37680851063829784 0.43620998651795695 0.4524876157641919
0.3770212765957447 0.44165825943128284 0.456539926002891
0.3772340425531915 0.4473231988428109 0.4591549565268252
0.3774468085106383 0.4518993536749799 0.46067786780387726
0.3776595744680851 0.4557335469941479 0.46144470646771085
0.3778723404255319 0.45843168270007667 0.4622064247658454
0.3780851063829787 0.46069769997423077 0.4629617638572301
0.37829787234042556 0.46273637113650784 0.4637134107066106
0.37851063829787235 0.4634996116276258 0.4644766511977284
0.37872340425531914 0.4622886929786682 0.4652406071012863
0.37893617021276593 0.4590403871480486 0.4638188153369338
0.3791489361702128 0.45463763937877416 0.46203497023150125
0.3793617021276596 0.4504382118858292 0.4634347793958163
0.37957446808510636 0.44469782939911334 0.4622980528553963
0.3797872340425532 0.4382249894428871 0.4629463355496515
0.38 0.4341844367839227 0.46479916244463726
0.3802127659574468 0.43721985708212086 0.46555801751918674
0.3804255319148936 0.43722520762090866 0.46626360045227805
0.38063829787234044 0.4381004433642546 0.4665363947239862
0.38085106382978723 0.4388097473851362 0.46672116441197503
0.381063829787234 0.43729521071605904 0.4674784327465138
0.38127659574468087 0.4352171627281057 0.46483604110368504
0.38148936170212766 0.4330063502389657 0.46188829111816515
0.38170212765957445 0.43244555083425756 0.45926408547968245
0.3819148936170213 0.4362517766982466 0.45775025588794394
0.3821276595744681 0.43701757015399906 0.459281842799449
0.3823404255319149 0.4383430432186921 0.4585792821354847
0.3825531914893617 0.441260074575931 0.4570494426547906
0.3827659574468085 0.44557200445654144 0.4559215795215609
0.3829787234042553 0.4486280744894755 0.4566855970297944
0.3831914893617021 0.4529387248921377 0.45676599902296044
0.38340425531914896 0.4567441418894388 0.45312942205197776
0.38361702127659575 0.46008405620484333 0.4542218187842279
0.38382978723404254 0.4621189831189909 0.4534500282252699
0.38404255319148933 0.46262823644357587 0.4509037616023448
0.3842553191489362 0.4622886807578027 0.4495455388592521
0.384468085106383 0.4603897206583981 0.4472478985649495
0.38468085106382977 0.4561778273268349 0.4478550085528121
0.3848936170212766 0.4519371646065126 0.44699560332193444
0.3851063829787234 0.4528572352436138 0.44699560332193444
0.3853191489361702 0.4528578407425501 0.44608123733150346
0.38553191489361704 0.4520155703927788 0.44770310445137473
0.38574468085106384 0.4511108042773899 0.4464326491019221
0.38595744680851063 0.45231464714069086 0.44672400652100486
0.3861702127659574 0.45608462278869266 0.44376882127579187
0.38638297872340427 0.46065476298651703 0.44269275035011235
0.38659574468085106 0.4636681995124041 0.44204748197269594
0.38680851063829785 0.46780629610020397 0.44159393454652224
0.3870212765957447 0.4706231985256235 0.44370719356917315
0.3872340425531915 0.46980345179236804 0.4450107486776098
0.3874468085106383 0.4690699097655934 0.44336237368928477
0.3876595744680851 0.46449351977610187 0.44385131753607043
0.3878723404255319 0.45975765019386144 0.4429346938566059
0.3880851063829787 0.45447737110569203 0.44202676827715576
0.3882978723404255 0.4510457214006528 0.441168855850896
0.38851063829787236 0.45407609443035907 0.4443056987293333
0.38872340425531915 0.45623275826980614 0.4436206857946784
0.38893617021276594 0.4561152516912235 0.44178595037805024
0.3891489361702128 0.45874638042996163 0.44349930268300203
0.3893617021276596 0.4606741573033708 0.44079131816863415
0.3895744680851064 0.4625476050092763 0.4386302934003378
0.38978723404255317 0.46580150183539176 0.44056272174842
0.39 0.4690477183933618 0.4402127954417553
0.3902127659574468 0.4736618555920377 0.43851805305287017
0.3904255319148936 0.47971594231659864 0.4399567237756869
0.39063829787234045 0.4752513058820913 0.4381238022181928
0.39085106382978724 0.4734183765863637 0.43629087292246543
0.39106382978723403 0.46622180711913697 0.43982510034858985
0.3912765957446808 0.46139862520677966 0.4401563263312165
0.39148936170212767 0.4599019536364573 0.4393841226643028
0.39170212765957446 0.4582703669877865 0.43917928676111373
0.39191489361702125 0.45709032073152134 0.4385265688995721
0.3921276595744681 0.4549890853431028 0.4382022471910112
0.3923404255319149 0.4503268139843625 0.438703399523624
0.3925531914893617 0.4453657973227392 0.4399941897607114
0.39276595744680853 0.44240652315363244 0.4421547487331566
0.3929787234042553 0.44057757410848786 0.4443423805080424
0.3931914893617021 0.43938880945458736 0.4450415241817294
0.3934042553191489 0.43979777193932307 0.445639114834885
0.39361702127659576 0.4374012406623552 0.44998539971272444
0.39382978723404255 0.4401513014210043 0.45090208663227405
0.39404255319148934 0.4392416128679498 0.4509037616023448
0.3942553191489362 0.4408906165034829 0.4568934157006365
0.394468085106383 0.441133365901319 0.45378459951330413
0.3946808510638298 0.44405870966864996 0.4528578407425501
0.39489361702127657 0.44236578265130105 0.45419571150776417
0.3951063829787234 0.4429621437061228 0.45420232728115395
0.3953191489361702 0.44351403016750457 0.45328442586853046
0.395531914893617 0.4445633117500153 0.4528578407425501
0.39574468085106385 0.44558538232764977 0.4545905664392788
0.39595744680851064 0.44429779476193726 0.4578815931526486
0.39617021276595743 0.4449513574470265 0.4593864656656845
0.3963829787234043 0.44894968246213973 0.4591894484429895
0.39659574468085107 0.44894968246213973 0.46054980607245094
0.39680851063829786 0.4488839380700262 0.45969711773326827
0.39702127659574465 0.4479797365154291 0.4597077581683561
0.3972340425531915 0.44982123074388625 0.4624699995110418
0.3974468085106383 0.44992672203224227 0.46262823644357587
0.3976595744680851 0.45073017074196026 0.46021789031442195
0.39787234042553193 0.44960599681868135 0.4603460001251
0.3980851063829787 0.44746095884403153 0.46017791609733477
0.3982978723404255 0.44435341960617053 0.46069620422066504
0.3985106382978723 0.44080981228181826 0.4621968316175749
0.39872340425531916 0.43892861221053303 0.4596885648558613
0.39893617021276595 0.436095149288532 0.4608271760656447
0.39914893617021274 0.4355527260713784 0.45969141640176164
0.3993617021276596 0.43787111940176554 0.4554660035624294
0.3995744680851064 0.43917928676111373 0.45481191988275516
0.3997872340425532 0.4397513177584539 0.4551932738809819
0.4 0.4447553680729265 0.4585293074239636
0.4002127659574468 0.4465553352530883 0.46250460584156317
0.4004255319148936 0.4519699725906412 0.46526339910324754
0.4006382978723404 0.4588043822279554 0.46753216853070895
0.40085106382978725 0.46438377564863675 0.46877203373530474
0.40106382978723404 0.4686698351408821 0.4700457138576906
0.40127659574468083 0.4713035958816409 0.47136259422807014
0.4014893617021277 0.4687102496408464 0.47196386116122985
0.40170212765957447 0.46730194269734854 0.47239863214460187
0.40191489361702126 0.4705713203056798 0.47239863214460187
0.40212765957446805 0.4708874969209234 0.4713304408374502
0.4023404255319149 0.4704445530043966 0.4682279390841256
0.4025531914893617 0.4704888459513345 0.462524886234054
0.4027659574468085 0.4723357938666779 0.45821534109825296
0.40297872340425533 0.4739741806591622 0.4542926870917135
0.4031914893617021 0.47533708173751255 0.4509257542501533
0.4034042553191489 0.4760495096297313 0.4530630379268098
0.40361702127659577 0.47505078950042245 0.4546722142623792
0.40382978723404256 0.4722788588559887 0.4558388145827995
0.40404255319148935 0.4648653413393948 0.4561757926517356
0.40425531914893614 0.4574518238228008 0.45651277072067165
0.404468085106383 0.45014796033152354 0.4564359341008797
0.4046808510638298 0.4431756500347478 0.45510787499673194
0.4048936170212766 0.43620333973797204 0.4537798158925842
0.4051063829787234 0.43110054507686224 0.4524642030574039
0.4053191489361702 0.43024230856985796 0.45117684829689736
0.405531914893617 0.42943506586716007 0.449874372418098
0.4057446808510638 0.4303401860370443 0.44806413207832946
0.40595744680851065 0.4312453062069288 0.4462538917385604
0.40617021276595744 0.43263491553448175 0.4460185637518319
0.40638297872340423 0.4340969186418192 0.4460185637518319
0.4065957446808511 0.4357956027022552 0.4440165453629594
0.40680851063829787 0.4364366532875906 0.44211040547142155
0.40702127659574466 0.43196373573793095 0.44211040547142155
0.4072340425531915 0.42624125420999537 0.44092621220850864
0.4074468085106383 0.4198377737685745 0.4390966463681027
0.4076595744680851 0.4162395648105312 0.4382022471910112
0.4078723404255319 0.4153243348386702 0.4382022471910112
0.40808510638297874 0.41776081217678995 0.4382022471910112
0.4082978723404255 0.42575798361912587 0.4382022471910112
0.4085106382978723 0.43464530288066294 0.44011407838814276
0.40872340425531917 0.4441393218912827 0.44211040547142155
0.40893617021276596 0.45387184313964263 0.44215968924074156
0.40914893617021275 0.4561180451995704 0.44515462532064515
0.40936170212765954 0.45781011483956785 0.443930332118617
0.4095744680851064 0.4581413687849547 0.4412423414041053
0.4097872340425532 0.4570624853581598 0.43880867884211455
0.41 0.46011420362368033 0.43499403101021394
0.4102127659574468 0.4606741573033708 0.4311770494951554
0.4104255319148936 0.46149691813393257 0.42982027147536883
0.4106382978723404 0.4639924157726881 0.42980128234628523
0.41085106382978726 0.46920227333600223 0.42756848624772203
0.41106382978723405 0.46946751343429405 0.4294948055153133
0.41127659574468084 0.4707160136203432 0.43371526445965486
0.41148936170212763 0.47207799831077013 0.43836256410792707
0.4117021276595745 0.4705586464507021 0.43912224003796096
0.41191489361702127 0.47253350111453013 0.439875602797825
0.41212765957446806 0.47049046871890104 0.4387137248333148
0.4123404255319149 0.467513434294089 0.43838784135356834
0.4125531914893617 0.467513434294089 0.4416821604556075
0.4127659574468085 0.467513434294089 0.44331510083033676
0.4129787234042553 0.46786172374285073 0.4444127740603886
0.41319148936170214 0.4674415474163633 0.44477929256977233
0.41340425531914893 0.46133356032819867 0.44325229579773107
0.4136170212765957 0.4593131160204054 0.4458095276074547
0.41382978723404257 0.45825222419501044 0.44793131125824476
0.41404255319148936 0.4569753623284724 0.450229142903124
0.41425531914893615 0.4548550605751337 0.4537917396202741
0.414468085106383 0.4556143258568264 0.45303247433858157
0.4146808510638298 0.4523182479702962 0.45459319648383095
0.4148936170212766 0.4506397535394623 0.4565019909600778
0.4151063829787234 0.45188080117244755 0.45788222075413165
0.4153191489361702 0.45188080117244755 0.4586429781400573
0.415531914893617 0.4559995062514659 0.4587200781631655
0.4157446808510638 0.4572685042053465 0.4587200781631655
0.41595744680851066 0.45571150334761296 0.4584564542443287
0.41617021276595745 0.45256602105742527 0.4576944019788755
0.41638297872340424 0.44835793690321496 0.4569930546198405
0.4165957446808511 0.44547720372424676 0.4577782654214189
0.4168085106382979 0.44292963817398473 0.4595712129913971
0.41702127659574467 0.4401563263312165 0.46150799547080196
0.41723404255319146 0.4401563263312165 0.4599817218280347
0.4174468085106383 0.4425720110394986 0.46150888126447975
0.4176595744680851 0.44442948694067397 0.4640882457597644
0.4178723404255319 0.4450415241817294 0.46668097189314595
0.41808510638297874 0.4450415241817294 0.4675519611997015
0.41829787234042554 0.4450415241817294 0.4684229505062568
0.41851063829787233 0.43744396276361847 0.4694401690414553
0.4187234042553191 0.42921601852838087 0.47039195140484014
0.41893617021276597 0.4213125720686767 0.4682364660067391
0.41914893617021276 0.41666954955071717 0.46701545773452835
0.41936170212765955 0.41367265612638676 0.4659960740329051
0.4195744680851064 0.4109729062173302 0.4644119595981925
0.4197872340425532 0.41324318124602377 0.4613849262266011
0.42 0.41841471366967703 0.4595145433705631
0.42021276595744683 0.4212452092594638 0.4587200781631655
0.4204255319148936 0.42115482301589774 0.4587200781631655
0.4206382978723404 0.42507442680801505 0.4587200781631655
0.4208510638297872 0.42598882719131365 0.46116480395549814
0.42106382978723406 0.42577485021998707 0.4630570411330597
0.42127659574468085 0.4265984090724296 0.4617115152347981
0.42148936170212764 0.42812489005466536 0.46247475572591584
0.4217021276595745 0.42782130265644713 0.46262823644357587
0.4219148936170213 0.42824839627352507 0.4630250286203971
0.4221276595744681 0.4319515942121481 0.46342365435996
0.42234042553191486 0.4425935517764924 0.4626635145339353
0.4225531914893617 0.4532984232483007 0.46335759202977433
0.4227659574468085 0.46451824834806665 0.4641220926353523
0.4229787234042553 0.4743262817916788 0.4639368290910746
0.42319148936170214 0.4814488302513364 0.46315704282039605
0.42340425531914894 0.48749943955267083 0.4650028378332211
0.42361702127659573 0.49111345161920916 0.4607748690651428
0.4238297872340426 0.49384655507927966 0.46259693803852314
0.42404255319148937 0.491445015784418 0.46099591184194877
0.42425531914893616 0.4894918708329805 0.4599389007315856
0.42446808510638295 0.4821395255562473 0.45907268325325923
0.4246808510638298 0.47077655089829396 0.45925467235366013
0.4248936170212766 0.45745957539147986 0.4568480216563477
0.4251063829787234 0.4486835387947432 0.45466366913765205
0.42531914893617023 0.4448964089542621 0.4529900336292947
0.425531914893617 0.4394366982532528 0.446275975243971
0.4257446808510638 0.43443274373843666 0.44085282835802153
0.4259574468085106 0.4312185525025744 0.43538166186449445
0.42617021276595746 0.43013292997901825 0.42996426287823675
0.42638297872340425 0.4273473527860078 0.42544700321274015
0.42659574468085104 0.4236749047126551 0.4236107791760637
0.4268085106382979 0.4235466536394723 0.4244323391073733
0.4270212765957447 0.4243752036927835 0.42452369320957506
0.4272340425531915 0.4237537428035691 0.4306832964576217
0.4274468085106383 0.4256786770163874 0.4344720331473107
0.4276595744680851 0.43040899966735974 0.4398575603512129
0.4278723404255319 0.435935297105776 0.4451064782509051
0.4280851063829787 0.4409095987365754 0.4480785439401602
0.42829787234042555 0.44646442451419444 0.4503969593789985
0.42851063829787234 0.4521907536426069 0.4526354783759024
0.42872340425531913 0.45675524931753675 0.4514191556509555
0.428936170212766 0.46080418189386496 0.4432341864911793
0.42914893617021277 0.4667932559203898 0.4387423809712856
0.42936170212765956 0.4698140662375858 0.4412697564490071
0.42957446808510635 0.4704445530043966 0.43937064303346074
0.4297872340425532 0.47167342944687723 0.4369733707485307
0.43 0.47461030954287275 0.4356952487012383
0.4302127659574468 0.4763067904250122 0.4334327651498453
0.43042553191489363 0.47416764205069173 0.431362970200293
0.4306382978723404 0.4689948293996855 0.43107302547935084
0.4308510638297872 0.46417619546848055 0.4306164572444243
0.43106382978723407 0.45913617520407957 0.4308020276711043
0.43127659574468086 0.4561263876453156 0.42779224011234035
0.43148936170212765 0.4511566489235099 0.42822686367477414
0.43170212765957444 0.448585361307328 0.42977321221489967
0.4319148936170213 0.44745310342483613 0.4298663911629895
0.4321276595744681 0.448767597782077 0.43118088552023043
0.4323404255319149 0.45097830988296994 0.43429408891060084
0.4325531914893617 0.44736990790683057 0.43429408891060084
0.4327659574468085 0.4454667669341275 0.4335296707166974
0.4329787234042553 0.44699710197254766 0.43657634565852865
0.4331914893617021 0.4501380320467822 0.4403676363457562
0.43340425531914895 0.4552335535359238 0.44336768760772516
0.43361702127659574 0.46295934841118763 0.44579434664586465
0.43382978723404253 0.4724531528521529 0.4479726428920372
0.4340425531914894 0.47526856332759637 0.4479726428920372
0.43425531914893617 0.4740750762692584 0.44871654761062174
0.43446808510638296 0.4705395990135127 0.44989504002920355
0.4346808510638298 0.4641364162446612 0.4493532550540845
0.4348936170212766 0.4586774919543079 0.449765383085308
0.4351063829787234 0.4554424066292982 0.4523534513453157
0.4353191489361702 0.4513113276345199 0.4557750009494128
0.43553191489361703 0.448303710988945 0.457743038593063
0.4357446808510638 0.44709387158878927 0.4578413068599178
0.4359574468085106 0.44840605544682016 0.4591534907179487
0.43617021276595747 0.44894968246213973 0.45849143114965146
0.43638297872340426 0.44868066761635966 0.45676599902296044
0.43659574468085105 0.44701808706159263 0.45676599902296044
0.43680851063829784 0.4460185637518319 0.45699078018709854
0.4370212765957447 0.4460185637518319 0.457554406925798
0.4372340425531915 0.44366205909905154 0.4587529691585403
0.4374468085106383 0.44012017512949414 0.46027091943120774
0.4376595744680851 0.43953702250549637 0.4603164215589883
0.4378723404255319 0.4400241661584086 0.45982927790607614
0.4380851063829787 0.4397833437453288 0.4593241351473806
0.43829787234042555 0.4392714999285162 0.458812291330568
