0.0 0.44992672203224227 0.43722520762090866
0.0002127659574468085 0.44884026940394833 0.43722520762090866
0.000425531914893617 0.44837029110023696 0.43722520762090866
0.0006382978723404255 0.45014808965283626 0.43722520762090866
0.000851063829787234 0.4503855605194696 0.43774340870378387
0.0010638297872340426 0.44894968246213973 0.4389437263878466
0.001276595744680851 0.4492417257394164 0.4387863337455646
0.0014893617021276596 0.44953464313357633 0.4405484052298824
0.001702127659574468 0.4484503735214301 0.4421319837827383
0.0019148936170212765 0.4485746565120876 0.4424854314214737
0.002127659574468085 0.44753998582264115 0.44070070883192314
0.002340425531914894 0.45005329178299824 0.4439784369075462
0.002553191489361702 0.450073372146419 0.4442111347258036
0.0027659574468085106 0.4480601490278973 0.44499777111379935
0.0029787234042553193 0.4486417502598955 0.4466876711196902
0.0031914893617021275 0.4454659529924977 0.4432289213117802
0.003404255319148936 0.447742962901283 0.4445238445931351
0.003617021276595745 0.44725598137711947 0.4460185637518319
0.003829787234042553 0.4479726428920372 0.44563751772674104
0.004042553191489362 0.44899410908242227 0.4475951896576921
0.00425531914893617 0.44992672203224227 0.44864742043976824
0.004468085106382979 0.4483920823171913 0.44950728260708817
0.004680851063829788 0.4479726428920372 0.457125881219414
0.004893617021276595 0.4499819435219172 0.45140075500941934
0.005106382978723404 0.45054000693179924 0.45896960839217715
0.005319148936170213 0.45049117066051564 0.45363087597513163
0.005531914893617021 0.4529526853858032 0.45027297485241397
0.00574468085106383 0.45015674881951756 0.45188080117244755
0.005957446808510639 0.448243810673421 0.453292544749885
0.006170212765957446 0.4479726428920372 0.45215752888669136
0.006382978723404255 0.4488633236750714 0.45455284352155023
0.006595744680851064 0.4450657867431864 0.45189899809354034
0.006808510638297872 0.4456614032801158 0.4545787352307163
0.007021276595744681 0.4494150755142822 0.4607204107691884
0.00723404255319149 0.4506906936707159 0.4624403971085306
0.007446808510638298 0.4518804337091268 0.4606741573033708
0.007659574468085106 0.4495033864152717 0.4601204533502388
0.007872340425531916 0.4504976745213301 0.46083902271144395
0.008085106382978723 0.45143144380289746 0.4611235146729208
0.008297872340425531 0.451417245769396 0.46021060190031937
0.00851063829787234 0.45131289465847924 0.46092451690167136
0.008723404255319148 0.45188080117244755 0.4613652367235697
0.008936170212765958 0.4513464186592168 0.4602315002464989
0.009148936170212766 0.4515682921793759 0.4600096267263399
0.009361702127659575 0.4534716029545978 0.4565155141689676
0.009574468085106383 0.45210915675924807 0.4601032683363695
0.00978723404255319 0.45190488778119686 0.46165721852566066
0.01 0.4553201416651801 0.4623469457709692
0.010212765957446808 0.45199352643009294 0.4599150706988179
0.010425531914893617 0.45476321210115045 0.46101607308727327
0.010638297872340425 0.4537911097557555 0.46211783138007606
0.010851063829787235 0.45421166532625 0.46262823644357587
0.011063829787234043 0.4553063451652178 0.46409970129614103
0.01127659574468085 0.4523255690704603 0.4637164679881818
0.01148936170212766 0.45188080117244755 0.4617021778431765
0.011702127659574468 0.45151326452305546 0.46421477893438906
0.011914893617021277 0.44996499158781517 0.4621588514363111
0.012127659574468085 0.45169571273004716 0.4628305240053433
0.012340425531914893 0.44992672203224227 0.4601395011855892
0.012553191489361702 0.4496766540985573 0.45799310652674796
0.01276595744680851 0.44920066178100876 0.4572142022499512
0.01297872340425532 0.4501610912527019 0.4523891023016308
0.013191489361702127 0.4507013036415407 0.4507013036415407
0.013404255319148937 0.4496705631426283 0.4496705631426283
0.013617021276595745 0.44962019291954536 0.4516317242917624
0.013829787234042552 0.451306100910444 0.4543519631743656
0.014042553191489362 0.45188080117244755 0.4509037616023448
0.01425531914893617 0.45139796360375406 0.45074281574611363
0.01446808510638298 0.44916203323604054 0.4505637743539448
0.014680851063829787 0.45056017787008074 0.45317456866146927
0.014893617021276596 0.4506599183356319 0.45302095842144224
0.015106382978723404 0.44990739810186997 0.4494865120731217
0.015319148936170212 0.44988525732393236 0.44750485546114077
0.015531914893617021 0.44781740761885186 0.4487274927875624
0.01574468085106383 0.4464932409341491 0.44945204484992507
0.015957446808510637 0.44907594517293586 0.44775317958671135
0.016170212765957447 0.45011618937638687 0.45134210198939334
0.016382978723404256 0.44965669969758565 0.44597682061029875
0.016595744680851062 0.4478816608904037 0.44930172924474093
0.01680851063829787 0.45067241012498516 0.4497552764937813
0.01702127659574468 0.45188080117244755 0.4496551968062294
0.01723404255319149 0.45023858015347173 0.44664227999429085
0.017446808510638297 0.4480357684577237 0.44696404053909117
0.017659574468085106 0.4461861522269818 0.44520911265687924
0.017872340425531916 0.4460185637518319 0.4450415241817294
0.018085106382978722 0.44631257101566746 0.4448945205498116
0.01829787234042553 0.44746006565042545 0.4432956187492093
0.01851063829787234 0.44639225065554106 0.44150705280502817
0.01872340425531915 0.4460097364346724 0.4416174720277905
0.018936170212765956 0.4462800070883727 0.44484881462124914
0.019148936170212766 0.44699560332193444 0.4432491114313264
0.019361702127659575 0.444355470714211 0.44387049387657074
0.01957446808510638 0.44699560332193444 0.4411940002557142
0.01978723404255319 0.4471387111560913 0.44406448461162684
0.02 0.4476980670873872 0.44406448461162684
0.02021276595744681 0.44699560332193444 0.4436541470961426
0.020425531914893616 0.44590517215130426 0.4419970138708939
0.020638297872340425 0.4450415241817294 0.44589897629145864
0.020851063829787235 0.4450415241817294 0.4479726428920372
0.02106382978723404 0.44788560775211306 0.4470246150352425
0.02127659574468085 0.44612038284377564 0.44905150155408347
0.02148936170212766 0.447230506532067 0.44922201240184473
0.02170212765957447 0.44833859862561853 0.4458977361211904
0.021914893617021276 0.450949586884603 0.4460643890340901
0.022127659574468085 0.45343262576120025 0.4479726428920372
0.022340425531914895 0.45499342136994003 0.4456555607774625
0.0225531914893617 0.45188796005655296 0.4447146511776776
0.02276595744680851 0.45148701908228644 0.4466018212317734
0.02297872340425532 0.45188080117244755 0.44699560332193444
0.023191489361702126 0.4471205824178738 0.4462685219437106
0.023404255319148935 0.4486732773610041 0.44923570927940315
0.023617021276595745 0.4470971753698702 0.4452954543015688
0.023829787234042554 0.44894968246213973 0.4498934152296541
0.02404255319148936 0.4488446601537108 0.4491597270789976
0.02425531914893617 0.4477819474218695 0.45071306613217715
0.02446808510638298 0.4476205019277472 0.45055162063805504
0.024680851063829785 0.4476461892084727 0.45188080117244755
0.024893617021276595 0.44710850885137865 0.45242577372222087
0.025106382978723404 0.44730903986768145 0.4541850467912613
0.025319148936170214 0.45201849148541895 0.45768214169046056
0.02553191489361702 0.4497904508810513 0.45710230639052507
0.02574468085106383 0.44894968246213973 0.4549076339888126
0.02595744680851064 0.44716108468008575 0.46165119687347334
0.026170212765957445 0.4495271208447942 0.4610737584908189
0.026382978723404255 0.45163490126114963 0.4594577778970591
0.026595744680851064 0.4512808944355888 0.4612740640402294
0.026808510638297874 0.45137425112766016 0.4596610572137962
0.02702127659574468 0.45026778790100597 0.4599920255658433
0.02723404255319149 0.4506817810909788 0.4614292163621073
0.0274468085106383 0.4509037616023448 0.4625053442876929
0.027659574468085105 0.4535895494941755 0.4653140243354066
0.027872340425531914 0.4519582117335639 0.461806017995706
0.028085106382978724 0.4509496954671567 0.45717940380626754
0.028297872340425533 0.45188080117244755 0.4644113033693434
0.02851063829787234 0.452166367861041 0.45900564485175904
0.02872340425531915 0.4528578407425501 0.45886765387521655
0.02893617021276596 0.45231287630542755 0.4566531097188179
0.029148936170212764 0.45188080117244755 0.4578249842546739
0.029361702127659574 0.44949200229520647 0.45553501299351085
0.029574468085106383 0.44894968246213973 0.45757901730028744
0.029787234042553193 0.4509037616023448 0.45653516891388335
0.03 0.4505406662559296 0.45437952333227544
0.03021276595744681 0.44968534530892795 0.4565820833112634
0.030425531914893618 0.45316223457062843 0.4563977471090146
0.030638297872340424 0.45340048512979125 0.457743038593063
0.030851063829787233 0.45342440649919247 0.4588761701063479
0.031063829787234043 0.4538348803126526 0.4610926263796328
0.03127659574468085 0.45466302785462115 0.4575104591636304
0.03148936170212766 0.45193335348750907 0.4586850432864578
0.03170212765957447 0.4537891321150191 0.46062840910573727
0.031914893617021274 0.4528578407425501 0.45881836449286606
0.03212765957446809 0.45224319306944616 0.4551192437193072
0.03234042553191489 0.4522229483317464 0.45666841727245894
0.0325531914893617 0.4538348803126526 0.45488072250548844
0.03276595744680851 0.45171967952428704 0.45356290767200524
0.03297872340425532 0.45174054774879085 0.45216130801976095
0.033191489361702124 0.4509099401679927 0.45479338418581144
0.03340425531914894 0.4535873410317578 0.45749549931216815
0.03361702127659574 0.45060300921728574 0.45655563462595494
0.033829787234042556 0.4477669914400192 0.4583343841041232
0.03404255319148936 0.44997977587186455 0.45671294518333816
0.03425531914893617 0.4497041206680676 0.45518913898571917
0.03446808510638298 0.44894968246213973 0.45691616411711494
0.03468085106382979 0.449759540998874 0.45531346298286
0.03489361702127659 0.44898881777039445 0.4510603028353636
0.035106382978723406 0.44815806143172443 0.45904815284436296
0.03531914893617021 0.44992672203224227 0.45240563071930406
0.03553191489361702 0.45062867877350116 0.4512547399729743
0.03574468085106383 0.4500082327895398 0.44954009069381273
0.03595744680851064 0.4479726428920372 0.44699560332193444
0.036170212765957444 0.4491157717012058 0.4475671677265189
0.036382978723404256 0.44932916984979765 0.44677753852714785
0.03659574468085106 0.4502147636550132 0.4441209419625216
0.03680851063829787 0.44877649454677687 0.4473419791526602
0.03702127659574468 0.4519695104164813 0.447350935452362
0.03723404255319149 0.4511445769210416 0.44870886714344294
0.0374468085106383 0.45181671843732973 0.44803672562715496
0.03765957446808511 0.449059599775005 0.44789936468346037
0.03787234042553191 0.45417410610304765 0.4444289496286026
0.038085106382978726 0.44864675057204434 0.4476355890520336
0.03829787234042553 0.4513840305684192 0.4467637196578744
0.03851063829787234 0.4493922357839607 0.4494841687104213
0.03872340425531915 0.44842134036138503 0.45045506413299696
0.03893617021276596 0.44924906118673286 0.44849790856513344
0.03914893617021276 0.44764018196456884 0.447962471285886
0.039361702127659576 0.4480877051566068 0.4482027674211765
0.03957446808510638 0.4480201753272154 0.4455062777491915
0.03978723404255319 0.45075398707721714 0.4456429590534218
0.04 0.4476673747801146 0.44461408828772103
0.04021276595744681 0.4468162881777696 0.44326676018568895
0.04042553191489362 0.44521136352833035 0.44130320524792
0.040638297872340426 0.4469988858509747 0.4391803809374605
0.04085106382978723 0.4497572229745604 0.43998682727353455
0.041063829787234045 0.4478486521313084 0.4383262379517399
0.04127659574468085 0.4470868213213355 0.43917928676111373
0.04148936170212766 0.4476807505889666 0.4392765841954706
0.04170212765957447 0.4454653067042688 0.44036821759248623
0.041914893617021276 0.44894968246213973 0.44211040547142155
0.04212765957446808 0.44875514792462073 0.442207672740181
0.042340425531914895 0.4481093832955906 0.44290181504591475
0.0425531914893617 0.4516691093948945 0.4432991368190771
0.04276595744680851 0.4501988100099346 0.4463308456387806
0.04297872340425532 0.4528578407425501 0.4467811596070934
0.043191489361702126 0.4514491563660789 0.4465820375024204
0.04340425531914894 0.4485776576600572 0.4479726428920372
0.043617021276595745 0.44948715828482083 0.4488517703868802
0.04382978723404255 0.44783800952493824 0.45107300096985387
0.044042553191489364 0.4472025698316241 0.44674294653574576
0.04425531914893617 0.44886515038437574 0.4525619784703761
0.044468085106382976 0.44647406967078385 0.4503822279511942
0.04468085106382979 0.4483087378618907 0.4506901134022618
0.044893617021276595 0.44613290009014506 0.4530163483813408
0.0451063829787234 0.4463245533186872 0.4531933657441737
0.045319148936170214 0.4475640033363981 0.4545630407859409
0.04553191489361702 0.447487424785208 0.4553037413460287
0.045744680851063826 0.44784603261146516 0.45523713452752057
0.04595744680851064 0.4493457748939963 0.45737332918028434
0.046170212765957445 0.449564494420332 0.45861043489753733
0.04638297872340425 0.4507582745315112 0.45785115426458334
0.046595744680851064 0.4521121861628746 0.45840509712093475
0.04680851063829787 0.4524328582772103 0.45626477177396685
0.047021276595744683 0.45178966091962336 0.45679637910723514
0.04723404255319149 0.4504516230004402 0.4547391575164621
0.047446808510638296 0.4509744116525098 0.4545999697322607
0.04765957446808511 0.44956257911867276 0.45665060985235434
0.047872340425531915 0.44894968246213973 0.4551081513001353
0.04808510638297872 0.448801800401183 0.4560847235747713
0.048297872340425534 0.44800890823201517 0.4578155692730189
0.04851063829787234 0.44894968246213973 0.45998238955257553
0.048723404255319146 0.44869966651216975 0.4623782204936059
0.04893617021276596 0.44702321723437355 0.4607155781720295
0.049148936170212765 0.4489250932991769 0.4635683922692344
0.04936170212765957 0.44992672203224227 0.4626660694436465
0.049574468085106384 0.44992672203224227 0.46450004982453613
0.04978723404255319 0.4489933819125898 0.4617822952248236
0.05 0.4470985210149923 0.46165119687347334
0.05021276595744681 0.44603225395843954 0.46261454623696824
0.050425531914893615 0.4499831207303941 0.4615383994771697
0.05063829787234043 0.45061878871130645 0.4592696583967107
0.050851063829787234 0.4491548771960243 0.45738158322461425
0.05106382978723404 0.44992672203224227 0.45909898280129235
0.05127659574468085 0.4507775393207072 0.45604140401613324
0.05148936170212766 0.45080816959215425 0.45544382768309255
0.051702127659574465 0.44928211036683635 0.45676599902296044
0.05191489361702128 0.4512664077863042 0.455993757248239
0.052127659574468084 0.44950452377707295 0.4518284971272335
0.05234042553191489 0.451641306173276 0.4544925932171931
0.0525531914893617 0.4490038491011656 0.45378071367362677
0.05276595744680851 0.4504077731941856 0.4528578407425501
0.05297872340425532 0.4531739438399022 0.4528578407425501
0.05319148936170213 0.45366333902862577 0.45199640510195305
0.053404255319148934 0.4517340926307723 0.45117221857488343
0.05361702127659575 0.4544713302653429 0.45232001090161916
0.05382978723404255 0.4544603169002322 0.45188080117244755
0.05404255319148936 0.4530397074348852 0.45188080117244755
0.05425531914893617 0.45007958229074013 0.45188080117244755
0.05446808510638298 0.4503345207635586 0.4478910831457739
0.054680851063829784 0.4533228587500821 0.44742104935984106
0.0548936170212766 0.44832021345200973 0.44929725302211226
0.0551063829787234 0.44801480939523136 0.4485244124318798
0.05531914893617021 0.44871111214144854 0.4475674395951059
0.05553191489361702 0.44992672203224227 0.4479726428920372
0.05574468085106383 0.44992672203224227 0.4479726428920372
0.055957446808510634 0.45086754192499007 0.4479726428920372
0.05617021276595745 0.4509037616023448 0.4479726428920372
0.05638297872340425 0.4553922878268188 0.447906530954364
0.056595744680851066 0.45012479752091883 0.44699560332193444
0.05680851063829787 0.4505794811566516 0.44667132287624123
0.05702127659574468 0.44992672203224227 0.4451304822033971
0.05723404255319149 0.4504946539651926 0.44236068881277557
0.0574468085106383 0.4509037616023448 0.4418323178521914
0.057659574468085104 0.4500756074095489 0.44211040547142155
0.05787234042553192 0.45185608358168616 0.44211040547142155
0.05808510638297872 0.4510141798388889 0.4452623606548176
0.05829787234042553 0.4513023080786223 0.44622427919683416
0.05851063829787234 0.44894968246213973 0.4436005649612381
0.05872340425531915 0.44833726001553925 0.4462663690749302
0.058936170212765954 0.44699560332193444 0.44608216771928777
0.05914893617021277 0.44699560332193444 0.44370871087029046
0.05936170212765957 0.44897138229866174 0.44635871016621415
0.059574468085106386 0.4492658449765155 0.44501297215475416
0.05978723404255319 0.44967481751546146 0.44696502482491385
0.06 0.45077905060809276 0.4479726428920372
0.06021276595744681 0.4526551183346431 0.4479726428920372
0.06042553191489362 0.4499532899957246 0.443998064702921
0.06063829787234042 0.45175186208224727 0.4395016344866145
0.060851063829787236 0.44993381036364316 0.43625171221650655
0.06106382978723404 0.4513617785344659 0.43722520762090866
0.06127659574468085 0.44746645840240823 0.4374782998657231
0.06148936170212766 0.4462067820217454 0.4382022471910112
0.06170212765957447 0.44677968671463064 0.4382022471910112
0.06191489361702127 0.44735259140751593 0.4382022471910112
0.062127659574468086 0.4479254961004012 0.4382022471910112
0.06234042553191489 0.4487608583257863 0.4397786780585096
0.0625531914893617 0.448234174080387 0.4415873430947219
0.0627659574468085 0.4479726428920372 0.4407913222901647
0.06297872340425532 0.4479726428920372 0.44079105138899694
0.06319148936170213 0.4486510559809849 0.4404549528123713
0.06340425531914894 0.44894968246213973 0.44327171893483736
0.06361702127659574 0.44676318795777753 0.446979810617443
0.06382978723404255 0.44522432238590554 0.44956112562388995
0.06404255319148935 0.4450415241817294 0.44529812550594344
0.06425531914893617 0.4498431992948853 0.4450415241817294
0.06446808510638298 0.44884706846527145 0.44874445446840316
0.06468085106382979 0.44773554251790276 0.44699560332193444
0.06489361702127659 0.44736105604779197 0.44882286695122176
0.0651063829787234 0.4479726428920372 0.450419368020624
0.06531914893617022 0.4479726428920372 0.4501860655912279
0.06553191489361702 0.4487226726932107 0.4509037616023448
0.06574468085106383 0.4471812777210025 0.4509037616023448
0.06595744680851064 0.44886525377247805 0.45103040463683736
0.06617021276595744 0.44699560332193444 0.4533103844651947
0.06638297872340425 0.4476124421849851 0.45152060046539544
0.06659574468085107 0.45028416797186255 0.4541923262522729
0.06680851063829787 0.4495710981886517 0.45636638519880685
0.06702127659574468 0.4486825110162186 0.45676599902296044
0.06723404255319149 0.4472634781588967 0.45507979471971743
0.06744680851063829 0.44992667588086427 0.457743015517374
0.06765957446808511 0.4484270469643666 0.4568796000410428
0.06787234042553192 0.450903980142041 0.4582314491082663
0.06808510638297872 0.44834052206586766 0.45932923855943775
0.06829787234042553 0.4494484355344903 0.4587200781631655
0.06851063829787234 0.4480324287492164 0.4599829403518495
0.06872340425531914 0.45078019456838553 0.45916032080479036
0.06893617021276596 0.45268867485663494 0.4587200781631655
0.06914893617021277 0.45103667284849913 0.4596306621101911
0.06936170212765957 0.4482842730081602 0.46158887085024874
0.06957446808510638 0.4530483911259477 0.46105525807016606
0.06978723404255319 0.4531874951899058 0.46295192900494936
0.06999999999999999 0.452335719398563 0.4631503577875631
0.07021276595744681 0.45343917436201875 0.4637909036825133
0.07042553191489362 0.4524463790155331 0.4638880649352214
0.07063829787234042 0.4535181453459585 0.4636052760136786
0.07085106382978723 0.4519350751043738 0.45980566559712077
0.07106382978723404 0.4524333746072859 0.4631808098784144
0.07127659574468086 0.44942787866039635 0.4601753139315249
0.07148936170212766 0.4509037616023448 0.4613091023193547
0.07170212765957447 0.4509037616023448 0.4603055088736763
0.07191489361702127 0.450090509415479 0.46010374382670116
0.07212765957446808 0.4494858699836469 0.46281890738939974
0.07234042553191489 0.4512601136213608 0.4625822282001035
0.0725531914893617 0.45029791803414027 0.4640255215809342
0.07276595744680851 0.45268569778681955 0.4581447054897676
0.07297872340425532 0.4520049626007622 0.45670391830880314
0.07319148936170213 0.45312745089202566 0.4559658168080146
0.07340425531914893 0.450936314385076 0.45676599902296044
0.07361702127659574 0.4534526466253737 0.45523706427384464
0.07382978723404256 0.45183019213551545 0.45542696226013646
0.07404255319148936 0.4515483044598386 0.45645395287807566
0.07425531914893617 0.4496619998357132 0.456528559898436
0.07446808510638298 0.44974365605089983 0.4583539462004806
0.07468085106382978 0.4491592686789838 0.4587200781631655
0.0748936170212766 0.45043269355395665 0.45649556152544013
0.07510638297872341 0.45024847996031514 0.4538231145267688
0.07531914893617021 0.4560633936598678 0.44978950492873737
0.07553191489361702 0.45514417345280295 0.4479726428920372
0.07574468085106383 0.4536625914112009 0.44856657297162167
0.07595744680851063 0.4505437829740738 0.4496610386135866
0.07617021276595745 0.45145424691631075 0.45159643166835634
0.07638297872340426 0.45188080117244755 0.4499473889822926
0.07659574468085106 0.4537145104670787 0.44907005230771363
0.07680851063829787 0.4526050117564976 0.45093803797645227
0.07702127659574468 0.45072990859371537 0.4523003568743431
0.0772340425531915 0.45166840453254103 0.44947360168717543
0.0774468085106383 0.4553229487889838 0.44792762464968267
0.07765957446808511 0.45387616684839505 0.44699560332193444
0.07787234042553191 0.4543939887425782 0.44776367732194866
0.07808510638297872 0.4530117979767646 0.44527246003305115
0.07829787234042553 0.45829386291255275 0.44287433741621773
0.07851063829787235 0.4509037616023448 0.43917928676111373
0.07872340425531915 0.4509037616023448 0.43917928676111373
0.07893617021276596 0.451799486704501 0.4396271493121919
0.07914893617021276 0.4528578407425501 0.4401563263312165
0.07936170212765957 0.4528578407425501 0.4408682568892197
0.07957446808510638 0.45131575538940494 0.441133365901319
0.0797872340425532 0.4509037616023448 0.4403948579032844
0.08 0.45008767517896786 0.4409724127545934
0.08021276595744681 0.45181265414127547 0.4420763319558355
0.08042553191489361 0.4512925263311748 0.44240454289205794
0.08063829787234042 0.4473943897203638 0.44458291552555207
0.08085106382978724 0.4515209839561506 0.44380707947411796
0.08106382978723405 0.4499297794655136 0.44406754204489807
0.08127659574468085 0.4507997821851457 0.44370414494919286
0.08148936170212766 0.4511301711871901 0.441812594655855
0.08170212765957446 0.4526667873648507 0.44377790454507776
0.08191489361702127 0.4518052739220179 0.44699560332193444
0.08212765957446809 0.45009594247664586 0.44699560332193444
0.0823404255319149 0.4509037616023448 0.4481969955320761
0.0825531914893617 0.4500377675204335 0.4509037616023448
0.08276595744680851 0.45008130994669154 0.45033794786006887
0.08297872340425531 0.4516004135887654 0.44783676607298084
0.08319148936170212 0.44775776836862236 0.4453463902004045
0.08340425531914894 0.44987083573788633 0.4488751674029985
0.08361702127659575 0.4460644060837166 0.44411032694351155
0.08382978723404255 0.44717119747784484 0.44486593002581903
0.08404255319148936 0.4467418772900226 0.44406448461162684
0.08425531914893616 0.44494350048377906 0.44406448461162684
0.08446808510638298 0.44486911724340517 0.44348976135741336
0.08468085106382979 0.4433543975799806 0.442377358009878
0.0848936170212766 0.44646279265268757 0.4446419161797942
0.0851063829787234 0.45187272599865125 0.4479677977877594
0.08531914893617021 0.44699560332193444 0.4474736216306851
0.08553191489361701 0.447179517663574 0.45108767594398436
0.08574468085106383 0.4476834124914631 0.4513023403712994
0.08595744680851064 0.4481837099783145 0.4503227575843689
0.08617021276595745 0.44992672203224227 0.4529022411314034
0.08638297872340425 0.45054771007829003 0.4554329079288031
0.08659574468085106 0.4501559761409995 0.45728453037554856
0.08680851063829788 0.4516847758168809 0.457743038593063
0.08702127659574468 0.45000130776436553 0.45781762432518625
0.08723404255319149 0.4517099345571476 0.4595262511179683
0.0874468085106383 0.4517906744532885 0.45901571578014677
0.0876595744680851 0.4523897079989116 0.45933582465483297
0.08787234042553191 0.45072043870108935 0.4595137948320126
0.08808510638297873 0.45240111320784127 0.45859290916179585
0.08829787234042553 0.45155696227354136 0.458066877491969
0.08851063829787234 0.45637782011945655 0.4602840948823404
0.08872340425531915 0.4559109985728212 0.45792609727300787
0.08893617021276595 0.4539079115553194 0.45969711773326827
0.08914893617021276 0.45481191988275516 0.46091886581261954
0.08936170212765958 0.45414075241383894 0.46421702021605116
0.08957446808510638 0.4533242382686895 0.4611847993473339
0.08978723404255319 0.4509169355717765 0.4618413351997212
0.09 0.452391688150961 0.4660702421323973
0.0902127659574468 0.4514637983805533 0.4667230736500558
0.09042553191489362 0.4499983006680706 0.46472547285543786
0.09063829787234043 0.4512005820736391 0.46354591191941974
0.09085106382978723 0.45443609917033956 0.46262823644357587
0.09106382978723404 0.4502466612354622 0.4619797470569147
0.09127659574468085 0.4524021911496919 0.4606741573033708
0.09148936170212765 0.4501281829326329 0.46008995122343266
0.09170212765957447 0.45106523708668644 0.4632230421075127
0.09191489361702128 0.44855509695933893 0.4604251853173954
0.09212765957446808 0.4498920387260585 0.45969711773326827
0.09234042553191489 0.4517706728581623 0.4630546344422524
0.0925531914893617 0.4504153488244722 0.4594526973299744
0.0927659574468085 0.4500785214772007 0.45976979851503846
0.09297872340425532 0.450864739198651 0.4582900919836552
0.09319148936170213 0.44928525700500704 0.45777272265156244
0.09340425531914893 0.4511459079377856 0.457498074181509
0.09361702127659574 0.45188080117244755 0.457743038593063
0.09382978723404255 0.4499202032817425 0.45481191988275516
0.09404255319148937 0.44853064643138657 0.4545325625289197
0.09425531914893617 0.4462902125976405 0.45340113843416735
0.09446808510638298 0.44659390658160975 0.45521361662307996
0.09468085106382979 0.44708706663225456 0.4536519536920127
0.09489361702127659 0.4473057039497847 0.45188080117244755
0.0951063829787234 0.44779374696537794 0.45188080117244755
0.09531914893617022 0.4498337370357715 0.44908915995684584
0.09553191489361702 0.4479749130967672 0.44894968246213973
0.09574468085106383 0.4491854942700702 0.45262202893461956
0.09595744680851064 0.4509037616023448 0.4509037616023448
0.09617021276595744 0.45128117844817367 0.45203601213983124
0.09638297872340426 0.453917157919971 0.45128943437824837
0.09659574468085107 0.454508922578109 0.44894968246213973
0.09680851063829787 0.4538348803126526 0.44894968246213973
0.09702127659574468 0.45474004198247425 0.44985484413196136
0.09723404255319149 0.45291437454530387 0.4480857104975448
0.09744680851063829 0.4529140910843751 0.44992672203224227
0.09765957446808511 0.44983845919583176 0.44992672203224227
0.09787234042553192 0.45188080117244755 0.44992672203224227
0.09808510638297872 0.4513993233725142 0.449445244232309
0.09829787234042553 0.4509037616023448 0.4477327240799998
0.09851063829787234 0.44794634723722077 0.4492136640957775
0.09872340425531914 0.45047944711307925 0.4525396048756009
0.09893617021276596 0.4488949548215764 0.4470229671422161
0.09914893617021277 0.4474733567236003 0.4479726428920372
0.09936170212765957 0.44992672203224227 0.44856040276113346
0.09957446808510638 0.4495345239303263 0.4491423258284103
0.09978723404255319 0.4498915015912551 0.4470308237629217
0.1 0.4491011593717055 0.44481682893140573
0.10021276595744681 0.4479726428920372 0.44406448461162684
0.10042553191489362 0.44883387606730485 0.443203251436359
0.10063829787234042 0.4470113652919927 0.4421182864564507
0.10085106382978723 0.45102388206407296 0.44370412322644237
0.10106382978723404 0.4531234458674149 0.441133365901319
0.10127659574468086 0.45386888810533627 0.441133365901319
0.10148936170212766 0.44894968246213973 0.44205980035166603
0.10170212765957447 0.44894968246213973 0.4430874450415241
0.10191489361702127 0.44894968246213973 0.4430874450415241
0.10212765957446808 0.4498042575205755 0.4422328699830883
0.10234042553191489 0.4479669978560131 0.44405883957560277
0.1025531914893617 0.44737660052868616 0.4433414431793586
0.10276595744680851 0.45095483308842954 0.4447844964176826
0.10297872340425532 0.4522802312313731 0.4444531468819467
0.10319148936170212 0.4488863860224759 0.44556169218661257
0.10340425531914893 0.45057977658483667 0.4453667803286321
0.10361702127659575 0.44878861680508264 0.4450415241817294
0.10382978723404256 0.4488713464770304 0.4450415241817294
0.10404255319148936 0.4487861742721578 0.4451505296417173
0.10425531914893617 0.4465777784685721 0.4468091984163544
0.10446808510638297 0.44894968246213973 0.44442045098437766
0.10468085106382978 0.4498570867827423 0.44340187670282555
0.1048936170212766 0.4503178478950153 0.4477763048738206
0.1051063829787234 0.4492082514184356 0.4432019175516863
0.10531914893617021 0.44894968246213973 0.4470950610564233
0.10553191489361702 0.45186706303634927 0.44797951196008634
0.10574468085106382 0.4497853590444777 0.4492324084376689
0.10595744680851064 0.44919067314598726 0.4516267336538875
0.10617021276595745 0.45047996255271167 0.4530050195319485
0.10638297872340426 0.45148326851789083 0.45209635956601474
0.10659574468085106 0.4524972498008537 0.45330371757981636
0.10680851063829787 0.45117552245700443 0.45418751967037413
0.10702127659574467 0.44992672203224227 0.45640431301690126
0.1072340425531915 0.4545849963716652 0.45490268928719113
0.1074468085106383 0.4491157265924706 0.4679093194080333
0.1076595744680851 0.4512169978270476 0.4610247244240677
0.10787234042553191 0.4525706815131973 0.457743038593063
0.10808510638297872 0.4506301038678937 0.45649234128850913
0.10829787234042552 0.4505945258748086 0.45700504443298023
0.10851063829787234 0.4512020448454973 0.4587200781631655
0.10872340425531915 0.4492834682319791 0.46196066490389703
0.10893617021276596 0.45177664291510605 0.45885895583962083
0.10914893617021276 0.45324754441904386 0.4587200781631655
0.10936170212765957 0.4558958720701521 0.4585025464249634
0.10957446808510639 0.45254601728444327 0.45867850896738355
0.1097872340425532 0.45188080117244755 0.4606741573033708
0.11 0.45134369160890536 0.4601370477398287
0.1102127659574468 0.45289248716743646 0.45969711773326827
0.11042553191489361 0.4538348803126526 0.4628593264003018
0.11063829787234042 0.45475617842663274 0.4636052760136786
0.11085106382978724 0.45368105521879803 0.4624744113497213
0.11106382978723404 0.45270942912225104 0.4610884712782725
0.11127659574468085 0.4547806242504854 0.4629643481777001
0.11148936170212766 0.45417532735151744 0.46228778940471127
0.11170212765957446 0.45472421544232006 0.45960941329283295
0.11191489361702127 0.4538348803126526 0.4580620528254375
0.11212765957446809 0.4530506335375161 0.45931153214333614
0.1123404255319149 0.4537705598339437 0.45969711773326827
0.1125531914893617 0.45313034262475865 0.45565270851175366
0.1127659574468085 0.4551768313993163 0.4544308181715192
0.11297872340425531 0.44960663296848263 0.4561090485166175
0.11319148936170213 0.4509037616023448 0.45481191988275516
0.11340425531914894 0.4520857541734349 0.4524479347405751
0.11361702127659574 0.4514078831173591 0.4552536344779177
0.11382978723404255 0.45261835869766454 0.4541941033799809
0.11404255319148936 0.44992672203224227 0.4557254962803736
0.11425531914893616 0.44992672203224227 0.4507807952360049
0.11446808510638298 0.44992672203224227 0.4555155999678151
0.11468085106382979 0.45074010601418 0.45440522789178633
0.1148936170212766 0.454035259067087 0.45275765136533297
0.1151063829787234 0.4531069636996413 0.45188080117244755
0.11531914893617021 0.4510802271706551 0.44947907916707064
0.11553191489361703 0.45182650172546074 0.4471042022159081
0.11574468085106383 0.4490202099368937 0.4497856670827344
0.11595744680851064 0.450124536697144 0.44777482822713544
0.11617021276595745 0.4509037616023448 0.446670905900596
0.11638297872340425 0.4509037616023448 0.4451055528540041
0.11659574468085106 0.45148999304792187 0.44406448461162684
0.11680851063829788 0.4533146818436892 0.4454983652828685
0.11702127659574468 0.4538348803126526 0.44517099313853803
0.11723404255319149 0.44895265233298215 0.44796818808577354
0.1174468085106383 0.4512649419489713 0.44516191763060486
0.1176595744680851 0.4536590633406347 0.445842746779814
0.11787234042553191 0.4522515128016232 0.4453446881521928
0.11808510638297873 0.4504922520924425 0.4460185637518319
0.11829787234042553 0.4509773516138792 0.4460185637518319
0.11851063829787234 0.45056770709909894 0.4453620167151577
0.11872340425531915 0.44992672203224227 0.4489873237003835
0.11893617021276595 0.44992672203224227 0.4453249834451365
0.11914893617021277 0.4479726428920372 0.4400828989331527
0.11936170212765958 0.4477805635762328 0.4395634453927224
0.11957446808510638 0.4475193300053671 0.4406096392178864
0.11978723404255319 0.44894968246213973 0.43917928676111373
0.12 0.4479383809603944 0.44019058826285906
0.1202127659574468 0.4476352039152066 0.4430521676811353
0.12042553191489362 0.4479726428920372 0.4432925708520698
0.12063829787234043 0.4443575485867771 0.44399121861783925
0.12085106382978723 0.44791617890148877 0.4412462938824158
0.12106382978723404 0.44699560332193444 0.4436559934603074
0.12127659574468085 0.4479638583861752 0.4456958120637517
0.12148936170212765 0.44901632622957927 0.44413112837906626
0.12170212765957447 0.4474062588257765 0.4470521335053481
0.12191489361702128 0.44631458083599596 0.4444785421447341
0.12212765957446808 0.4492650790098763 0.44129877665691053
0.12234042553191489 0.4442673526347703 0.442076594134231
0.1225531914893617 0.4453413049565165 0.44191055162156345
0.12276595744680852 0.4479726428920372 0.4401563263312165
0.12297872340425532 0.4461531696562224 0.44088411562554236
0.12319148936170213 0.4450858416700554 0.440611608000023
0.12340425531914893 0.44636228455708016 0.441712561820531
0.12361702127659574 0.4445440968083148 0.441612978098007
0.12382978723404255 0.4507562909342591 0.4478251722239513
0.12404255319148937 0.4443016327394265 0.44326530613737386
0.12425531914893617 0.44421963432583195 0.44715075303613955
0.12446808510638298 0.4458404695299135 0.4491277766840581
0.12468085106382978 0.4450415241817294 0.4504867523628222
0.12489361702127659 0.4462144542919599 0.45148982446903735
0.1251063829787234 0.4469669362920021 0.4509037616023448
0.12531914893617022 0.4466188701592782 0.4515040680097912
0.125531914893617 0.4481826838821585 0.45188080117244755
0.12574468085106383 0.4483815633521163 0.4541532776125413
0.12595744680851065 0.4485376623994977 0.45691899846777895
0.12617021276595744 0.44894968246213973 0.4559922820029106
0.12638297872340426 0.4464076453307737 0.45481191988275516
0.12659574468085105 0.4464562351870179 0.45198249787217804
0.12680851063829787 0.44699560332193444 0.45318919590415574
0.1270212765957447 0.4478180765558804 0.45712477324843603
0.12723404255319148 0.44706909221977575 0.45683948792080176
0.1274468085106383 0.44896626726987054 0.45876983258635795
0.1276595744680851 0.4501426877162823 0.4615792083121267
0.12787234042553192 0.4529969458486299 0.460535052197291
0.1280851063829787 0.4539974603206873 0.45937195771719896
0.12829787234042553 0.45420155317061744 0.457743038593063
0.12851063829787235 0.45139768276918596 0.457743038593063
0.12872340425531914 0.4493548744472346 0.4571711910080553
0.12893617021276596 0.448307117311324 0.45545448503357105
0.12914893617021275 0.4485791123860165 0.45407077973050874
0.12936170212765957 0.44838797573159594 0.4528578407425501
0.1295744680851064 0.4496778016253583 0.4532219003241594
0.12978723404255318 0.4509037616023448 0.4538348803126526
0.13 0.45065103264838763 0.45358215135869545
0.1302127659574468 0.4505999677405211 0.4528578407425501
0.13042553191489362 0.4510272562723537 0.453284613192597
0.13063829787234044 0.451520019858301 0.4533037810372998
0.13085106382978723 0.4515983364366578 0.4528578407425501
0.13106382978723405 0.4509037616023448 0.45631980523958626
0.13127659574468084 0.4509037616023448 0.457743038593063
0.13148936170212766 0.4509037616023448 0.4555367341615534
0.13170212765957448 0.4516473635000633 0.4577863274736287
0.13191489361702127 0.4534528734425103 0.45793404202813415
0.1321276595744681 0.4530142297784953 0.4585636891272203
0.13234042553191488 0.4536055513474326 0.454981525138753
0.1325531914893617 0.4538348803126526 0.45519035515381673
0.1327659574468085 0.45111085399696704 0.454426946295015
0.13297872340425532 0.4541664798088512 0.45524813290485566
0.13319148936170214 0.450884010391019 0.4536868384263555
0.13340425531914893 0.44894968246213973 0.45572018621154986
0.13361702127659575 0.44819196754146323 0.4552505691816073
0.13382978723404254 0.4479726428920372 0.4515918506926964
0.13404255319148936 0.44881917171147206 0.4542898768800845
0.13425531914893618 0.4496517207315815 0.452003766804988
0.13446808510638297 0.446978663430331 0.4485453147208157
0.1346808510638298 0.44636934512623205 0.4492086382294389
0.13489361702127659 0.4477380424363903 0.4509423993498601
0.1351063829787234 0.44700111005321574 0.4479671361607559
0.13531914893617022 0.44880647679994434 0.4461617694140273
0.13553191489361702 0.4513992076379488 0.44438554696795934
0.13574468085106384 0.44972584074469935 0.4447828047542095
0.13595744680851063 0.44894968246213973 0.4462433186122168
0.13617021276595745 0.44847140767170696 0.44699560332193444
0.13638297872340424 0.4490496027319469 0.44555965686872145
0.13659574468085106 0.44968172877815316 0.4430874450415241
0.13680851063829788 0.4462828990222204 0.44321961267671833
0.13702127659574467 0.44797225856111234 0.4440642924461644
0.1372340425531915 0.4471353407354932 0.4457390889247145
0.13744680851063829 0.44816836248373726 0.44425942500912774
0.1376595744680851 0.4478494338961039 0.44492119265158386
0.13787234042553193 0.4467275378185888 0.4479726428920372
0.13808510638297872 0.44945854377328137 0.4479726428920372
0.13829787234042554 0.44922106007745627 0.446561318982465
0.13851063829787233 0.4483265160482671 0.4460185637518319
0.13872340425531915 0.44855902421928573 0.44895047038807473
0.13893617021276597 0.4479016017144239 0.44985568085462907
0.13914893617021276 0.44699560332193444 0.4474461161298802
0.13936170212765958 0.4475871009704838 0.44533727300600406
0.13957446808510637 0.4502937319193978 0.44669058848046095
0.1397872340425532 0.4509037616023448 0.4490906974526309
0.13999999999999999 0.45144897971898196 0.45144897971898196
0.1402127659574468 0.4518895309406646 0.4520278609123625
0.14042553191489363 0.4468112819798058 0.4472928726574246
0.14063829787234042 0.4533169702702378 0.44940881198982746
0.14085106382978724 0.44894968246213973 0.44520857098322375
0.14106382978723403 0.44859649270260177 0.4465483483911388
0.14127659574468085 0.4473176170355486 0.44862766874852555
0.14148936170212767 0.44876231471620176 0.44755770655974847
0.14170212765957446 0.44709208451597954 0.4487526441974988
0.14191489361702128 0.44587348102720703 0.44518660690635425
0.14212765957446807 0.44971756158743836 0.44569765957092905
0.1423404255319149 0.45053651531381733 0.44632346039261944
0.1425531914893617 0.4483263042218556 0.44441814594144524
0.1427659574468085 0.4507586568871308 0.4459218272750226
0.14297872340425533 0.4509037616023448 0.4442939869260611
0.14319148936170212 0.44996559767445066 0.44969346817899175
0.14340425531914894 0.4496842361506411 0.4496842361506411
0.14361702127659573 0.44699560332193444 0.44699560332193444
0.14382978723404255 0.4467191874497176 0.44644277157750084
0.14404255319148937 0.4460185637518319 0.4446917796919608
0.14425531914893616 0.4460185637518319 0.442913247009602
0.14446808510638298 0.44550963376031794 0.44062443590980505
0.14468085106382977 0.44377270055468665 0.44205956177178035
0.1448936170212766 0.4476547205753217 0.4430874450415241
0.1451063829787234 0.44448872644738124 0.44130306263562075
0.1453191489361702 0.44780055347740466 0.44126243296229345
0.14553191489361703 0.44423993689758334 0.4435381277537573
0.14574468085106382 0.4450415241817294 0.4420482371532755
0.14595744680851064 0.4446082400569445 0.44579762111076654
0.14617021276595746 0.4451799957255949 0.4479726428920372
0.14638297872340425 0.44466770815837087 0.44999892628222876
0.14659574468085107 0.4464646836769542 0.4493036288921266
0.14680851063829786 0.4460662866105942 0.44987899917347995
0.14702127659574468 0.4515468572504947 0.4528578407425501
0.14723404255319147 0.4477611954212964 0.4528578407425501
0.1474468085106383 0.44733445413040884 0.4528578407425501
0.14765957446808511 0.4475059842686108 0.4523911821191238
0.1478723404255319 0.44997824182859214 0.45128427347111594
0.14808510638297873 0.4497065345446134 0.4501790060597335
0.14829787234042552 0.4498055484039582 0.4550619176831535
0.14851063829787234 0.44897838343175966 0.4548406208523751
0.14872340425531916 0.4510040407498573 0.4559895177478829
0.14893617021276595 0.4509603395545969 0.45797315399752564
0.14914893617021277 0.4494188503230428 0.45944318187866834
0.14936170212765956 0.4513896617036185 0.4606741573033708
0.14957446808510638 0.4527717386269118 0.4619194753197487
0.1497872340425532 0.4538348803126526 0.46262823644357587
0.15 0.4520675567763061 0.46262823644357587
0.15021276595744681 0.45372832268110963 0.46541727831182633
0.1504255319148936 0.45121738592990207 0.46259206985614504
0.15063829787234043 0.4525875215365961 0.467513434294089
0.15085106382978725 0.45223301923127984 0.4668089981764243
0.15106382978723404 0.4528578407425501 0.4655593551538837
0.15127659574468086 0.4522521950777612 0.46374241815951694
0.15148936170212765 0.45214203945128095 0.4631507130012427
0.15170212765957447 0.4525347281534387 0.46393609040555833
0.15191489361702126 0.45264776035656834 0.46367196724452686
0.15212765957446808 0.4514620632759476 0.4585339465618374
0.1523404255319149 0.45027636619532696 0.4533959258791479
0.1525531914893617 0.44992672203224227 0.45375118780908313
0.15276595744680851 0.44992672203224227 0.4549484043023198
0.1529787234042553 0.44992672203224227 0.451321923487901
0.15319148936170213 0.449851952224012 0.44992672203224227
0.15340425531914895 0.4497304294420348 0.44992672203224227
0.15361702127659574 0.4496089066600576 0.44992672203224227
0.15382978723404256 0.44948738387808035 0.44992672203224227
0.15404255319148935 0.44936586109610316 0.44992672203224227
0.15425531914893617 0.44924433831412597 0.44992672203224227
0.154468085106383 0.4491228155321487 0.44992672203224227
0.15468085106382978 0.44900129275017153 0.44992672203224227
0.1548936170212766 0.44829255691669556 0.44959815925952024
0.1551063829787234 0.4471503329752492 0.4490270472887971
0.15531914893617021 0.44876531297552824 0.44717997280854593
0.155531914893617 0.45060464077019247 0.4460185637518319
0.15574468085106383 0.45204865290037766 0.4466899706635523
0.15595744680851065 0.45266110955147926 0.44963162524563605
0.15617021276595744 0.4509037616023448 0.4469842280402885
0.15638297872340426 0.4509037616023448 0.4467924589522699
0.15659574468085105 0.4509037616023448 0.44660068986425133
0.15680851063829787 0.4509037616023448 0.44640892077623273
0.1570212765957447 0.4509037616023448 0.4462171516882142
0.15723404255319148 0.4509037616023448 0.44602538260019564
0.1574468085106383 0.4515841695946805 0.44533815575949637
0.1576595744680851 0.4507775626731872 0.44779962042988014
0.15787234042553192 0.44992672203224227 0.4476359130453791
0.15808510638297874 0.44992672203224227 0.4434937481336685
0.15829787234042553 0.4494266384792024 0.44211040547142155
0.15851063829787235 0.44894968246213973 0.4414331309555084
0.15872340425531914 0.44948449105577704 0.4406911349248538
0.15893617021276596 0.4505410258733088 0.44229177333593955
0.15914893617021275 0.4492234365360244 0.4430874450415241
0.15936170212765957 0.44992672203224227 0.4438645609734005
0.1595744680851064 0.4504140750297221 0.44455417118424956
0.15978723404255318 0.4497159591236641 0.4422827808936056
0.16 0.4482319963175677 0.441133365901319
0.1602127659574468 0.4479726428920372 0.4436523512334974
0.16042553191489362 0.4479726428920372 0.445031265463858
0.16063829787234044 0.45153041666560667 0.44269437964948966
0.16085106382978723 0.448707099458117 0.44699560332193444
0.16106382978723405 0.44760350162970913 0.44662646205960643
0.16127659574468084 0.44699560332193444 0.4450258199363277
0.16148936170212766 0.4451216506115407 0.44281518280469756
0.16170212765957448 0.44935866722401024 0.4458919644802669
0.16191489361702127 0.4473540790252943 0.4407836588120962
0.1621276595744681 0.4460185637518319 0.4420702770062537
0.16234042553191488 0.44585243654259604 0.4408011114828473
0.1625531914893617 0.4441958079393372 0.4403069084176366
0.1627659574468085 0.44211040547142155 0.4451194462150584
0.16297872340425532 0.4405110381513387 0.44637327557195433
0.16319148936170214 0.4431501674839745 0.4443797107279193
0.16340425531914893 0.4450415241817294 0.44406448461162684
0.16361702127659575 0.4450415241817294 0.4449158979669052
0.16382978723404254 0.448916918597064 0.44697922138939655
0.16404255319148936 0.45016384912550017 0.44418304815825577
0.16425531914893618 0.4513861253206066 0.4447941862558089
0.16446808510638297 0.4511312785971593 0.4458713194590023
0.1646808510638298 0.45302729470479447 0.44992672203224227
0.16489361702127658 0.4509037616023448 0.44885324360592427
0.1651063829787234 0.45133148450608396 0.44870649493689074
0.16531914893617022 0.4556984063524061 0.454175994613738
0.16553191489361702 0.45402431285898587 0.45341188094854634
0.16574468085106384 0.45188080117244755 0.45427642307488075
0.16595744680851063 0.4509552788335804 0.4557374422216223
0.16617021276595745 0.4546624250382646 0.4538348803126526
0.16638297872340424 0.45265509146496813 0.45363213103507066
0.16659574468085106 0.45188080117244755 0.4538488310590561
0.16680851063829788 0.45233722070488513 0.45761463758260845
0.16702127659574467 0.45170040148758234 0.4591183981057843
0.1672340425531915 0.4516094337179254 0.4580144060475851
0.16744680851063828 0.45188080117244755 0.45690596258954624
0.1676595744680851 0.45092958967856134 0.45961963350461865
0.16787234042553192 0.45032616626823396 0.4605742962443729
0.16808510638297872 0.4538348803126526 0.46013806741292607
0.16829787234042554 0.4532577336386375 0.46165119687347334
0.16851063829787233 0.45188080117244755 0.46135676198689635
0.16872340425531915 0.4520975793804689 0.46089093551139215
0.16893617021276597 0.4528578407425501 0.46133542054559495
0.16914893617021276 0.4527517253945221 0.45969711773326827
0.16936170212765958 0.45191122242118886 0.45969711773326827
0.16957446808510637 0.4501439908466863 0.45709190224462654
0.1697872340425532 0.45071745575636196 0.45755673274708014
0.17 0.44795094491378556 0.457743038593063
0.1702127659574468 0.4498093883041424 0.455632699856407
0.17042553191489362 0.4515248391100688 0.4535697648673074
0.17063829787234042 0.4516136156136477 0.45339221186014966
0.17085106382978724 0.4511627447831636 0.4542939535211176
0.17106382978723403 0.452186169493217 0.45513252185547326
0.17127659574468085 0.4545466460766224 0.45561211024876935
0.17148936170212767 0.45248371616032074 0.45423682363790147
0.17170212765957446 0.45359294648453957 0.4538348803126526
0.17191489361702128 0.45345043930657597 0.45292722659519985
0.17212765957446807 0.45339309067872813 0.45225887354901767
0.1723404255319149 0.4544635156906562 0.4531892016831005
0.1725531914893617 0.45260876101557057 0.4545628401557757
0.1727659574468085 0.4538348803126526 0.4553864697481729
0.17297872340425532 0.4543485467120506 0.45481191988275516
0.17319148936170212 0.45418293497616063 0.4573278595091333
0.17340425531914894 0.45608372334467573 0.45647123513114257
0.17361702127659576 0.4582752573908113 0.4557889594528579
0.17382978723404255 0.45540520959111885 0.4533028080238229
0.17404255319148937 0.4538552282252995 0.4557279157149173
0.17425531914893616 0.4557889594528579 0.45524645836787314
0.17446808510638298 0.45533360666966927 0.45135911438553344
0.17468085106382977 0.4532140523120017 0.4531682547428756
0.1748936170212766 0.45266890201116106 0.4538348803126526
0.1751063829787234 0.4538348803126526 0.4517535121846218
0.1753191489361702 0.45253837546592385 0.4505749744556066
0.17553191489361702 0.45188080117244755 0.4494308057010182
0.17574468085106382 0.45266314507830047 0.4512967141796987
0.17595744680851064 0.4528578407425501 0.4502039864144439
0.17617021276595746 0.4519329213618516 0.4471519638901466
0.17638297872340425 0.45092418790696437 0.44700581647424426
0.17659574468085107 0.45267329819773167 0.44803415707364336
0.17680851063829786 0.45031117291752354 0.44894968246213973
0.17702127659574468 0.4515586887713031 0.44927179486328406
0.1772340425531915 0.4504547406679836 0.45082476390096476
0.1774468085106383 0.45334915918592816 0.4507399887878855
0.1776595744680851 0.4544123493663702 0.4492384169889985
0.1778723404255319 0.45138249865283003 0.4473147613555913
0.17808510638297873 0.4509037616023448 0.4477968148407211
0.17829787234042552 0.4518008981706758 0.44528123318704466
0.17851063829787234 0.44909868637683126 0.4459688957802681
0.17872340425531916 0.4515292490852569 0.44486574813813407
0.17893617021276595 0.4496286910231065 0.4449585776390342
0.17914893617021277 0.45067183578004627 0.44398183501559807
0.17936170212765956 0.4522984545686452 0.44239387102683614
0.17957446808510638 0.4512915697486296 0.442886021763991
0.1797872340425532 0.45220624640257673 0.44276164787153743
0.18 0.45129706740918657 0.4423070583748424
0.1802127659574468 0.45272779003818986 0.4512305476506463
0.1804255319148936 0.4541033405866759 0.4442658298171443
0.18063829787234043 0.4567533658654177 0.4464017996853473
0.18085106382978725 0.4541671227446293 0.44439180511214665
0.18106382978723404 0.4563075748649726 0.4450415241817294
0.18127659574468086 0.45519908993986224 0.4438617851557382
0.18148936170212765 0.4540902451324753 0.4445307945420839
0.18170212765957447 0.4538348803126526 0.4450415241817294
0.18191489361702126 0.4547710087657719 0.446913781087968
0.18212765957446808 0.4535615692165504 0.4469044996232337
0.1823404255319149 0.4513490324765566 0.44579592831472603
0.1825531914893617 0.4518525579496122 0.4443713356531041
0.1827659574468085 0.44992672203224227 0.44187352586107376
0.1829787234042553 0.44904429820201064 0.4428035978219115
0.18319148936170213 0.44843225018935656 0.44509934915719324
0.18340425531914895 0.4505044636123183 0.44406448461162684
0.18361702127659574 0.45159441119647614 0.4442554112622744
0.18382978723404256 0.4510849432351134 0.44459505656984954
0.18404255319148935 0.4505754752737507 0.4449347018774247
0.18425531914893617 0.45006600731238794 0.4452743471849998
0.184468085106383 0.4495565393510252 0.44561399249257494
0.18468085106382978 0.44904707138966254 0.44595363780015007
0.1848936170212766 0.44924768676291116 0.4469125766541462
0.1851063829787234 0.4496161200757554 0.4480178765926791
0.1853191489361702 0.44995337712773104 0.4489763375576285
0.185531914893617 0.4501231920128325 0.44914615244273
0.18574468085106383 0.45029300689793406 0.4493159673278315
0.18595744680851065 0.45046282178303554 0.449485782212933
0.18617021276595744 0.4506326366681371 0.44965559709803454
0.18638297872340426 0.45080245155323856 0.449825411983136
0.18659574468085105 0.4509037616023448 0.4502550708645875
0.18680851063829787 0.4506851692309111 0.4515595387166459
0.1870212765957447 0.44992672203224227 0.4538348803126526
0.18723404255319148 0.44992672203224227 0.4538348803126526
0.1874468085106383 0.4508979058546906 0.4562628398687733
0.1876595744680851 0.4546216177746797 0.4587200781631655
0.18787234042553191 0.45530611676193555 0.4592074625293911
0.18808510638297873 0.4516405245732702 0.45908845964862827
0.18829787234042553 0.45238445588877396 0.4602007724495947
0.18851063829787235 0.4528578407425501 0.457167940808875
0.18872340425531914 0.4510417689557399 0.46154769135842705
0.18893617021276596 0.45515496550483786 0.4592346465962896
0.18914893617021278 0.4549116803858611 0.4607240375549237
0.18936170212765957 0.4500494453548121 0.4587200781631655
0.1895744680851064 0.4504247059989823 0.45773672913860386
0.18978723404255318 0.4562877654672252 0.45676599902296044
0.19 0.45329880240363835 0.45868549362184946
0.1902127659574468 0.45064003397424746 0.45969711773326827
0.19042553191489361 0.45167080357873324 0.45816303378049156
0.19063829787234043 0.4502049680869852 0.45941887167852535
0.19085106382978723 0.4523824956886403 0.45396697920167284
0.19106382978723405 0.4531972338038038 0.45387601992631127
0.19127659574468084 0.45360515467619505 0.4550997825434851
0.19148936170212766 0.4540130755485864 0.4563235451606591
0.19170212765957448 0.4544209964209777 0.45754730777783315
0.19191489361702127 0.4550499866381802 0.4584423336151696
0.1921276595744681 0.460569803160743 0.45195906677941844
0.19234042553191488 0.4538853194307678 0.4569724295768997
0.1925531914893617 0.4531754478820492 0.4583782528720613
0.19276595744680852 0.4535507418301427 0.4591288407682483
0.19297872340425531 0.4539260357782361 0.45987942866443515
0.19319148936170213 0.4543013297263296 0.46063001656062214
0.19340425531914893 0.454676623674423 0.461380604456809
0.19361702127659575 0.45454964705525286 0.4599464234947085
0.19382978723404254 0.4541395206723593 0.45728060200589987
0.19404255319148936 0.4537293942894656 0.45461478051709087
0.19425531914893618 0.45331926790657195 0.4519489590282819
0.19446808510638297 0.45290914152367834 0.44928313753947324
0.1946808510638298 0.4522880178189257 0.44923459392395193
0.19489361702127658 0.45163672812999006 0.4495602387684197
0.1951063829787234 0.4509854384410544 0.4498858836128875
0.19531914893617022 0.4503341487521187 0.45021152845735535
0.19553191489361701 0.4496828590631831 0.45053717330182314
0.19574468085106383 0.44903156937424743 0.450862818146291
0.19595744680851063 0.45374887518397816 0.4525034925096243
0.19617021276595745 0.4566601818116905 0.4543763087033389
0.19638297872340427 0.4544010538482414 0.4540904388460916
0.19659574468085106 0.4557889594528579 0.45040221913860684
0.19680851063829788 0.45542967816873586 0.451611340209356
0.19702127659574467 0.4519837002539129 0.44894968246213973
0.1972340425531915 0.45364810348438905 0.4487162114268103
0.19744680851063828 0.44977762906595825 0.44406448461162684
0.1976595744680851 0.4497697904200685 0.4443378539309364
0.19787234042553192 0.45148375171953864 0.4454385736346382
0.19808510638297872 0.45041100552621377 0.44404753944730757
0.19829787234042554 0.44992672203224227 0.443276236696334
0.19851063829787233 0.4520457558238739 0.44406448461162684
0.19872340425531915 0.4511822675210306 0.443226698000867
0.19893617021276597 0.452828570245633 0.44404984936316827
0.19914893617021276 0.44699560332193444 0.441133365901319
0.19936170212765958 0.4467553265433811 0.4408930891227657
0.19957446808510637 0.44631979014185846 0.4410600055012962
0.1997872340425532 0.44699560332193444 0.4433611859537705
0.2 0.44739270557573263 0.44287317785023245
0.2002127659574468 0.44849739312660064 0.44218286637044596
0.20042553191489362 0.4476319077164756 0.4430874450415241
0.20063829787234042 0.44699560332193444 0.4438796584950052
0.20085106382978724 0.45159210559862506 0.44774168643297924
0.20106382978723403 0.4490896086208596 0.4430174819621641
0.20127659574468085 0.4507020416084686 0.44271556545305024
0.20148936170212767 0.4512612819514773 0.44370696426249434
0.20170212765957446 0.4533718455371889 0.44159640067678274
0.20191489361702128 0.4510832723356718 0.44211040547142155
0.20212765957446807 0.44566088171769375 0.44211040547142155
0.2023404255319149 0.442404105603547 0.4437707844795014
0.2025531914893617 0.4440319083523059 0.445985987492511
0.2027659574468085 0.4432932041302787 0.443197627967431
0.20297872340425532 0.43744425612987164 0.4449406786474788
0.20319148936170212 0.43923750732118594 0.4483177296020954
0.20340425531914894 0.4406581752440202 0.4503752544340364
0.20361702127659576 0.4401563263312165 0.45244846641473196
0.20382978723404255 0.4388153610062843 0.45419880606748214
0.20404255319148937 0.4406150572193274 0.4523991098544391
0.20425531914893616 0.44206997030449374 0.45188080117244755
0.20446808510638298 0.44406448461162684 0.45304933146491017
0.20468085106382977 0.4436930535984735 0.4546262043761785
0.2048936170212766 0.44228822845968174 0.4533014113478721
0.2051063829787234 0.44278339108281195 0.4518159234784812
0.2053191489361702 0.4425437662863175 0.4538348803126526
0.20553191489361702 0.44590305289177196 0.4532717587426031
0.20574468085106382 0.446578056549465 0.4535551339138361
0.20595744680851064 0.44767174902962087 0.4538348803126526
0.20617021276595746 0.4498934931336123 0.45575573055422797
0.20638297872340425 0.44711298959168544 0.45274045447279915
0.20659574468085107 0.4479726428920372 0.45162976085693995
0.20680851063829786 0.44913096114322104 0.4528342920209847
0.20702127659574468 0.4498611814411325 0.45526766937225166
0.2072340425531915 0.4476430582942712 0.45285198363095264
0.2074468085106383 0.4462096720698608 0.4542385949286685
0.2076595744680851 0.44511279214582133 0.4566234630947765
0.2078723404255319 0.44791572448940153 0.45567512264758653
0.20808510638297872 0.447931273461819 0.45364774628467575
0.20829787234042554 0.45042854799403315 0.45343874201391576
0.20851063829787234 0.44752853923213703 0.45534485579295775
0.20872340425531916 0.44907127602053254 0.4572523732565316
0.20893617021276595 0.44984766315150754 0.46035792178043194
0.20914893617021277 0.4491115013967531 0.4606741573033708
0.20936170212765956 0.4495580334841572 0.4624992103694233
0.20957446808510638 0.44992672203224227 0.4631455832095459
0.2097872340425532 0.44992672203224227 0.46222986541356775
0.21 0.4504847443171462 0.46193020801592527
0.2102127659574468 0.45193689955304067 0.4627965315853552
0.2104255319148936 0.45264555335971096 0.46492249300536626
0.21063829787234042 0.44979093005941867 0.46310582660737853
0.21085106382978724 0.4493689574671513 0.46165119687347334
0.21106382978723404 0.45231373658301455 0.4612987031283059
0.21127659574468086 0.45748729037885816 0.4599097657330556
0.21148936170212765 0.4594351562060389 0.45908941827440464
0.21170212765957447 0.4542547248497019 0.45908342389200585
0.2119148936170213 0.4520512763185278 0.45736053368766866
0.21212765957446808 0.45574247817559943 0.45676599902296044
0.2123404255319149 0.45660997782968793 0.4544998774962103
0.2125531914893617 0.45326938015056184 0.4547475252192722
0.2127659574468085 0.45188080117244755 0.45509205111699996
0.2129787234042553 0.4526546167719229 0.45481191988275516
0.21319148936170212 0.45131342167506866 0.4532675008152739
0.21340425531914894 0.45412644585623246 0.4528578407425501
0.21361702127659574 0.4507519511608671 0.45448182823130523
0.21382978723404256 0.44992672203224227 0.4515709963369149
0.21404255319148935 0.450555611413476 0.4511845007947099
0.21425531914893617 0.4516577600035252 0.4541427963759883
0.214468085106383 0.4509950106720392 0.45304033888193884
0.21468085106382978 0.4508593703671541 0.45179201870206614
0.2148936170212766 0.44992672203224227 0.44956477820729585
0.2151063829787234 0.45117625349484664 0.44828502575768825
0.2153191489361702 0.45252051082097333 0.4480734361343535
0.21553191489361703 0.44923663483416526 0.44699560332193444
0.21574468085106382 0.44600647284951234 0.4466658931644604
0.21595744680851064 0.4466426423999909 0.4460185637518319
0.21617021276595744 0.45100724019208016 0.4470990819116698
0.21638297872340426 0.45188080117244755 0.4479726428920372
0.21659574468085105 0.4496206628329887 0.4472192634455508
0.21680851063829787 0.4515424670191866 0.4444028187648878
0.2170212765957447 0.45381987263948315 0.448942178625555
0.21723404255319148 0.4501641829972364 0.4466394118744433
0.2174468085106383 0.45188080117244755 0.44544177742058255
0.2176595744680851 0.450855951175497 0.44924348870094194
0.2178723404255319 0.4484977200607045 0.4461647932862961
0.21808510638297873 0.44967276290567376 0.44406448461162684
0.21829787234042553 0.4515834606275938 0.4467832807126223
0.21851063829787234 0.45029061955750155 0.4471775520845641
0.21872340425531914 0.4481062240131662 0.4433546072837821
0.21893617021276596 0.4468501090887369 0.4430874450415241
0.21914893617021278 0.44439356068046626 0.4430874450415241
0.21936170212765957 0.44546252251775353 0.4436434862756025
0.2195744680851064 0.4433348556482204 0.44358226625491654
0.21978723404255318 0.44167265366459596 0.4406956140944934
0.22 0.44384697708895143 0.4423272152813224
0.2202127659574468 0.4466518014131909 0.4427980092889087
0.2204255319148936 0.442675459038729 0.44283042951862245
0.22063829787234043 0.44361749969042347 0.44391548963789235
0.22085106382978723 0.44217826724285425 0.44406448461162684
0.22106382978723405 0.4404900947388926 0.44317088714344316
0.22127659574468084 0.44406448461162684 0.44406448461162684
0.22148936170212766 0.44406448461162684 0.44406448461162684
0.22170212765957448 0.44449681843656635 0.44622615373632446
0.22191489361702127 0.446673090448693 0.44459883908357006
0.2221276595744681 0.4479726428920372 0.4423471820875696
0.22234042553191488 0.4493411976920731 0.44445599984156015
0.2225531914893617 0.4471053677648303 0.4422201699143174
0.22276595744680852 0.4460185637518319 0.4416422456512229
0.2229787234042553 0.4460185637518319 0.442349887091968
0.22319148936170213 0.4460185637518319 0.44305752853271324
0.22340425531914893 0.4460185637518319 0.4437651699734584
0.22361702127659575 0.44615089113993045 0.44406448461162684
0.22382978723404254 0.4463802180980756 0.44406448461162684
0.22404255319148936 0.44660954505622086 0.44406448461162684
0.22425531914893618 0.44683887201436606 0.44406448461162684
0.22446808510638297 0.44724012499353977 0.44406448461162684
0.2246808510638298 0.4482744694885602 0.44445254737858503
0.22489361702127658 0.45411512917582586 0.4519619669764981
0.2251063829787234 0.45357175917427134 0.45161768003406627
0.22531914893617022 0.45216360576222653 0.45020952662202146
0.225531914893617 0.4504444306819945 0.44940901338249
0.22574468085106383 0.4460832165748768 0.4537702274896077
0.22595744680851063 0.4469365632431496 0.45452337993114095
0.22617021276595745 0.4478683763995693 0.45522223979845566
0.22638297872340427 0.4488001895559889 0.4559210996657704
0.22659574468085106 0.4497320027124084 0.45661995953308504
0.22680851063829788 0.4493105577102309 0.45635522280828617
0.22702127659574467 0.4485316202218563 0.45583593114936977
0.2272340425531915 0.44775268273348157 0.45531663949045326
0.22744680851063828 0.4471024520055873 0.4548546593562163
0.2276595744680851 0.45091012666687974 0.45637772922073333
0.22787234042553192 0.45422849254201736 0.459896254182387
0.22808510638297871 0.45127744467885506 0.45890691970142067
0.22829787234042553 0.45192893070020823 0.4597211824971486
0.22851063829787233 0.45340481122592585 0.4606741573033708
0.22872340425531915 0.45064899533723496 0.460164624773151
0.22893617021276597 0.44992672203224227 0.4587200781631655
0.22914893617021276 0.45043158792242327 0.46124440761407065
0.22936170212765958 0.4509037616023448 0.46234118624422993
0.22957446808510637 0.4493859329538959 0.46165119687347334
0.2297872340425532 0.45422788335025294 0.4625308970214922
0.23 0.453734342317654 0.45967198323451863
0.2302127659574468 0.44992672203224227 0.4593095363947132
0.23042553191489362 0.45098664969707014 0.46183329069495505
0.23063829787234041 0.4538348803126526 0.4600861072293675
0.23085106382978723 0.4517729364871781 0.4596431853906335
0.23106382978723405 0.4518510005262786 0.4567957996691293
0.23127659574468085 0.4528578407425501 0.45352824921455315
0.23148936170212767 0.4513628261018036 0.4528578407425501
0.23170212765957446 0.4507644721932366 0.45306727828279864
0.23191489361702128 0.45395130651667975 0.45336917549654404
0.23212765957446807 0.45466567114098194 0.45017046993519766
0.2323404255319149 0.45188080117244755 0.4548064099753387
0.2325531914893617 0.45188080117244755 0.45466186695527105
0.2327659574468085 0.45188080117244755 0.4545173239352034
0.23297872340425532 0.45188080117244755 0.4543727809151357
0.23319148936170211 0.45188080117244755 0.45422823789506805
0.23340425531914893 0.45188080117244755 0.4540836948750004
0.23361702127659575 0.45188080117244755 0.4539391518549327
0.23382978723404255 0.4517960665363185 0.45366541104039454
0.23404255319148937 0.4514919356505578 0.4530571492688732
0.23425531914893616 0.4511878047647971 0.45244888749735196
0.23446808510638298 0.45080248337644535 0.451982079398347
0.2346808510638298 0.4492691171468281 0.45351544562796425
0.2348936170212766 0.45548800650357635 0.4530175898074731
0.2351063829787234 0.45236942171533906 0.45373715620407434
0.2353191489361702 0.45188080117244755 0.4545255782944921
0.23553191489361702 0.4530224443390978 0.4519578119661295
0.23574468085106381 0.4532278485472647 0.45296188085918193
0.23595744680851063 0.45159263801918004 0.4529141157977003
0.23617021276595745 0.44949944142893755 0.45188080117244755
0.23638297872340425 0.45140977163656876 0.44942071199801853
0.23659574468085107 0.45093547912431425 0.4498950045102728
0.23680851063829786 0.45188080117244755 0.4521618964740083
0.23702127659574468 0.4516607613943624 0.4532716414361594
0.2372340425531915 0.4519418500903401 0.44935676087603094
0.2374468085106383 0.4524994565213428 0.4501002361173679
0.2376595744680851 0.44928857210926887 0.4485110393897292
0.2378723404255319 0.44996859844579395 0.4469537269083828
0.23808510638297872 0.45011432368894766 0.4475974395786264
0.23829787234042554 0.448087924092847 0.44613384495264174
0.23851063829787233 0.4501343378961946 0.4449031136057611
0.23872340425531915 0.45225775297299464 0.44368753281107953
0.23893617021276595 0.4496067577466825 0.4460185637518319
0.23914893617021277 0.44894968246213973 0.4468886708104254
0.23936170212765956 0.4499965035503107 0.44640241125978064
0.23957446808510638 0.4509037616023448 0.4471597867393998
0.2397872340425532 0.4509037616023448 0.4483658142726929
0.24 0.4509037616023448 0.4486868054632703
0.2402127659574468 0.44774268992779026 0.44815941454350117
0.2404255319148936 0.4488113308423327 0.44706477913183795
0.24063829787234042 0.449192522596491 0.45078234153516916
0.24085106382978724 0.4517214510158957 0.4483814875988125
0.24106382978723404 0.4473110285394427 0.44538771331681554
0.24127659574468086 0.4488462218295826 0.44493806354917226
0.24148936170212765 0.44992672203224227 0.4431946605406941
0.24170212765957447 0.45060561939739585 0.4438489553619335
0.2419148936170213 0.451666254586776 0.4427540452284361
0.24212765957446808 0.45430295549364164 0.4453399445663472
0.2423404255319149 0.45481191988275516 0.446838497357289
0.2425531914893617 0.4541235376187411 0.4490607501139769
0.2427659574468085 0.45330446610583663 0.4515179646526903
0.2429787234042553 0.4519120267060419 0.45427656179731235
0.24319148936170212 0.4520304048282642 0.45635228106581754
0.24340425531914894 0.4528578407425501 0.4615697007327184
0.24361702127659574 0.4521495184589902 0.46077198687943893
0.24382978723404256 0.450360492336577 0.46197758098707387
0.24404255319148935 0.45078944065120985 0.46090279920564065
0.24425531914893617 0.4557662813236658 0.4616466612476349
0.244468085106383 0.4518841584161683 0.4596904032458267
0.24468085106382978 0.4528578407425501 0.4574240021678265
0.2448936170212766 0.4528578407425501 0.4555367322135521
0.2451063829787234 0.4528578407425501 0.45957188064690097
0.2453191489361702 0.45165263028615693 0.4558533154777984
0.24553191489361703 0.4500429101303087 0.45544039515865836
0.24574468085106382 0.44894968246213973 0.459487668347147
0.24595744680851064 0.44894968246213973 0.46201599773740437
0.24617021276595744 0.4500749493859399 0.4630426425517785
0.24638297872340426 0.4527901907450006 0.4614482468808249
0.24659574468085105 0.4519597605519353 0.4589569563016288
0.24680851063829787 0.4505665344604432 0.459158167067167
0.2470212765957447 0.4491141736505893 0.4596422873371184
0.24723404255319148 0.44929751894966324 0.4595231994895065
0.2474468085106383 0.4496897823234709 0.4593270678026026
0.2476595744680851 0.4500820456972785 0.4591309361156988
0.2478723404255319 0.45047430907108615 0.45893480442879486
0.24808510638297873 0.45086657244489386 0.458738672741891
0.24829787234042552 0.4522121354637197 0.46068263895522776
0.24851063829787234 0.4534492446504251 0.4634254085970985
0.24872340425531914 0.455231771795884 0.46039164113408726
0.24893617021276596 0.454158327448572 0.45790476216102266
0.24914893617021278 0.449142971391906 0.4624349475138096
0.24936170212765957 0.4517970493645898 0.46131618964204235
0.2495744680851064 0.4507079055351145 0.45852646286198445
0.24978723404255318 0.44992672203224227 0.46165119687347334
0.25 0.4510698715902705 0.46088909716812126
0.2502127659574468 0.4508215165843198 0.4571517125354803
0.25042553191489364 0.45022087144507195 0.45481191988275516
0.25063829787234043 0.4478419096174097 0.452515530894054
0.2508510638297872 0.44699560332193444 0.4536677205798166
0.251063829787234 0.4498919347067494 0.45191558849794045
0.25127659574468086 0.44878847757123924 0.4536638651970526
0.25148936170212766 0.44839120163530777 0.4569059211065218
0.25170212765957445 0.4500462793400732 0.4535957656969907
0.2519148936170213 0.45171412219060386 0.44976004305039863
0.2521276595744681 0.45117790884964587 0.45004627145134374
0.2523404255319149 0.4514991665456455 0.45323947536935205
0.2525531914893617 0.45041225132597484 0.45285185975991266
0.2527659574468085 0.45173313204666354 0.453085074515395
0.2529787234042553 0.45355295482772984 0.4503593098867537
0.2531914893617021 0.4562299336888024 0.4513447358382895
0.25340425531914895 0.45403684368487746 0.45279051961847516
0.25361702127659574 0.4538348803126526 0.45372399942888314
0.25382978723404254 0.45354214137846033 0.45148923947072944
0.2540425531914894 0.45162427757300405 0.4527597310872075
0.2542553191489362 0.45236520245016026 0.4481647560001868
0.25446808510638297 0.45531749600871996 0.4504322981582069
0.25468085106382976 0.4544656870705318 0.44989589259895846
0.2548936170212766 0.4561755920992077 0.45188080117244755
0.2551063829787234 0.45527380602471046 0.45237819883853087
0.2553191489361702 0.45505068007895194 0.4522499408594005
0.25553191489361704 0.4557889594528579 0.45403237355302245
0.25574468085106383 0.4507514471252522 0.45397233449482094
0.2559574468085106 0.45475932509884953 0.4519018390860098
0.2561702127659574 0.4535857023558569 0.45175621219404966
0.25638297872340426 0.4523903331513071 0.4509037616023448
0.25659574468085106 0.4530687435750953 0.4501376248647875
0.25680851063829785 0.45188080117244755 0.44792030367721514
0.2570212765957447 0.4486414647129388 0.4476434706138363
0.2572340425531915 0.45244644541779566 0.4464152594360768
0.2574468085106383 0.45128315771376987 0.44857028635071466
0.25765957446808513 0.4489688098654295 0.4479822065936821
0.2578723404255319 0.4509037616023448 0.44661963719810793
0.2580851063829787 0.451652511551593 0.4504045949695127
0.2582978723404255 0.4534651114717296 0.4500589889849089
0.25851063829787235 0.45239816230733937 0.45280015804286894
0.25872340425531914 0.4528419939571159 0.45415527790754207
0.25893617021276594 0.45472973680885864 0.45478452552478965
0.2591489361702128 0.4538348803126526 0.454620236254465
0.2593617021276596 0.4533239890948287 0.4496712764233303
0.25957446808510637 0.45035076919509676 0.4480574523246081
0.2597872340425532 0.4543482395235289 0.4486405622226555
0.26 0.4516172155751267 0.4462048465299721
0.2602127659574468 0.4509037616023448 0.44406448461162684
0.2604255319148936 0.4489714397342919 0.44358140414461356
0.26063829787234044 0.44640216284591405 0.44130712361346297
0.26085106382978723 0.4460185637518319 0.438743880894524
0.261063829787234 0.4460185637518319 0.43901848569113266
0.2612765957446809 0.44230455131703295 0.43546527432631477
0.26148936170212767 0.4450981341785376 0.43940572674834666
0.26170212765957446 0.4463547324495744 0.44291936069265286
0.26191489361702125 0.44740798011260535 0.4429573996405693
0.2621276595744681 0.4464136395050949 0.44543659993499235
0.2623404255319149 0.44598043989558034 0.44957163574407144
0.2625531914893617 0.445207718623918 0.4518606740894183
0.26276595744680853 0.4455000111175349 0.45010691912771666
0.2629787234042553 0.44579230361115174 0.44835316416601545
0.2631914893617021 0.4456053939618842 0.44699560332193444
0.26340425531914896 0.4444012808520713 0.4464904089612678
0.26361702127659575 0.4460185637518319 0.4443301558320428
0.26382978723404255 0.4483149685610105 0.4450415241817294
0.26404255319148934 0.44839269803582205 0.4450415241817294
0.2642553191489362 0.4468850533503459 0.4450415241817294
0.264468085106383 0.44499651613569313 0.4428094291144713
0.26468085106382977 0.450037909316346 0.44211040547142155
0.2648936170212766 0.4460313126067194 0.44211040547142155
0.2651063829787234 0.44699560332193444 0.4479726428920372
0.2653191489361702 0.44699560332193444 0.4479726428920372
0.265531914893617 0.4458593574976748 0.447215145675864
0.26574468085106384 0.4455885409249663 0.44805063883628465
0.26595744680851063 0.4463587900445163 0.44992672203224227
0.2661702127659574 0.44755104136471746 0.45069296083868493
0.2663829787234043 0.4461808492201321 0.45179965843829745
0.26659574468085107 0.447185325988906 0.45671856835621755
0.26680851063829786 0.45038735017749587 0.45613323373609055
0.2670212765957447 0.4479726428920372 0.45683799180519286
0.2672340425531915 0.4492669204803963 0.4561061974711143
0.2674468085106383 0.448896558824402 0.4542304337316631
0.2676595744680851 0.44804526109896137 0.45772653715301964
0.26787234042553193 0.44834388483536985 0.4575472997459793
0.2680851063829787 0.4472437766107557 0.4538348803126526
0.2682978723404255 0.4487067053060237 0.4538348803126526
0.26851063829787236 0.44894968246213973 0.4557889594528579
0.26872340425531915 0.44934366118814006 0.4556576332108578
0.26893617021276595 0.4505932585820191 0.4555844454370122
0.26914893617021274 0.44816142138601106 0.4569658265503453
0.2693617021276596 0.4494059427316251 0.4531850629497719
0.2695744680851064 0.45025343107818616 0.4541631331424612
0.26978723404255317 0.4485646466325209 0.45812807442268183
0.27 0.45252380411156495 0.4587200781631655
0.2702127659574468 0.4528578407425501 0.45884648335259604
0.2704255319148936 0.4530019961832569 0.4606741573033708
0.27063829787234045 0.45369307808687864 0.4608159595291448
0.27085106382978724 0.45203027812652535 0.46240402101245914
0.27106382978723403 0.4544000180089644 0.4593203592690604
0.2712765957446808 0.454889567723799 0.45805577714292317
0.2714893617021277 0.45162980071574266 0.4590830977198645
0.27170212765957447 0.45321931738480076 0.46005859437551894
0.27191489361702126 0.4533475780519089 0.45921225052113956
0.2721276595744681 0.4534749720721627 0.4620629579003515
0.2723404255319149 0.4530863218888779 0.46308519873623155
0.2725531914893617 0.4519760579262386 0.4599828879946413
0.2727659574468085 0.45008656927004353 0.45790288583086425
0.27297872340425533 0.4528576018293313 0.4577427996798442
0.2731914893617021 0.4518696809563634 0.45676599902296044
0.2734042553191489 0.4509594562503265 0.45676599902296044
0.27361702127659576 0.44603680681579316 0.45579260806565014
0.27382978723404255 0.44709310903260874 0.4549830504922753
0.27404255319148935 0.4481714489910577 0.4541742955234385
0.2742553191489362 0.44924978894950696 0.4533655405546016
0.274468085106383 0.44992672203224227 0.4519166830233567
0.2746808510638298 0.44992672203224227 0.44989702751838634
0.27489361702127657 0.44992672203224227 0.44975757331201754
0.2751063829787234 0.44992672203224227 0.4496181191056487
0.2753191489361702 0.44992672203224227 0.4494786648992799
0.275531914893617 0.44992672203224227 0.4493392106929111
0.27574468085106385 0.44992672203224227 0.4491997564865423
0.27595744680851064 0.44992672203224227 0.4490603022801735
0.27617021276595743 0.44982939667607685 0.4486577063936435
0.2763829787234042 0.4493586937727965 0.44724559768380245
0.2765957446808511 0.44894968246213973 0.44567365890722627
0.27680851063829787 0.44894968246213973 0.4430420570177788
0.27702127659574466 0.4469342328957482 0.4426142678630194
0.2772340425531915 0.4456717268338784 0.4430874450415241
0.2774468085106383 0.4472876915178223 0.4429414009435802
0.2776595744680851 0.44894968246213973 0.44215456051992846
0.27787234042553194 0.44894968246213973 0.44586279349652264
0.27808510638297873 0.4508898301151009 0.4460185637518319
0.2782978723404255 0.4500489310818291 0.44498041965693597
0.2785106382978723 0.451607021910129 0.4442013742427861
0.27872340425531916 0.44992672203224227 0.4450415241817294
0.27893617021276595 0.44992672203224227 0.4453015528727909
0.27914893617021275 0.44992672203224227 0.4457076288353255
0.2793617021276596 0.44916893505544997 0.44617820464691793
0.2795744680851064 0.4468063536555004 0.44758387981319153
0.2797872340425532 0.4461798838851691 0.44471888391505504
0.27999999999999997 0.44843314818939145 0.44251488179338194
0.2802127659574468 0.4506017226410957 0.4446151646712788
0.2804255319148936 0.44934858998777566 0.44630762977406524
0.2806382978723404 0.4472681617492962 0.4455866410364528
0.28085106382978725 0.44460375468285224 0.4450415241817294
0.28106382978723404 0.44493880197777025 0.4450415241817294
0.28127659574468084 0.44159730636841343 0.4433194152750713
0.2814893617021277 0.44187601698265117 0.44234479396019194
0.2817021276595745 0.4413760323560086 0.44211040547142155
0.28191489361702127 0.441133365901319 0.4451281680050999
0.28212765957446806 0.4434164525315809 0.4444965059983241
0.2823404255319149 0.44325277954640446 0.4424410744811823
0.2825531914893617 0.44241899946293484 0.44211040547142155
0.2827659574468085 0.44339256526855003 0.4459568848628068
0.28297872340425534 0.4428456331275219 0.4484601834856791
0.28319148936170213 0.44105174826491406 0.4491777374307222
0.2834042553191489 0.43925786340230627 0.4498952913757652
0.2836170212765957 0.4424399362585762 0.45253524163021214
0.28382978723404256 0.44350761402566213 0.453278009726688
0.28404255319148936 0.4450640404083864 0.45417557098712485
0.28425531914893615 0.44679548543816805 0.45248115482374673
0.284468085106383 0.4433988211250302 0.45188080117244755
0.2846808510638298 0.44224863208962767 0.45374272923384856
0.2848936170212766 0.4450415241817294 0.4520420827249127
0.2851063829787234 0.44532563268903114 0.45172140671334293
0.2853191489361702 0.4452006860181033 0.45058543792959704
0.285531914893617 0.4445980312455016 0.45339138737642487
0.2857446808510638 0.44701750005881913 0.45120024580986634
0.28595744680851065 0.4479726428920372 0.45071100084564175
0.28617021276595744 0.449749307049816 0.44912709744456597
0.28638297872340424 0.4441073145319036 0.4548975797233087
0.2865957446808511 0.44574526024442046 0.4565900650072877
0.2868085106382979 0.44864306009057736 0.4557889594528579
0.28702127659574467 0.4475352864254661 0.4544768900531447
0.28723404255319146 0.4447276791612328 0.45399180282290086
0.2874468085106383 0.444485772086718 0.456909410450546
0.2876595744680851 0.4450415241817294 0.457743038593063
0.2878723404255319 0.4476231874682323 0.45516137530656003
0.28808510638297874 0.4460432600286065 0.4606988535801454
0.28829787234042553 0.44824861093761326 0.46276622046636395
0.2885106382978723 0.44992672203224227 0.46495115170865775
0.28872340425531917 0.4495273649319576 0.46729240256333754
0.28893617021276596 0.45053401615000205 0.46503124392459627
0.28914893617021276 0.45122340304083336 0.4665545099786234
0.28936170212765955 0.45244549182463584 0.4667425691829434
0.2895744680851064 0.4591017582015832 0.4692123593492862
0.2897872340425532 0.4491413951178067 0.4649273983639817
0.29 0.4533226919122626 0.47218056544712766
0.2902127659574468 0.4517878385200969 0.46594701011215156
0.2904255319148936 0.45341172748696995 0.46500546840946383
0.2906382978723404 0.45063367725015724 0.4700076821386694
0.2908510638297872 0.45296749299015615 0.4706971313626934
0.29106382978723405 0.45361015277768596 0.46826574632922485
0.29127659574468084 0.45230187015623613 0.46640149312146095
0.29148936170212764 0.4523245119569305 0.4651156443694007
0.2917021276595745 0.4531332223339838 0.465683841949516
0.2919148936170213 0.4538348803126526 0.46749999713347257
0.29212765957446807 0.4545285258638878 0.46458231558378116
0.2923404255319149 0.4581759252493165 0.46505970874307284
0.2925531914893617 0.4588718247135172 0.4631562450340789
0.2927659574468085 0.4555748230243156 0.45876024278181027
0.2929787234042553 0.4589778352354185 0.45524348938146497
0.29319148936170214 0.4558465702863304 0.45288664615928637
0.29340425531914893 0.452624629156784 0.4528578407425501
0.2936170212765957 0.4509037616023448 0.45210535502954635
0.29382978723404257 0.45052333918161824 0.4495462996115157
0.29404255319148936 0.44992672203224227 0.44894968246213973
0.29425531914893616 0.4512026779907644 0.44703574852435657
0.29446808510638295 0.45188080117244755 0.44678523896281913
0.2946808510638298 0.45638762606040256 0.4460942383443435
0.2948936170212766 0.4510786713875963 0.4479143396302867
0.2951063829787234 0.4532543147923863 0.44718912516202325
0.29531914893617023 0.45414941144528015 0.4482972078763307
0.295531914893617 0.45795780027050825 0.4485616314574451
0.2957446808510638 0.4526120633595802 0.4467498259389648
0.29595744680851066 0.4535177136034504 0.44556431458195045
0.29617021276595745 0.4544920039417439 0.4460185637518319
0.29638297872340424 0.4538348803126526 0.4444541838796804
0.29659574468085104 0.45291890966633747 0.4422325433189963
0.2968085106382979 0.4575284384322448 0.4425867113329483
0.2970212765957447 0.45359891257004875 0.4366525038217082
0.29723404255319147 0.4506167930493425 0.43786882507357067
0.2974468085106383 0.45427531713616953 0.43590389715035777
0.2976595744680851 0.4537290510369232 0.43266978564185277
0.2978723404255319 0.45753661081623476 0.431362970200293
0.29808510638297875 0.4548924150032281 0.43216375398863316
0.29829787234042554 0.451048659082066 0.4304825289500046
0.29851063829787233 0.45337170599918736 0.43064286325850915
0.2987234042553191 0.4572160395863949 0.4328873240328495
0.298936170212766 0.4515498975326094 0.4330174883994837
0.29914893617021276 0.451365050775892 0.4357868788772589
0.29936170212765956 0.45074926929776354 0.43470536254336145
0.2995744680851064 0.44930257290521675 0.435542387164652
0.2997872340425532 0.4496743339451575 0.43624816805080613
0.3 0.4516450511336666 0.43538900350009385
0.3002127659574468 0.4509037616023448 0.43920997899091463
0.30042553191489363 0.4507648588689207 0.4409944631678949
0.3006382978723404 0.452363945587808 0.43907311586207615
0.3008510638297872 0.45471770500989417 0.43664840536613325
0.30106382978723406 0.4484207941055647 0.4377540959774837
0.30127659574468085 0.44731100362175563 0.4375406079207298
0.30148936170212765 0.447787276309241 0.43485018865898944
0.3017021276595745 0.44612747570581357 0.43429408891060084
0.3019148936170213 0.44821568608368567 0.4354331572751357
0.3021276595744681 0.45069229265585103 0.43722520762090866
0.30234042553191487 0.44890556428937417 0.43824636536377676
0.3025531914893617 0.4465230201499324 0.44110149267522064
0.3027659574468085 0.44662638148183914 0.4439338586614433
0.3029787234042553 0.4484770046020586 0.4480043267419775
0.30319148936170215 0.4498236394423516 0.4506975964225635
0.30340425531914894 0.44801821565962247 0.4538348803126526
0.30361702127659573 0.4498454318884662 0.4539161704564287
0.3038297872340425 0.4471200522652852 0.45672451604184355
0.3040425531914894 0.44844098965008694 0.45628420358024296
0.30425531914893617 0.4497619270348884 0.45584389111864254
0.30446808510638296 0.4463014799911766 0.458507890983657
0.3046808510638298 0.44809605098911576 0.456889407120039
0.3048936170212766 0.45188080117244755 0.45940921178326877
0.3051063829787234 0.4501911227404382 0.45398429303055626
0.30531914893617024 0.4472422698179574 0.4547264889127514
0.30553191489361703 0.447876413022287 0.45349070533222646
0.3057446808510638 0.4489885189510003 0.4541476146730666
0.3059574468085106 0.4491345609005208 0.4538348803126526
0.30617021276595746 0.44894968246213973 0.45304649556560683
0.30638297872340425 0.44894968246213973 0.451159826759298
0.30659574468085105 0.44730218568064045 0.4541987551653432
0.3068085106382979 0.45028626268680133 0.45069859567667164
0.3070212765957447 0.4509037616023448 0.4501708575187257
0.3072340425531915 0.4509037616023448 0.4504604431175288
0.30744680851063827 0.4509037616023448 0.4507500287163319
0.3076595744680851 0.45079120196252687 0.4512414405217986
0.3078723404255319 0.45055126821348157 0.45196124176893454
0.3080851063829787 0.4503113344644363 0.45268104301607043
0.30829787234042555 0.4500714007153909 0.45340084426320654
0.30851063829787234 0.4506801165257641 0.4545882748061745
0.30872340425531913 0.4525778084084927 0.45648596668890307
0.308936170212766 0.4536075647175438 0.4581976697832806
0.3091489361702128 0.4529341936487566 0.4595444119208552
0.30936170212765957 0.4522608225799693 0.4608911540584298
0.30957446808510636 0.4515691882558437 0.46009313229045434
0.3097872340425532 0.4509037616023448 0.4568936050278275
0.31 0.4509037616023448 0.45872399244746603
0.3102127659574468 0.4509037616023448 0.4607284239054893
0.31042553191489364 0.4509037616023448 0.4629304223012214
0.31063829787234043 0.45145474496420607 0.46470724273740094
0.3108510638297872 0.4525707884387056 0.46728432331952885
0.311063829787234 0.45411178218835946 0.4708599058179568
0.31127659574468086 0.4556103081179818 0.4730183690449522
0.31148936170212765 0.4539367195767836 0.46936567417016306
0.31170212765957445 0.45480237362233833 0.46850002012460834
0.3119148936170213 0.4594971382993809 0.46736344971867344
0.3121276595744681 0.45566510812354266 0.46458231558378116
0.3123404255319149 0.45458861091641567 0.4644334429395548
0.3125531914893617 0.45342241651870724 0.4636559800077491
0.3127659574468085 0.45225622212099914 0.46287851707594363
0.3129787234042553 0.45188080117244755 0.46400596799084237
0.3131914893617021 0.45425314652000043 0.4622099702362281
0.31340425531914895 0.45664761009548116 0.4653225772989251
0.31361702127659574 0.450204431117544 0.46681410380928795
0.31382978723404253 0.45442932669304126 0.4696519578305451
0.3140425531914894 0.45490642422202915 0.4674661821244519
0.3142553191489362 0.4504934038990656 0.4711089442474109
0.31446808510638297 0.45100635847797615 0.476074762829039
0.31468085106382976 0.4545666473792034 0.47490356180677257
0.3148936170212766 0.45271466909452707 0.4710699539459562
0.3151063829787234 0.450993637895834 0.46867022645116996
0.3153191489361702 0.4528578407425501 0.4654707913773389
0.31553191489361704 0.45310963676213056 0.4621246444044149
0.31574468085106383 0.4546208496150225 0.4585767754623661
0.3159574468085106 0.45160043158156904 0.45596312694766394
0.31617021276595747 0.45269293955955436 0.4570687104977034
0.31638297872340426 0.44970291438325144 0.4568779028474559
0.31659574468085105 0.4513180121637618 0.45522617044417213
0.31680851063829785 0.4495153420890993 0.4568945491526235
0.3170212765957447 0.44977502485588683 0.45609235380556873
0.3172340425531915 0.4527958232217344 0.4567453265160219
0.3174468085106383 0.45176970115536297 0.45556675941868874
0.3176595744680851 0.4501994960120575 0.4536001251158902
0.3178723404255319 0.449440874196003 0.4535919563945329
0.3180851063829787 0.4493877958369131 0.45531052094986213
0.3182978723404255 0.4501516771580572 0.4551577446856333
0.31851063829787235 0.45188080117244755 0.4532820268378625
0.31872340425531914 0.4545589102052363 0.4537505437534797
0.31893617021276593 0.4494759841497071 0.4511669124461285
0.3191489361702128 0.4461338002531638 0.4508173342263459
0.3193617021276596 0.4493458760910386 0.44724658546553264
0.31957446808510637 0.4467902699786413 0.4438591512683335
0.3197872340425532 0.45054065487024636 0.4466886369029324
0.32 0.45231658572600775 0.444275425537591
0.3202127659574468 0.4500313018982732 0.44267571324027694
0.3204255319148936 0.4521358888071034 0.44031194776481325
0.32063829787234044 0.4488956152736071 0.43917928676111373
0.32085106382978723 0.449870079692534 0.4372818499606169
0.321063829787234 0.45167521461722565 0.4304887239078014
0.32127659574468087 0.450162669212649 0.4301832342982592
0.32148936170212766 0.4512730737762129 0.4268470845236481
0.32170212765957445 0.45088009792232153 0.4269544602948197
0.32191489361702125 0.448657894413256 0.42711218615927327
0.3221276595744681 0.4510375105179 0.4282210288263485
0.3223404255319149 0.45188080117244755 0.4257416877635814
0.3225531914893617 0.45835466815195935 0.4266343766402971
0.3227659574468085 0.45188080117244755 0.4290476263241351
0.3229787234042553 0.45308630617164103 0.4277561881696811
0.3231914893617021 0.4557889594528579 0.42883964459494844
0.32340425531914896 0.4527601539016013 0.431932895686135
0.32361702127659575 0.448760472026924 0.4302122138919865
0.32382978723404254 0.44932701359616534 0.4247460705116262
0.32404255319148934 0.4491472356496826 0.42276716725691266
0.3242553191489362 0.44894968246213973 0.4234151508070965
0.324468085106383 0.44894968246213973 0.41733417779277643
0.32468085106382977 0.4480495107670434 0.41490703325856154
0.3248936170212766 0.44504872197131284 0.4157279378154571
0.3251063829787234 0.4503197316781166 0.41350005427741776
0.3253191489361702 0.44650167428131 0.4184199005242204
0.325531914893617 0.44832544356621695 0.42191802430901426
0.32574468085106384 0.4479962700454723 0.42797877243508686
0.32595744680851063 0.4476037155073889 0.42708588453523444
0.3261702127659574 0.4531691330485929 0.4333936578130893
0.32638297872340427 0.4495421030590086 0.4326362200688302
0.32659574468085106 0.4517882202771929 0.42833927059473076
0.32680851063829786 0.44947082854799064 0.42641273842991667
0.3270212765957447 0.45268450427163115 0.43216667329947683
0.3272340425531915 0.4511044438507718 0.43199138861760616
0.3274468085106383 0.45132508726929804 0.4376465332878618
0.3276595744680851 0.4504680145639464 0.43868398444347473
0.3278723404255319 0.4525570129152736 0.44639394766738155
0.3280851063829787 0.45249310894882633 0.45297499655361845
0.3282978723404255 0.452559564050283 0.4616065776382522
0.32851063829787236 0.45317960596006496 0.46851396169930726
0.32872340425531915 0.4520939765047023 0.474263874193636
0.32893617021276594 0.45361108376263587 0.47792517474019214
0.32914893617021274 0.45092727738207633 0.4811684724957936
0.3293617021276596 0.45109981836630686 0.4813880450394872
0.3295744680851064 0.4530658294927705 0.482522101165069
0.32978723404255317 0.4538348803126526 0.48052345310698474
0.33 0.4525934565681574 0.4832610278496837
0.3302127659574468 0.45193725987551514 0.4850436878528678
0.3304255319148936 0.45348445913355984 0.48224325181280353
0.33063829787234045 0.4538348803126526 0.4797241962626701
0.33085106382978724 0.4529953265629835 0.47671924788631265
0.33106382978723403 0.4501125415243447 0.4763067904250122
0.3312765957446808 0.45375159962352685 0.4782331093355087
0.33148936170212767 0.4510418090969888 0.4770077350058268
0.33170212765957446 0.4523909728007217 0.4745644934124984
0.33191489361702126 0.4538348803126526 0.4705274577839907
0.3321276595744681 0.4538348803126526 0.46852485610223393
0.3323404255319149 0.45319472940279926 0.466266758885027
0.3325531914893617 0.4520836337854373 0.46613072949800677
0.3327659574468085 0.45188080117244755 0.4620294916455796
0.33297872340425533 0.45084759613670633 0.4576868731274245
0.3331914893617021 0.45011737520106754 0.45619403951648463
0.3334042553191489 0.4528436642734559 0.4548048316482082
0.33361702127659576 0.4540271300820988 0.45494008639571937
0.33382978723404255 0.4514917286279438 0.45403377479374785
0.33404255319148934 0.4511621017184979 0.4555306193367048
0.3342553191489362 0.45499849767750306 0.4549700122378261
0.334468085106383 0.45491675340769333 0.4504508896569331
0.3346808510638298 0.4538505356615831 0.4537722589169305
0.33489361702127657 0.45178852893278404 0.4538348803126526
0.3351063829787234 0.4515199562699366 0.4534240838675915
0.3353191489361702 0.45254794914400825 0.45188080117244755
0.335531914893617 0.449961663974777 0.45221812834332664
0.33574468085106385 0.44968258826720087 0.45139236547238565
0.33595744680851064 0.446961180139109 0.44942099065577823
0.33617021276595743 0.4462194444943239 0.45226431989585997
0.3363829787234042 0.4484674919695581 0.45109410608238965
0.33659574468085107 0.451463784848509 0.44992672203224227
0.33680851063829786 0.45013782113038575 0.44992672203224227
0.33702127659574466 0.4489908643806457 0.4489908643806457
0.3372340425531915 0.4497727591117581 0.44894968246213973
0.3374468085106383 0.4506298862524252 0.44894968246213973
0.3376595744680851 0.45019972111184026 0.4475416014811305
0.33787234042553194 0.44992672203224227 0.44540809721786634
0.33808510638297873 0.45172600130579105 0.4486400827288268
0.3382978723404255 0.4497258744894461 0.44975934907991216
0.3385106382978723 0.444935316491367 0.44460610824185925
0.33872340425531916 0.4496738214896901 0.4428691070990782
0.33893617021276595 0.44894968246213973 0.4450415241817294
0.33914893617021274 0.44941807383171883 0.44269956733383375
0.3393617021276596 0.44843872769064524 0.4401563263312165
0.3395744680851064 0.44699560332193444 0.44065631258055166
0.3397872340425532 0.4452975972066267 0.44169936793975495
0.34 0.44666356339529517 0.4434099448632558
0.3402127659574468 0.44647843096686735 0.442570272686457
0.3404255319148936 0.44539491449719154 0.4439813532353429
0.3406382978723404 0.44679503040127677 0.443288017962182
0.34085106382978725 0.4478331358144509 0.4419708983938353
0.34106382978723404 0.44761092228184285 0.44174868486122726
0.34127659574468083 0.44738870874923475 0.4415264713286193
0.3414893617021277 0.4471664952166266 0.4413042577960112
0.3417021276595745 0.4466887065446565 0.44082646912404105
0.34191489361702126 0.4453598982720769 0.43949766085146125
0.34212765957446806 0.44699890910347234 0.4417891333234376
0.3423404255319149 0.4495501330076053 0.44413910511856963
0.3425531914893617 0.45029665646352857 0.4451629452094926
0.3427659574468085 0.44899526743810164 0.445423223014578
0.34297872340425534 0.44769387841267444 0.4456835008196634
0.34319148936170213 0.44639248938724757 0.44594377862474877
0.3434042553191489 0.44622066810348376 0.44702908551009124
0.34361702127659577 0.44650425491463286 0.44844701956583677
0.34382978723404256 0.4467878417257819 0.4498649536215819
0.34404255319148935 0.44650097977497594 0.4500793890240806
0.34425531914893615 0.44465108440167905 0.44699623006858563
0.344468085106383 0.4449960243549111 0.44695010349511627
0.3446808510638298 0.44622819945589154 0.4477630071879775
0.3448936170212766 0.4469462953784246 0.4471928350959738
0.3451063829787234 0.4463551843060186 0.4495572793855978
0.3453191489361702 0.4460185637518319 0.45317172415609225
0.345531914893617 0.4469730786488827 0.45644782739061024
0.3457446808510638 0.44894968246213973 0.4557889594528579
0.34595744680851065 0.44808688562505383 0.4553575610343149
0.34617021276595744 0.44650260403318504 0.4553049191715047
0.34638297872340423 0.4460185637518319 0.4557889594528579
0.3465957446808511 0.448645216562526 0.4554137233370444
0.3468085106382979 0.4524942487631035 0.4549028178776168
0.34702127659574467 0.44979168200136094 0.4555784595680526
0.3472340425531915 0.45387575483308495 0.45297406095517495
0.3474468085106383 0.45097710754425074 0.4599005543534593
0.3476595744680851 0.4508174015486275 0.4563071197751618
0.3478723404255319 0.4499878530122295 0.45685769549294125
0.34808510638297874 0.4517186718211158 0.4588864709766095
0.34829787234042553 0.4509037616023448 0.45422643371892424
0.3485106382978723 0.45175552540870545 0.454135486452091
0.34872340425531917 0.4511892842940943 0.45467658848722065
0.34893617021276596 0.4513015313295251 0.4538348803126526
0.34914893617021275 0.45106115758838566 0.4505563059764056
0.34936170212765955 0.4518521174752408 0.45561685726961737
0.3495744680851064 0.44915433832575696 0.4566636710911518
0.3497872340425532 0.45137496922275694 0.4557889594528579
0.35 0.45322584917893927 0.4561569678892471
0.3502127659574468 0.45484082079629634 0.45877787999024777
0.3504255319148936 0.45515978626303816 0.4600449841135512
0.3506382978723404 0.4525515828279782 0.45969711773326827
0.35085106382978726 0.4536245637122451 0.45708147392357185
0.35106382978723405 0.4504030680333141 0.45933985823246437
0.35127659574468084 0.45185605888661107 0.4568031124517152
0.35148936170212763 0.452738128036042 0.4593379796137441
0.3517021276595745 0.45211946010890464 0.4572433168958746
0.3519148936170213 0.4524921683907185 0.45762306110767076
0.35212765957446807 0.45188080117244755 0.4557889594528579
0.3523404255319149 0.45188080117244755 0.4564225011113883
0.3525531914893617 0.4526471430747202 0.4544669733161423
0.3527659574468085 0.45375489471867514 0.4502466644081522
0.3529787234042553 0.450957154927137 0.44992672203224227
0.35319148936170214 0.4515110504726535 0.4501115973821393
0.35340425531914893 0.4502455725227475 0.4518603130738606
0.3536170212765957 0.4526892325563011 0.45249577709718536
0.35382978723404257 0.4519630327467198 0.45147353902955195
0.35404255319148936 0.45062600131480823 0.45327935973757943
0.35425531914893615 0.4525663953560282 0.4513409296821276
0.354468085106383 0.4499635580604468 0.4509037616023448
0.3546808510638298 0.45014963998635055 0.4531922176737125
0.3548936170212766 0.45227538766675246 0.45519707971140055
0.3551063829787234 0.45220064293818046 0.45547262054170556
0.3553191489361702 0.4498625309013568 0.4588484604249365
0.355531914893617 0.4509037616023448 0.4583400601256254
0.3557446808510638 0.4503079337018341 0.45910128983275744
0.35595744680851066 0.44992672203224227 0.460864363405525
0.35617021276595745 0.44670253595448994 0.45923305731515907
0.35638297872340424 0.45066751421195994 0.46336902862329377
0.35659574468085103 0.4497694605030527 0.4598543792624578
0.3568085106382979 0.4488203085152034 0.4610154476560987
0.3570212765957447 0.4505143753336669 0.4563288329452994
0.35723404255319147 0.448442954222014 0.450469867182517
0.3574468085106383 0.45059681766132087 0.4473025472629586
0.3576595744680851 0.4506974865791539 0.44661022104847864
0.3578723404255319 0.44992672203224227 0.44514033544925846
0.35808510638297875 0.44992672203224227 0.44286036459730077
0.35829787234042554 0.44992672203224227 0.4399515947101889
0.35851063829787233 0.450466859262232 0.43982265888098054
0.3587234042553191 0.451542670013514 0.441133365901319
0.35893617021276597 0.44887259341487407 0.4456456775376792
0.35914893617021276 0.44972459127980574 0.4443676807402816
0.35936170212765955 0.4528764568283228 0.4450415241817294
0.3595744680851064 0.453827026323747 0.44506508614844625
0.3597872340425532 0.45311618216462834 0.44823098431411545
0.36 0.45404999394636925 0.4501806973443709
0.3602127659574468 0.4507384137498594 0.4512845574098742
0.3604255319148936 0.44894968246213973 0.4523923532002236
0.3606382978723404 0.44766430814898567 0.45350052789912704
0.3608510638297872 0.4477677802123533 0.4507461727509777
0.36106382978723406 0.4461759060455931 0.4508250904554642
0.36127659574468085 0.44894968246213973 0.45183021554370223
0.36148936170212764 0.4480461341858577 0.450542342291832
0.3617021276595745 0.4446680220727758 0.44894968246213973
0.3619148936170213 0.444729005516255 0.4485198297169475
0.3621276595744681 0.4430874450415241 0.4502115411031013
0.36234042553191487 0.4465480772260744 0.4525729276093576
0.3625531914893617 0.44466809297068804 0.45368397822288736
0.3627659574468085 0.44406448461162684 0.45535916655543596
0.3629787234042553 0.4442301117760611 0.4566003718585262
0.36319148936170215 0.44501403531612044 0.45577063354245195
0.36340425531914894 0.4424495434718465 0.453382696312086
0.36361702127659573 0.44516764677239884 0.4501789672135812
0.3638297872340425 0.4456078804756813 0.4522914844485982
0.36404255319148937 0.444370914668946 0.45260916008337576
0.36425531914893616 0.4462609381346942 0.44870730807927744
0.36446808510638296 0.4474577623099112 0.44854024506831225
0.3646808510638298 0.44761550065373185 0.449306824700445
0.3648936170212766 0.44724801769511024 0.44894968246213973
0.3651063829787234 0.44699560332193444 0.44812418742417376
0.36531914893617023 0.4497825081979738 0.4479726428920372
0.365531914893617 0.4500533090173373 0.4517542141873525
0.3657446808510638 0.45154121090325006 0.45026631230143976
0.3659574468085106 0.45047502623117064 0.45297740957030425
0.36617021276595746 0.4499732977744943 0.454644457414086
0.36638297872340425 0.44699560332193444 0.45383320099809893
0.36659574468085104 0.448187349037992 0.45481191988275516
0.3668085106382979 0.44894968246213973 0.45481191988275516
0.3670212765957447 0.44894968246213973 0.45808822631456964
0.3672340425531915 0.44894968246213973 0.4559444881710782
0.36744680851063827 0.455306282193695 0.45573532864628424
0.3676595744680851 0.44724371483562303 0.455184087153288
0.3678723404255319 0.4496400758612577 0.4579731697261023
0.3680851063829787 0.4505711472124339 0.4580652511831587
0.36829787234042555 0.4488327535829952 0.45805616505939756
0.36851063829787234 0.4510034245953773 0.4591587664517007
0.36872340425531913 0.4525255086066671 0.4600094930316048
0.368936170212766 0.4483666356952332 0.4606741573033708
0.36914893617021277 0.44699560332193444 0.45552523118652066
0.36936170212765956 0.4576497271953863 0.45771759003006024
0.36957446808510636 0.4533321319943101 0.45900465291422154
0.3697872340425532 0.4567156894846474 0.46124025723010714
0.37 0.45160105033307574 0.45938292013089965
0.3702127659574468 0.4506330360965596 0.45787840134595564
0.37042553191489364 0.4528578407425501 0.4588875508085601
0.3706382978723404 0.453499619727301 0.4606741573033708
0.3708510638297872 0.45533965755651606 0.46293132316916585
0.371063829787234 0.4532197245817085 0.46446168763739504
0.37127659574468086 0.45671783343668215 0.46458231558378116
0.37148936170212765 0.4577775981271561 0.46468599418606055
0.37170212765957444 0.45842568355682833 0.4672190396877518
0.3719148936170213 0.45676599902296044 0.46611213892828524
0.3721276595744681 0.45676599902296044 0.46954056662970506
0.3723404255319149 0.4572999952993368 0.471330639591849
0.3725531914893617 0.4583898771997737 0.47367874603795035
0.3727659574468085 0.4572350945948443 0.4738447672865883
0.3729787234042553 0.45592665558058654 0.4708576413875825
0.3731914893617021 0.4539170912240732 0.4741882894619658
0.37340425531914895 0.4538509654471622 0.4723825470100923
0.37361702127659574 0.45490995440596294 0.4710294544816683
0.37382978723404253 0.4556119898258615 0.4675488282194883
0.3740425531914894 0.45095901059316823 0.4682418534054862
0.37425531914893617 0.4514084645274849 0.4662193107010613
0.37446808510638296 0.45185791846180157 0.46419676799663645
0.37468085106382976 0.45230737239611823 0.4621742252922116
0.3748936170212766 0.452756826330435 0.46015168258778616
0.3751063829787234 0.4518586112771672 0.4586978882678854
0.3753191489361702 0.4509037616023448 0.4567440623535492
0.37553191489361704 0.4509037616023448 0.45288970778173077
0.37574468085106383 0.4503178778468464 0.45129491741694905
0.3759574468085106 0.44951359637393606 0.44925125896912
0.37617021276595747 0.44894968246213973 0.44552644036411254
0.37638297872340426 0.44894968246213973 0.4407529963296478
0.37659574468085105 0.448555809766032 0.43956551728705484
0.37680851063829784 0.44810567067415047 0.4388903086492327
0.3770212765957447 0.4476555315822689 0.43821510001141034
0.3772340425531915 0.44720539249038743 0.4375398913735881
0.3774468085106383 0.44749522332876457 0.43672558761407865
0.3776595744680851 0.44993347653820986 0.43624816805080613
0.3778723404255319 0.45142668084158233 0.4326152054038847
0.3780851063829787 0.45222993676866746 0.4284318514899854
0.37829787234042556 0.4532836602336447 0.4240220908579217
0.37851063829787235 0.450209508935119 0.4192913690254491
0.37872340425531914 0.44894968246213973 0.41788059500424124
0.37893617021276593 0.45434493136875703 0.4113899591611365
0.3791489361702128 0.44880831846749536 0.4078197778547346
0.3793617021276596 0.4458820161334359 0.40514065566724977
0.37957446808510636 0.4450504238540788 0.40012974277746804
0.3797872340425532 0.4459495076444994 0.4033664444229825
0.38 0.44684859143491984 0.406603146068496
0.3802127659574468 0.44774767522534026 0.4098398477140096
0.3804255319148936 0.44864675901576073 0.4130765493595232
0.38063829787234044 0.4495458428061814 0.41631325100503763
0.38085106382978723 0.4506112175567827 0.4200801505547483
0.381063829787234 0.4517988158009052 0.4242367444091768
0.38127659574468087 0.45005898420591217 0.44456367984146317
0.38148936170212766 0.44957863784233243 0.4460185637518319
0.38170212765957445 0.4492053223003166 0.4460185637518319
0.3819148936170213 0.4488320067583007 0.4460185637518319
0.3821276595744681 0.4484586912162849 0.4460185637518319
0.3823404255319149 0.4480853756742691 0.4460185637518319
0.3825531914893617 0.446590415793293 0.4467096773012039
0.3827659574468085 0.4491430925947927 0.444652206689714
0.3829787234042553 0.4490222016139579 0.44768256628476444
0.3831914893617021 0.45188080117244755 0.4450415241817294
0.38340425531914896 0.4521852041242442 0.4451937256576277
0.38361702127659575 0.4536826721457069 0.44677960458656063
0.38382978723404254 0.45239620644074174 0.4509037616023448
0.38404255319148933 0.45116353162742473 0.45194284170266424
0.3842553191489362 0.4526528001168632 0.45519791935496307
0.384468085106383 0.45128847024523316 0.45833536952027737
0.38468085106382977 0.4540080681551447 0.46446794657312446
0.3848936170212766 0.4552470915459723 0.4672958484624804
0.3851063829787234 0.45037882796293344 0.4701732894459819
0.3853191489361702 0.45379511378298776 0.47239863214460187
0.38553191489361704 0.4523546019640031 0.47290187092314884
0.38574468085106384 0.45171447730823217 0.4744358732169147
0.38595744680851063 0.4536495787727473 0.47111500373653553
0.3861702127659574 0.4509037616023448 0.47057905937080674
0.38638297872340427 0.4509037616023448 0.47142159257449934
0.38659574468085106 0.45335428561819063 0.46570370320419247
0.38680851063829785 0.4509945494159647 0.4693162004115943
0.3870212765957447 0.44827259960636195 0.470344567432955
0.3872340425531915 0.45069331200491297 0.4696779630317259
0.3874468085106383 0.45059250055930006 0.4711103315314544
0.3876595744680851 0.4523287896097358 0.4719506437073136
0.3878723404255319 0.4522833177647784 0.4731451615078144
0.3880851063829787 0.4511761786651681 0.4680111087192934
0.3882978723404255 0.45257203899152837 0.4663934938484754
0.38851063829787236 0.4499644611910301 0.46557193487347964
0.38872340425531915 0.45176181896988155 0.4650582443940451
0.38893617021276594 0.4514051610628879 0.46623417629174774
0.3891489361702128 0.45209047061631363 0.4589297476070318
0.3893617021276596 0.4509037616023448 0.4582543157131575
0.3895744680851064 0.45026384268736325 0.4593599970781472
0.38978723404255317 0.44915444028346224 0.46201396297960834
0.39 0.4525640495632452 0.46262823644357587
0.3902127659574468 0.4518206639809123 0.4595768433501978
0.3904255319148936 0.45032139184515796 0.4579371618454586
0.39063829787234045 0.4482968142724871 0.45742339264136594
0.39085106382978724 0.4494043870002052 0.45481191988275516
0.39106382978723403 0.44992672203224227 0.45422805285796586
0.3912765957446808 0.45064343444188826 0.45096803067406843
0.39148936170212767 0.45014083276540534 0.44992672203224227
0.39170212765957446 0.45704135449432903 0.4459741484421941
0.39191489361702125 0.450565899431169 0.4457828131573654
0.3921276595744681 0.45073075596599704 0.44394997894636196
0.3923404255319149 0.4505341900886901 0.44376075058340286
0.3925531914893617 0.4521154390813335 0.4426053399122326
0.39276595744680853 0.44947467042470446 0.4471851609481901
0.3929787234042553 0.4538204181972886 0.44992093718609666
0.3931914893617021 0.4535832231952551 0.45068169338443487
0.3934042553191489 0.4526510676914052 0.45476193742758103
0.39361702127659576 0.45286445735443165 0.4526597861837769
0.39382978723404255 0.4520042686300118 0.45435426696209497
0.39404255319148934 0.4518895084075046 0.4541634625810392
0.3942553191489362 0.44934268729059834 0.4538348803126526
0.394468085106383 0.45168740051097145 0.45200973494676494
0.3946808510638298 0.44928891226932505 0.45544972964567254
0.39489361702127657 0.45285046065571455 0.4509037616023448
0.3951063829787234 0.45054709502224577 0.4512232441143661
0.3953191489361702 0.45069888617662807 0.45232880033473677
0.395531914893617 0.4493810112139829 0.45428908547777913
0.39574468085106385 0.45088865911492504 0.4552928884240966
0.39595744680851064 0.4505481429433981 0.4554333407939112
0.39617021276595743 0.4509037616023448 0.4557889594528579
0.3963829787234043 0.4509037616023448 0.45754390336855694
0.39659574468085107 0.4518170163050518 0.4528259483088522
0.39680851063829786 0.45025112888402974 0.45204300459834124
0.39702127659574465 0.45158747375694297 0.4525645133270456
0.3972340425531915 0.4517543785762699 0.4510301841985225
0.3974468085106383 0.4523041913073127 0.4488194231617675
0.3976595744680851 0.45188080117244755 0.4472927154363231
0.39787234042553193 0.45026794750684107 0.4494148838203441
0.3980851063829787 0.4555454469815079 0.4461809053993986
0.3982978723404255 0.4517039883702914 0.44593015735075386
0.3985106382978723 0.44992672203224227 0.44416946304051785
0.39872340425531916 0.45132469042469253 0.4432303184899944
0.39893617021276595 0.45192943779675815 0.4441374395480928
0.39914893617021274 0.4493215247706034 0.4441593522095136
0.3993617021276596 0.4496858264542115 0.4438101317756164
0.3995744680851064 0.4455180416871074 0.44382222509904673
0.3997872340425532 0.4448584894829244 0.441682469997734
0.4 0.44921898700581847 0.4402978733365012
0.4002127659574468 0.4480657310565343 0.43550384889194615
0.4004255319148936 0.44791375622961294 0.43722520762090866
0.4006382978723404 0.44748233851038455 0.43771194280935877
0.40085106382978725 0.4496584140081659 0.4398880183071401
0.40106382978723404 0.44894968246213973 0.4388052340380413
0.40127659574468083 0.44894968246213973 0.4382022471910112
0.4014893617021277 0.450727725141492 0.4399802898703635
0.40170212765957447 0.45257993633981203 0.441133365901319
0.40191489361702126 0.4496313650025238 0.441133365901319
0.40212765957446805 0.4507864373241443 0.441133365901319
0.4023404255319149 0.4544105075513255 0.43937999292682856
0.4025531914893617 0.44812639667397913 0.4430874450415241
0.4027659574468085 0.45356026174416303 0.44391130074699287
0.40297872340425533 0.4532416143342484 0.44832120530202213
0.4031914893617021 0.4523552894286018 0.4513876042110972
0.4034042553191489 0.4509037616023448 0.45151006101490276
0.40361702127659577 0.45305929781391213 0.45259931324297
0.40382978723404256 0.45214634262205167 0.4520135718972496
0.40404255319148935 0.4499392764999213 0.4528515635087106
0.40425531914893614 0.44704996098162997 0.44894968246213973
0.404468085106383 0.4476084859523677 0.44894968246213973
0.4046808510638298 0.44871120231534184 0.44747256361553034
0.4048936170212766 0.4494613318799644 0.4445761340294515
0.4051063829787234 0.4477884070108191 0.448709586416909
0.4053191489361702 0.45193240164465437 0.44835451665621895
0.405531914893617 0.4504969495995225 0.446161120643652
0.4057446808510638 0.44800180561017494 0.4469810219628656
0.40595744680851065 0.45001752666258854 0.4505405430809596
0.40617021276595744 0.4504780731579276 0.4480598244329776
0.40638297872340423 0.44963751768674026 0.45222471878474785
0.4065957446808511 0.45042695743973815 0.4519042324173367
0.40680851063829787 0.45114153691222436 0.4533333913623089
0.40702127659574466 0.45188080117244755 0.45407628845498144
0.4072340425531915 0.45101455814986224 0.45729985240299337
0.4074468085106383 0.452807695470746 0.45676599902296044
0.4076595744680851 0.4499847883888061 0.45676599902296044
0.4078723404255319 0.45163356531545407 0.45570654750052675
0.40808510638297874 0.4498904362625684 0.4561289752033554
0.4082978723404255 0.4527639493015238 0.4605802658623445
0.4085106382978723 0.4495986314617676 0.4567587668816389
0.40872340425531917 0.44980012648925943 0.45608758592343485
0.40893617021276596 0.4509037616023448 0.45983838153292517
0.40914893617021275 0.4515333351023916 0.4610216233734267
0.40936170212765954 0.4489945656814341 0.459231039557864
0.4095744680851064 0.45044436133944066 0.46119179661056914
0.4097872340425532 0.4527716283482835 0.46258513024644254
0.41 0.4499933910094576 0.4615178589190426
0.4102127659574468 0.4524604090744865 0.45969711773326827
0.4104255319148936 0.4588531819106667 0.4619476132602058
0.4106382978723404 0.4563737133157816 0.46515972005101575
0.41085106382978726 0.456794021053169 0.45913854287269545
0.41106382978723405 0.45897023646553964 0.45860679583167535
0.41127659574468084 0.4589708179273697 0.46042341753916666
0.41148936170212763 0.46093558365041964 0.4591971536452013
0.4117021276595745 0.46165119687347334 0.46199593577881676
0.41191489361702127 0.4607107757792471 0.4598069731608971
0.41212765957446806 0.4604833303596414 0.46322362212621987
0.4123404255319149 0.4587200781631655 0.46059038471673325
0.4125531914893617 0.45801794826396897 0.46430740591287517
0.4127659574468085 0.45676599902296044 0.4655593551538837
0.4129787234042553 0.45615745872626273 0.4655593551538837
0.41319148936170214 0.4565215757482349 0.47215290181227676
0.41340425531914893 0.4576223208133493 0.4657894933809178
0.4136170212765957 0.45771409958807174 0.4597357030732566
0.41382978723404257 0.45508954860114653 0.46249476114011323
0.41404255319148936 0.4578495943028461 0.4560598582728293
0.41425531914893615 0.45866854305952587 0.45596375332542244
0.414468085106383 0.4557889594528579 0.45534451970149037
0.4146808510638298 0.45645291151365813 0.4571168635744583
0.4148936170212766 0.455973059885826 0.45853597773019744
0.4151063829787234 0.45855985711677255 0.4587200781631655
0.4153191489361702 0.4557107757419278 0.4580557734367833
0.415531914893617 0.4551983807342566 0.4602985838932183
0.4157446808510638 0.4550277712295059 0.4558051929075863
0.41595744680851066 0.45065668388429964 0.45543524982890754
0.41617021276595745 0.4504389625686432 0.4480042705605031
0.41638297872340424 0.44894968246213973 0.4460185637518319
0.4165957446808511 0.44894968246213973 0.44404091930643735
0.4168085106382979 0.448223584779251 0.443813542724413
0.41702127659574467 0.4496350098370863 0.4424021176665775
0.41723404255319146 0.44898257906888184 0.43738969065461925
0.4174468085106383 0.446920103924426 0.43429408891060084
0.4176595744680851 0.4462002809999447 0.43556610964739023
0.4178723404255319 0.4475735745915547 0.43824350955321784
0.41808510638297874 0.4485506950304969 0.4293680330420786
0.41829787234042554 0.4479726428920372 0.4259689946659103
0.41851063829787233 0.4461240715596478 0.42611692322380734
0.4187234042553191 0.4457699712585917 0.42720621942664244
0.41893617021276597 0.4485401645674785 0.42577374470945173
0.41914893617021276 0.44800556517259693 0.42833308464830616
0.41936170212765955 0.44888953975216683 0.4255007327796776
0.4195744680851064 0.4478013865913565 0.4255007327796776
0.4197872340425532 0.4475987276941724 0.4258022949657965
0.42 0.45024506928169583 0.425182385530224
0.42021276595744683 0.45300982538800355 0.4235466536394723
0.4204255319148936 0.4482556710330488 0.42633625827927424
0.4206382978723404 0.4501569030949885 0.42662714405125135
0.4208510638297872 0.44995458365827595 0.428376128237918
0.42106382978723406 0.4472023748025401 0.43223662403009294
0.42127659574468085 0.4487144690192971 0.4311277567574504
0.42148936170212764 0.44649512753198217 0.43149406715023175
0.4217021276595745 0.4450696589805591 0.43381963652496447
0.4219148936170213 0.447921125528222 0.43175733987541415
0.4221276595744681 0.44818521966257074 0.4296214678306215
0.42234042553191486 0.4470752151589019 0.4321011742594934
0.4225531914893617 0.4460185637518319 0.43624816805080613
0.4227659574468085 0.4458475255077954 0.43624816805080613
0.4229787234042553 0.4460643268619101 0.43803807274112233
0.42319148936170214 0.44824982580725814 0.4430874450415241
0.42340425531914894 0.44791053537403086 0.4481195713280541
0.42361702127659573 0.44830670893760327 0.4541563670749208
0.4238297872340426 0.4470719509968192 0.4547737460453128
0.42404255319148937 0.4469994856754449 0.4607071573082098
0.42425531914893616 0.4474081716148159 0.4641809877928631
0.42446808510638295 0.44781685755418693 0.4676548182775163
0.4246808510638298 0.44822554349355803 0.4711286487621705
0.4248936170212766 0.448634229432929 0.47460247924682375
0.4251063829787234 0.44894968246213973 0.4745340323489215
0.42531914893617023 0.44894968246213973 0.4624803097719573
0.425531914893617 0.4491060497168354 0.46165119687347334
0.4257446808510638 0.44927396713777124 0.46165119687347334
0.4259574468085106 0.44944188455870715 0.46165119687347334
0.42617021276595746 0.4496098019796431 0.46165119687347334
0.42638297872340425 0.44977771940057903 0.46165119687347334
0.42659574468085104 0.45000388748115566 0.4613425350778198
0.4268085106382979 0.4506889293803869 0.4586023674808945
0.4270212765957447 0.45034953927356663 0.4544177046203937
0.4272340425531915 0.44969173452388544 0.4525857636975181
0.4274468085106383 0.4491984235304042 0.4540656966779618
0.4276595744680851 0.4492114127163536 0.4537649988658995
0.4278723404255319 0.44973933703744884 0.4516533015815186
0.4280851063829787 0.450679605375927 0.4501508782586602
0.42829787234042555 0.45184676992163514 0.44898371371295215
0.42851063829787234 0.4507356846269115 0.4504765045228544
0.42872340425531913 0.4495561769390922 0.45204918143994677
0.428936170212766 0.44965807564576465 0.4507326611916751
0.42914893617021277 0.45152125833006795 0.4471191026674791
0.42936170212765956 0.45575868979162193 0.44796658895979
0.42957446808510635 0.45306809399884307 0.4497865531947136
0.4297872340425532 0.45511640042499607 0.44917386880476035
0.43 0.45371662753247577 0.44964045976893374
0.4302127659574468 0.4523380318394454 0.450446530935347
0.43042553191489363 0.451594947702882 0.45118961507191035
0.4306382978723404 0.4511500162779314 0.45183155023733024
0.4308510638297872 0.4546759289519923 0.45112636770251796
0.43106382978723407 0.45504722900545647 0.4509037616023448
0.43127659574468086 0.45228376272162796 0.45258919970976313
0.43148936170212765 0.45188080117244755 0.45096806437211406
0.43170212765957444 0.45631146337052353 0.455334423800421
0.4319148936170213 0.45383171289981744 0.45480558505708485
0.4321276595744681 0.4528578407425501 0.45324260630261703
0.4323404255319149 0.4531133206969881 0.45527799954398185
0.4325531914893617 0.4522992189862172 0.4538348803126526
0.4327659574468085 0.450955938599792 0.45434948859642743
0.4329787234042553 0.4529655489778028 0.45481191988275516
0.4331914893617021 0.4555858784394356 0.45481191988275516
0.43340425531914895 0.4553463465132998 0.4533922673730947
0.43361702127659574 0.45397017891884656 0.4536995817064587
0.43382978723404253 0.45578226965794405 0.45480857498529825
0.4340425531914894 0.45931525204285245 0.45421674600306844
0.43425531914893617 0.45599893424592425 0.4570216872819725
0.43446808510638296 0.4542201512404793 0.4581283095208897
0.4346808510638298 0.4563546453649788 0.4582058363357577
0.4348936170212766 0.4559223024559617 0.46017068677586465
0.4351063829787234 0.4541260411191904 0.4623370756370381
0.4353191489361702 0.4538348803126526 0.460217095523165
0.43553191489361703 0.45211005266728876 0.4588347039105862
0.4357446808510638 0.45284700751071155 0.4587200781631655
0.4359574468085106 0.45371610628155684 0.45726794246867986
0.43617021276595747 0.4528578407425501 0.4533354948563203
0.43638297872340426 0.4532271931710268 0.4515114487439708
0.43659574468085105 0.4538348803126526 0.4531623967940308
0.43680851063829784 0.452842733489587 0.45430073921825936
0.4370212765957447 0.45476529214521655 0.4574730262989805
0.4372340425531915 0.45465851178559386 0.4536491998454823
0.4374468085106383 0.4530478199214152 0.45011670121110736
0.4376595744680851 0.45375590607272626 0.45082478736241843
0.4378723404255319 0.4518421702036789 0.44894968246213973
0.4380851063829787 0.45171466432804497 0.44878750191699973
0.43829787234042555 0.4546280450058284 0.4497140145625815
