0.0 0.44992672203224227 0.44211040547142155
0.0002127659574468085 0.4486374390819718 0.44211040547142155
0.000425531914893617 0.44845145656099095 0.4430680328093291
0.0006382978723404255 0.4505129804270176 0.4451066832548787
0.000851063829787234 0.45026275101491403 0.44655791380434307
0.0010638297872340426 0.45006271569038453 0.44699560332193444
0.001276595744680851 0.44835498462956486 0.44699560332193444
0.0014893617021276596 0.4477489958363741 0.44925578086525314
0.001702127659574468 0.4462167375408684 0.4464149113299048
0.0019148936170212765 0.44794995217547257 0.44508690561485864
0.002127659574468085 0.4467149737747376 0.4467149737747376
0.002340425531914894 0.44610617761490556 0.4455738508983174
0.002553191489361702 0.44934594436738556 0.4485806509429178
0.0027659574468085106 0.44728550184308347 0.4493190294888496
0.0029787234042553193 0.45031204129645025 0.4486314575313773
0.0031914893617021275 0.4504938325115904 0.4481616797184866
0.003404255319148936 0.45311455462175854 0.44558176844989994
0.003617021276595745 0.45204486414389733 0.44325150801297386
0.003829787234042553 0.45276125248441185 0.4380090706747347
0.004042553191489362 0.4503658027800387 0.4339354496957301
0.00425531914893617 0.448591742471499 0.4320304599806648
0.004468085106382979 0.4490489124269456 0.43048516059499636
0.004680851063829788 0.4479726428920372 0.42883789276212064
0.004893617021276595 0.44937715863768335 0.42983636723563157
0.005106382978723404 0.44992672203224227 0.4312197613714732
0.005319148936170213 0.44992672203224227 0.43039598223196807
0.005531914893617021 0.4472399978830004 0.43539332576123635
0.00574468085106383 0.44945929576927635 0.43726739466507936
0.005957446808510639 0.4509037616023448 0.4413028795015814
0.006170212765957446 0.4498817027772591 0.4446205332791528
0.006382978723404255 0.44957971826962 0.4479086711742728
0.006595744680851064 0.44766659556090116 0.45120980893348084
0.006808510638297872 0.4496468200144132 0.4580669734548977
0.007021276595744681 0.4490315465713595 0.4635643439590687
0.00723404255319149 0.45175027279952384 0.4634747476407549
0.007446808510638298 0.45636726342528533 0.4686700422389438
0.007659574468085106 0.45484886838469596 0.4701812339137706
0.007872340425531916 0.4509037616023448 0.466380746490422
0.008085106382978723 0.45026299429314803 0.4652230828929779
0.008297872340425531 0.4506955962390758 0.46325273253338295
0.00851063829787234 0.44910756322181383 0.46173013725331036
0.008723404255319148 0.45084940562527526 0.4615424849193343
0.008936170212765958 0.4502898567177889 0.4593339830477216
0.009148936170212766 0.4515782438138977 0.45804559595161276
0.009361702127659575 0.45170910197006425 0.45912274834702527
0.009574468085106383 0.4523493820924634 0.46020557638335496
0.00978723404255319 0.4506100411220247 0.46385105742942784
0.01 0.45069268045309063 0.4617295630496415
0.010212765957446808 0.44910841450315453 0.45977648375377567
0.010425531914893617 0.4528070429608245 0.45666440345950926
0.010638297872340425 0.4513262235608221 0.45462706067888
0.010851063829787235 0.4495885268950995 0.4538348803126526
0.011063829787234043 0.4504507485301012 0.4542878933848962
0.01127659574468085 0.45051223171920934 0.4553974295697224
0.01148936170212766 0.4509037616023448 0.4572277300113981
0.011702127659574468 0.4509037616023448 0.45689383958981716
0.011914893617021277 0.45189383778087644 0.4509037616023448
0.012127659574468085 0.45369890712148175 0.45008792245531953
0.012340425531914893 0.45260327087761404 0.4427503953973046
0.012553191489361702 0.4522575038635438 0.43398795190422834
0.01276595744680851 0.45336327260325543 0.42836420318736906
0.01297872340425532 0.45447297914974033 0.42328727816434136
0.013191489361702127 0.45403920946128007 0.41927444323484186
0.013404255319148937 0.4565553348030624 0.42047509211589934
0.013617021276595745 0.455852391406044 0.4247774210223195
0.013829787234042552 0.456574789086377 0.4290054812997357
0.014042553191489362 0.45611350689046853 0.43233661251312494
0.01425531914893617 0.45676599902296044 0.4356643207644015
0.01446808510638298 0.4550040306369342 0.43898717600693493
0.014680851063829787 0.4581044382470739 0.4444258842656376
0.014893617021276596 0.4549310934723863 0.45078458801271387
0.015106382978723404 0.45564288217773113 0.4536888030375259
0.015319148936170212 0.4517847645791403 0.45891215134978003
0.015531914893617021 0.44999408610158365 0.46249350830489316
0.01574468085106383 0.45278832061509605 0.4601142384979926
0.015957446808510637 0.45224511173612253 0.46537719987204623
0.016170212765957447 0.4529438708282161 0.4642853124223023
0.016382978723404256 0.45131473352251267 0.46237236025317524
0.016595744680851062 0.4524058999869048 0.46224945374674253
0.01680851063829787 0.452220803346334 0.46487935080611076
0.01702127659574468 0.4503896604734659 0.4640682144549022
0.01723404255319149 0.4516403046327378 0.46531885861417394
0.017446808510638297 0.45188080117244755 0.46746481572358195
0.017659574468085106 0.4519618106041086 0.4666174041556473
0.017872340425531916 0.4528578407425501 0.46677044811355195
0.018085106382978722 0.4525637722699716 0.46331120754110006
0.01829787234042553 0.45269392381158047 0.46181511380444296
0.01851063829787234 0.45331520835916583 0.46171350121034443
0.01872340425531915 0.45222461922628737 0.4581956858297366
0.018936170212765956 0.45113100425458597 0.4557889594528579
0.019148936170212766 0.4517642598209183 0.45148646835999107
0.019361702127659575 0.44997002020875393 0.4509037616023448
0.01957446808510638 0.4471798150585539 0.44992672203224227
0.01978723404255319 0.44894968246213973 0.44992672203224227
0.02 0.44959329008166077 0.44928311441272123
0.02021276595744681 0.4509037616023448 0.4479726428920372
0.020425531914893616 0.4503555193674684 0.4479726428920372
0.020638297872340425 0.44992672203224227 0.4479726428920372
0.020851063829787235 0.44992672203224227 0.4464236617495595
0.02106382978723404 0.45081446849971346 0.4451308172843607
0.02127659574468085 0.4509037616023448 0.4450415241817294
0.02148936170212766 0.45070783880414705 0.4448456013835316
0.02170212765957447 0.44894968246213973 0.44329733690778184
0.021914893617021276 0.44862799859781033 0.44470785234028565
0.022127659574468085 0.4492722175533662 0.4438526059829501
0.022340425531914895 0.451449267118544 0.4422243769337172
0.0225531914893617 0.45056507541613866 0.4424295821633697
0.02276595744680851 0.4483805128891311 0.44133730089986595
0.02297872340425532 0.45241263451030855 0.44202136422497323
0.023191489361702126 0.44804071155168 0.4411560554545333
0.023404255319148935 0.4510349392797515 0.44184805011660816
0.023617021276595745 0.45113864037274753 0.4399089393979831
0.023829787234042554 0.44967814741937984 0.44100044915421416
0.02404255319148936 0.4480232569192453 0.442624232270077
0.02425531914893617 0.4474259299602533 0.44172946734595
0.02446808510638298 0.44894968246213973 0.4414114680765238
0.024680851063829785 0.44733586591944735 0.43871264108728053
0.024893617021276595 0.44882995823244215 0.43911942464626497
0.025106382978723404 0.44802762113064426 0.43739014233672985
0.025319148936170214 0.44894968246213973 0.43934774685446965
0.02553191489361702 0.44944190491912017 0.4365016846231546
0.02574468085106383 0.4505432447696619 0.4405168431638994
0.02595744680851064 0.45134694029579525 0.44160677198917
0.026170212765957445 0.45227045839051205 0.4426977878234596
0.026382978723404255 0.45327956422195304 0.443786826566277
0.026595744680851064 0.4530235873273551 0.44487577759692437
0.026808510638297874 0.45193332316308554 0.44781507692012323
0.02702127659574468 0.4507825850672269 0.4454050537870831
0.02723404255319149 0.44929061354529354 0.4503923649776141
0.0274468085106383 0.4514606064749942 0.4479726428920372
0.027659574468085105 0.4520798183969969 0.44641659820093094
0.027872340425531914 0.45240784739267853 0.4470726561922942
0.028085106382978724 0.4526096124240499 0.44931408808794093
0.028297872340425533 0.45188080117244755 0.4525749496906359
0.02851063829787234 0.4527178265879008 0.4538348803126526
0.02872340425531915 0.4528578407425501 0.45478497166193066
0.02893617021276596 0.45277128364149233 0.45027295043647325
0.029148936170212764 0.4528808741947817 0.4536348657081858
0.029361702127659574 0.455816694156095 0.45317427569817187
0.029574468085106383 0.4538348803126526 0.4538348803126526
0.029787234042553193 0.4549257461419426 0.4538348803126526
0.03 0.45381086761681344 0.4544942442580007
0.03021276595744681 0.4520848060958192 0.45481191988275516
0.030425531914893618 0.4527672740173593 0.4556983927276671
0.030638297872340424 0.4538117012837978 0.4577893966507727
0.030851063829787233 0.4534018725111214 0.45969711773326827
0.031063829787234043 0.4547694085771424 0.45894839631608647
0.03127659574468085 0.44998569060151583 0.4581473432087952
0.03148936170212766 0.45188080117244755 0.46152931420152293
0.03170212765957447 0.45296075267266 0.46208826069346964
0.031914893617021274 0.453179941860715 0.46361601222928644
0.03212765957446809 0.4513162371577514 0.4607283066217846
0.03234042553191489 0.4491375897090051 0.46234637557327785
0.0325531914893617 0.4489643545100526 0.4587494222589913
0.03276595744680851 0.44992672203224227 0.46004209977548216
0.03297872340425532 0.4501629849747869 0.4553164335677686
0.033191489361702124 0.4498642688441322 0.4545278754847944
0.03340425531914894 0.4493066073677512 0.45756757875381
0.03361702127659574 0.44985541386178945 0.45917294386299046
0.033829787234042556 0.4508150327896422 0.4612072119331687
0.03404255319148936 0.45114459972257864 0.4641006393433136
0.03425531914893617 0.4517539452319904 0.46373213195413576
0.03446808510638298 0.44802760495430705 0.4636052760136786
0.03468085106382979 0.4501223937915322 0.4585244064038756
0.03489361702127659 0.45167381917701005 0.4569729810183979
0.035106382978723406 0.45026576517940964 0.4558290493242574
0.03531914893617021 0.45018692343061084 0.4522932148286046
0.03553191489361702 0.45188080117244755 0.4528578407425501
0.03574468085106383 0.45188080117244755 0.4546930989399219
0.03595744680851064 0.4511593428875545 0.4572318760226437
0.036170212765957444 0.45257169434653405 0.457743038593063
0.036382978723404256 0.4481332951258192 0.4567981294697168
0.03659574468085106 0.451597796695237 0.45571184444253654
0.03680851063829787 0.4581829187463064 0.45481191988275516
0.03702127659574468 0.4521811886397451 0.4545115324154576
0.03723404255319149 0.45409713388636097 0.45342178259804905
0.0374468085106383 0.45264897856915426 0.453381170889834
0.03765957446808511 0.45182675802943684 0.45256818964785633
0.03787234042553191 0.45137582925329167 0.4533628126617058
0.038085106382978726 0.4534388779728876 0.4538348803126526
0.03829787234042553 0.45291708158252914 0.45567047777289976
0.03851063829787234 0.45383109310118963 0.45480813267129216
0.03872340425531915 0.4528578407425501 0.4538348803126526
0.03893617021276596 0.45301020701216504 0.45398724658226763
0.03914893617021276 0.45453053107935487 0.4557889594528579
0.039361702127659576 0.4537529005060867 0.4551176646302055
0.03957446808510638 0.4565203087497059 0.45261215046929554
0.03978723404255319 0.45511721843277864 0.4512090601523683
0.04 0.4545801936542716 0.4502993787030517
0.04021276595744681 0.45498233990482395 0.4509037616023448
0.04042553191489362 0.4529327077325652 0.44955050273221364
0.040638297872340426 0.45188080117244755 0.44702204735628004
0.04085106382978723 0.4528559672119068 0.4460185637518319
0.041063829787234045 0.45340612105212624 0.44516104523077915
0.04127659574468085 0.4525134487034308 0.4447532686898654
0.04148936170212766 0.4515106092673184 0.44675894756209017
0.04170212765957447 0.4509037616023448 0.4462534917263076
0.041914893617021276 0.45221135975062526 0.44406448461162684
0.04212765957446808 0.4531288272131413 0.44300540496235974
0.042340425531914895 0.45268835799936386 0.4416717371192632
0.0425531914893617 0.45454929034582053 0.4425621859676549
0.04276595744680851 0.45320460768259946 0.4405030932712658
0.04297872340425532 0.45149511057781094 0.43956497735575034
0.043191489361702126 0.45136159661981645 0.4401563263312165
0.04340425531914894 0.4522701381570267 0.43937765236205806
0.043617021276595745 0.4530940819410917 0.4382022471910112
0.04382978723404255 0.4535999840984036 0.43867203961950935
0.044042553191489364 0.4531553567680486 0.4401563263312165
0.04425531914893617 0.4531202401509603 0.4397990062503703
0.044468085106382976 0.4511125669443442 0.43917928676111373
0.04468085106382979 0.4510672552749488 0.43917928676111373
0.044893617021276595 0.4512283677748678 0.43917928676111373
0.0451063829787234 0.4494072114112767 0.4400943446593878
0.045319148936170214 0.4504044442345493 0.4401779214967049
0.04553191489361702 0.4494999143516211 0.43917928676111373
0.045744680851063826 0.4475832922064742 0.4403473388178026
0.04595744680851064 0.4472759007762042 0.44183010801715183
0.046170212765957445 0.44773936797185176 0.44090009098113364
0.04638297872340425 0.4477756895224876 0.4404163550647342
0.046595744680851064 0.45018625975768944 0.4416524413522134
0.04680851063829787 0.45070708427918915 0.4432841223646798
0.047021276595744683 0.44992672203224227 0.4442864357323762
0.04723404255319149 0.45100382688570906 0.4447722479683627
0.047446808510638296 0.4526576359994454 0.44524172892483405
0.04765957446808511 0.44992672203224227 0.44743371910950414
0.047872340425531915 0.4489513817190908 0.4473190175027005
0.04808510638297872 0.44958596855366423 0.45079017710948555
0.048297872340425534 0.45123617047087416 0.4507996876579969
0.04851063829787234 0.44992672203224227 0.4512311102069915
0.048723404255319146 0.44839338567687514 0.45111413299476383
0.04893617021276596 0.45237692010465963 0.45178461704486944
0.049148936170212765 0.44898502242209554 0.45284017076257216
0.04936170212765957 0.4507165978993406 0.45188080117244755
0.049574468085106384 0.4470542574993857 0.45188080117244755
0.04978723404255319 0.4478789914115477 0.45253636153587384
0.05 0.44661331901394674 0.4577643673931962
0.05021276595744681 0.44474634367838656 0.453244519305967
0.050425531914893615 0.44557850943467947 0.453016319789737
0.05063829787234043 0.44754803081266376 0.45481191988275516
0.050851063829787234 0.4466045516103359 0.4552029715943538
0.05106382978723404 0.44722437556114336 0.4557889594528579
0.05127659574468085 0.4485431988663794 0.4560195466471684
0.05148936170212766 0.44413689170563075 0.4567539311739598
0.051702127659574465 0.4477440091196574 0.4595256424039834
0.05191489361702128 0.4498264300541667 0.4569164369900738
0.052127659574468084 0.4508402687288791 0.4576795457195973
0.05234042553191489 0.45089293930219004 0.45682011052373417
0.0525531914893617 0.45010808095383076 0.4618325557950618
0.05276595744680851 0.45171584185300373 0.46393519465256616
0.05297872340425532 0.4513999712392699 0.46506314551695865
0.05319148936170213 0.45250013355705676 0.4643206903846653
0.053404255319148934 0.45094207501384165 0.4650899920745808
0.05361702127659575 0.4516778622414958 0.4639986021806967
0.05382978723404255 0.4528578407425501 0.46639679314614696
0.05404255319148936 0.45366605929096043 0.4667052157456784
0.05425531914893617 0.4519902845714895 0.4646917989828231
0.05446808510638298 0.45762893057807535 0.4636623300211724
0.054680851063829784 0.4553704088455601 0.46458231558378116
0.0548936170212766 0.4526638259915272 0.4641942860817354
0.0551063829787234 0.45210051466083895 0.4624085229551845
0.05531914893617021 0.4522085999852857 0.4610019561162089
0.05553191489361702 0.4508641240754072 0.4584857276523743
0.05574468085106383 0.4532789416387692 0.457743038593063
0.055957446808510634 0.4509316897410816 0.45679392716169703
0.05617021276595745 0.44990406343062267 0.45481191988275516
0.05638297872340425 0.4515859316547495 0.4554016589181512
0.056595744680851066 0.451432218638847 0.45650177050470936
0.05680851063829787 0.45258940083687454 0.45632583926420905
0.05702127659574468 0.4534250971124703 0.4569708906230516
0.05723404255319149 0.456341520614654 0.45509222347843703
0.0574468085106383 0.4540193150328571 0.4557889594528579
0.057659574468085104 0.45676599902296044 0.4557889594528579
0.05787234042553192 0.45655516647295036 0.4553672943528377
0.05808510638297872 0.4560668027550184 0.4539738019637328
0.05829787234042553 0.457743038593063 0.4549535942470196
0.05851063829787234 0.45793869372396384 0.45539764919105613
0.05872340425531915 0.45848739231490065 0.4543002520091824
0.058936170212765954 0.4574714336717076 0.4557889594528579
0.05914893617021277 0.45613699986949685 0.4545309611459308
0.05936170212765957 0.45512566285373496 0.4521945441434273
0.059574468085106386 0.4555621434059357 0.4528578407425501
0.05978723404255319 0.4549749248305211 0.45253183084701826
0.06 0.45569591114071345 0.45053156835376695
0.06021276595744681 0.45450117254777356 0.4468920208769406
0.06042553191489362 0.4517158569780812 0.4453587869743665
0.06063829787234042 0.4511148594548586 0.44253260117644905
0.060851063829787236 0.45188080117244755 0.44325944162861786
0.06106382978723404 0.45158299231669136 0.44123263551990444
0.06127659574468085 0.4505840202481773 0.4415656262094091
0.06148936170212766 0.44958504817966316 0.44189861689891374
0.06170212765957447 0.4482166409726075 0.4417438847266555
0.06191489361702127 0.44699560332193444 0.4419404028981862
0.062127659574468086 0.44699560332193444 0.4471502744056385
0.06234042553191489 0.44749760050391085 0.44886881808058965
0.0625531914893617 0.4479726428920372 0.44487797815641217
0.0627659574468085 0.44925726474500016 0.44213755183218223
0.06297872340425532 0.44922413877389245 0.44183594915966884
0.06319148936170213 0.44668764040605546 0.44135639145272687
0.06340425531914894 0.4460185637518319 0.4433126974082989
0.06361702127659574 0.4467918081487029 0.44483772900849783
0.06382978723404255 0.44699560332193444 0.44419802115548135
0.06404255319148935 0.4478884907629616 0.44406448461162684
0.06425531914893617 0.4498704342164617 0.44691117159826366
0.06446808510638298 0.449974850756591 0.4488534250134423
0.06468085106382979 0.4504776047479067 0.4469245771795281
0.06489361702127659 0.44565923414655517 0.4462656477377622
0.0651063829787234 0.44984300172642183 0.4479726428920372
0.06531914893617022 0.44894968246213973 0.4477843130109171
0.06553191489361702 0.4492995037455267 0.4464849921296811
0.06574468085106383 0.4514766955523551 0.44952261641214986
0.06595744680851064 0.4483596698566376 0.4479726428920372
0.06617021276595744 0.4458923536025587 0.44754722818162246
0.06638297872340425 0.44806954585849484 0.44699560332193444
0.06659574468085107 0.4476479479259432 0.44764647059003276
0.06680851063829787 0.44929182543567253 0.4464418281495451
0.06702127659574468 0.44464550165040184 0.4468987671488053
0.06723404255319149 0.44309600574353325 0.4460290268320653
0.06744680851063829 0.4515854007680872 0.45640495408429776
0.06765957446808511 0.44898188874380035 0.4490355658799014
0.06787234042553192 0.4479989561308216 0.45180186145609447
0.06808510638297872 0.448870261580533 0.45227790558048125
0.06829787234042553 0.4481568218990009 0.4560292829951055
0.06851063829787234 0.4492061947441908 0.4528578407425501
0.06872340425531914 0.44992672203224227 0.4531285235532502
0.06893617021276596 0.4488402025497664 0.4538348803126526
0.06914893617021277 0.4474664333588918 0.45618903049743903
0.06936170212765957 0.44681732180667577 0.45583177544976217
0.06957446808510638 0.44739807707905066 0.45452463697626194
0.06978723404255319 0.4471702564741415 0.4580214655543374
0.06999999999999999 0.4497161695655608 0.4569063673340814
0.07021276595744681 0.4498876675157936 0.46354669423900563
0.07042553191489362 0.4483057068393416 0.4606741573033708
0.07063829787234042 0.45073968589448604 0.46034600588765323
0.07085106382978723 0.4494614474579668 0.45825480358889004
0.07106382978723404 0.4476349578163283 0.4564283139472516
0.07127659574468086 0.44699560332193444 0.4553519836587207
0.07148936170212766 0.44537934058705175 0.45642818261763796
0.07170212765957447 0.4453656636913703 0.457743038593063
0.07191489361702127 0.4475354923437935 0.457743038593063
0.07212765957446808 0.44538376632139126 0.457743038593063
0.07234042553191489 0.44601808926244696 0.46067273383521595
0.0725531914893617 0.44644405178729163 0.4646886875926461
0.07276595744680851 0.4505138980240305 0.4655593551538837
0.07297872340425532 0.4518590455893648 0.46505995757729107
0.07319148936170213 0.44894968246213973 0.4628796938403252
0.07340425531914893 0.44894968246213973 0.46165119687347334
0.07361702127659574 0.45011868998144655 0.4604821893541665
0.07382978723404256 0.4509037616023448 0.46248515769292337
0.07404255319148936 0.4517158021423079 0.4644173165536415
0.07425531914893617 0.452805551017824 0.46273281589302806
0.07446808510638298 0.4520034332204278 0.46452099955979104
0.07468085106382978 0.4540097583785082 0.4637801540795342
0.0748936170212766 0.45423358418419685 0.466028154830177
0.07510638297872341 0.4536646664094211 0.4698709262677296
0.07531914893617021 0.45574178863591097 0.47183935613413025
0.07553191489361702 0.4546864539926869 0.4728557854571361
0.07574468085106383 0.4559893369169632 0.4742775298492498
0.07595744680851063 0.45564983041212564 0.47114333449303497
0.07617021276595745 0.4533186980133348 0.4679742915648737
0.07638297872340426 0.45532793247493647 0.4650433425617026
0.07659574468085106 0.4557889594528579 0.4583940837171218
0.07680851063829787 0.45577953578534997 0.449920439587237
0.07702127659574468 0.452901377207365 0.4480016672019138
0.0772340425531915 0.4538348803126526 0.4436897354970013
0.0774468085106383 0.45404112236288746 0.4397438422307468
0.07765957446808511 0.45449695202832385 0.4382022471910112
0.07787234042553191 0.45511984476289025 0.43734560422418617
0.07808510638297872 0.4546357523398868 0.43624816805080613
0.07829787234042553 0.4541302916359874 0.43624816805080613
0.07851063829787235 0.45555915835511457 0.4355009295784467
0.07872340425531915 0.45320735232127424 0.4326895213491199
0.07893617021276596 0.4528578407425501 0.4362301998211769
0.07914893617021276 0.453640910443259 0.4373221925556055
0.07936170212765957 0.45188080117244755 0.4379743584828621
0.07957446808510638 0.45188080117244755 0.4368381509978777
0.0797872340425532 0.45126280332694757 0.43917928676111373
0.08 0.45162122617515515 0.4400265388325702
0.08021276595744681 0.4516815284222623 0.441133365901319
0.08042553191489361 0.4505807000056354 0.44309529982149853
0.08063829787234042 0.4539785035904843 0.44406448461162684
0.08085106382978724 0.45041788319899656 0.4405492552646199
0.08106382978723405 0.45280962653742385 0.44105300889277527
0.08127659574468085 0.45005477457775395 0.43624816805080613
0.08148936170212766 0.4509037616023448 0.43624816805080613
0.08170212765957446 0.4509037616023448 0.43589172713035373
0.08191489361702127 0.45043849839126043 0.4352711284807034
0.08212765957446809 0.4504980673409729 0.4346997831719727
0.0823404255319149 0.4515880991496369 0.43566276400518483
0.0825531914893617 0.450279374765414 0.4370488812543228
0.08276595744680851 0.44900986471825893 0.43539149299294183
0.08297872340425531 0.44900552254861636 0.439290966934067
0.08319148936170212 0.45009458008853975 0.4416369400702115
0.08340425531914894 0.45036064886890087 0.44433604097834883
0.08361702127659575 0.4501017194412854 0.44619356116087505
0.08382978723404255 0.45138482596544055 0.4484686180990441
0.08404255319148936 0.4509037616023448 0.4471330213291905
0.08425531914893616 0.448034046038328 0.44314884818781514
0.08446808510638298 0.4511515435972471 0.44211040547142155
0.08468085106382979 0.44906297480160795 0.44680678275615404
0.0848936170212766 0.4479726428920372 0.45061226921271524
0.0851063829787234 0.44866084121208116 0.44682355374192345
0.08531914893617021 0.4510160093790488 0.44493757401008344
0.08553191489361701 0.44829998419340267 0.441133365901319
0.08574468085106383 0.44894968246213973 0.44289319580534114
0.08595744680851064 0.44783957621595566 0.4439314179355453
0.08617021276595745 0.44499416744657483 0.44375459033331077
0.08638297872340425 0.4448449035102255 0.4471861602060216
0.08659574468085106 0.4450415241817294 0.4470757570199134
0.08680851063829788 0.44699560332193444 0.4480358868183498
0.08702127659574468 0.4465572120451906 0.4502189828834049
0.08723404255319149 0.44484351354517865 0.45162112486126355
0.0874468085106383 0.44995937374286005 0.4497923476944978
0.0876595744680851 0.4552941955217858 0.4484549185310677
0.08787234042553191 0.4516090743985024 0.4501439353348127
0.08808510638297873 0.44894968246213973 0.4501915158352571
0.08829787234042553 0.44812348689679915 0.45075291759758285
0.08851063829787234 0.45078546405382375 0.4490285474944871
0.08872340425531915 0.4467724682476197 0.4488753041040348
0.08893617021276595 0.44462377369323786 0.4477862131981668
0.08914893617021276 0.44639272493255766 0.4472970425166229
0.08936170212765958 0.4450415241817294 0.449215341181673
0.08957446808510638 0.44609661727066763 0.4503762150578757
0.08978723404255319 0.44891861587228454 0.4492857178487923
0.09 0.4476574156251173 0.45348829527638945
0.0902127659574468 0.44526035418114696 0.45481191988275516
0.09042553191489362 0.4479681143919534 0.45676298002290455
0.09063829787234043 0.44906324330941877 0.46108339263707826
0.09085106382978723 0.44947277977384315 0.45790085466895836
0.09106382978723404 0.4479726428920372 0.46130762976029843
0.09127659574468085 0.448883431770867 0.4602187628639559
0.09148936170212765 0.4493619297169542 0.4602619100485563
0.09170212765957447 0.44691584080965147 0.45931826286837857
0.09191489361702128 0.44680748163542505 0.4595089960467588
0.09212765957446808 0.4487985933618149 0.4615001077731485
0.09234042553191489 0.4508256449549366 0.45965805940956417
0.0925531914893617 0.44894968246213973 0.4591728913717005
0.0927659574468085 0.44921781735868604 0.461383061976927
0.09297872340425532 0.45107918737021546 0.4606741573033708
0.09319148936170213 0.4504581375409925 0.4597142760227477
0.09340425531914893 0.4496937761515367 0.45929378924966546
0.09361702127659574 0.45021555730540463 0.45625609624856706
0.09382978723404255 0.4507288057311757 0.4556140035816888
0.09404255319148937 0.45181958047396414 0.45487314058123857
0.09425531914893617 0.44987342633432437 0.45589555084869365
0.09446808510638298 0.4492850756470943 0.4574076454081084
0.09468085106382979 0.45034141890958146 0.45635130214562125
0.09489361702127659 0.4493483216226415 0.45814167775356474
0.0951063829787234 0.44992672203224227 0.45769269148292313
0.09531914893617022 0.45055110386612435 0.4573903808568425
0.09553191489361702 0.4516399010808236 0.45700689911458436
0.09574468085106383 0.4510290781347643 0.4576177220606435
0.09595744680851064 0.45186928329619297 0.45677751689921503
0.09617021276595744 0.450799545386175 0.4575346061607234
0.09638297872340426 0.45036720577700695 0.45556871758047557
0.09659574468085107 0.45188080117244755 0.4554817741214167
0.09680851063829787 0.4505391770313407 0.457213207069996
0.09702127659574468 0.4495093649968244 0.45494462591963947
0.09723404255319149 0.4506017589992464 0.45353287770955425
0.09744680851063829 0.4509037616023448 0.45075003555587434
0.09765957446808511 0.4491472261155806 0.44904845428886014
0.09787234042553192 0.44990964835664266 0.453817806637053
0.09808510638297872 0.4490795580276267 0.4525980896115761
0.09829787234042553 0.44992672203224227 0.4516181988632489
0.09851063829787234 0.450259020509969 0.45350258183492587
0.09872340425531914 0.4513409543324136 0.4519834552824125
0.09893617021276596 0.45133121820890265 0.44980459567525527
0.09914893617021277 0.45289476036245796 0.44961334871551073
0.09936170212765957 0.4531213395619012 0.4470725590292364
0.09957446808510638 0.4528578407425501 0.44923233504520166
0.09978723404255319 0.4546941516487009 0.44992672203224227
0.1 0.452035433847038 0.4487950497875493
0.10021276595744681 0.4544780478594276 0.4461854997634957
0.10042553191489362 0.45367516936231794 0.44617827470216664
0.10063829787234042 0.45469742550333586 0.44442832926146747
0.10085106382978723 0.45142882399481116 0.4459942020135552
0.10106382978723404 0.45168948978344053 0.4452328355707363
0.10127659574468086 0.4515190153821819 0.44473389729181084
0.10148936170212766 0.4516707728587342 0.4458085354381186
0.10170212765957447 0.4527609952570847 0.4442581755825577
0.10191489361702127 0.4518508058276513 0.44311744038632034
0.10212765957446808 0.45018083499227 0.4447874112217016
0.10234042553191489 0.45169541019805687 0.4425312721183521
0.1025531914893617 0.4509037616023448 0.4408759564435814
0.10276595744680851 0.4512455889487647 0.44372265726520693
0.10297872340425532 0.4525230520626787 0.44211040547142155
0.10319148936170212 0.4509037616023448 0.4419227189727125
0.10340425531914893 0.45110795328312725 0.44174594094366626
0.10361702127659575 0.4516049055401026 0.44378858897928186
0.10382978723404256 0.4512406386141559 0.4430874450415241
0.10404255319148936 0.45268108984362593 0.44348758937711336
0.10425531914893617 0.4518606433534437 0.44258380689222016
0.10446808510638297 0.4504898711451817 0.44282281324013745
0.10468085106382978 0.4509037616023448 0.4452788571479452
0.1048936170212766 0.44959404891965044 0.4453637074104847
0.1051063829787234 0.44827529502559776 0.4443671367451874
0.10531914893617021 0.4500460453660428 0.44199108213762106
0.10553191489361702 0.44948192119711905 0.44042244569870614
0.10574468085106382 0.4459951513482261 0.43941769355273796
0.10595744680851064 0.44658728006717757 0.43917928676111373
0.10617021276595745 0.4485848623192453 0.4383846572624584
0.10638297872340426 0.44894968246213973 0.4407100600340987
0.10659574468085106 0.44894968246213973 0.44371559171440605
0.10680851063829787 0.45258403221783916 0.44261074470934697
0.10702127659574467 0.45314242766228907 0.4434953107721488
0.1072340425531915 0.4513294158658117 0.44482869704999595
0.1074468085106383 0.45175470881560276 0.4441905769684716
0.1076595744680851 0.45188080117244755 0.4431169588246985
0.10787234042553191 0.4479726428920372 0.4402270218823424
0.10808510638297872 0.44811414431129026 0.44099186448206595
0.10829787234042552 0.4487782218618876 0.4413565505329813
0.10851063829787234 0.4479726428920372 0.446170842027516
0.10872340425531915 0.4489717853801 0.4435870162855555
0.10893617021276596 0.452435154449705 0.4450415241817294
0.10914893617021276 0.45443477756165984 0.44564142143073654
0.10936170212765957 0.45527255365651376 0.4485448207109668
0.10957446808510639 0.45370042335992267 0.45299229769528004
0.1097872340425532 0.4528578407425501 0.4540491087832174
0.11 0.4528578407425501 0.457584411448543
0.1102127659574468 0.4528578407425501 0.45619685492706613
0.11042553191489361 0.45281985068292024 0.4635672859540488
0.11063829787234042 0.4509037616023448 0.46165119687347334
0.11085106382978724 0.45066974843585306 0.46165119687347334
0.11106382978723404 0.44912804030377346 0.4615620179526565
0.11127659574468085 0.4508887834332663 0.4607041136415277
0.11148936170212766 0.45036227109605864 0.46175713831594317
0.11170212765957446 0.44979765005351324 0.46249916446484685
0.11191489361702127 0.44905055744509026 0.46175207185642386
0.11212765957446809 0.4512115159521497 0.46165119687347334
0.1123404255319149 0.44888006492730104 0.46165119687347334
0.1125531914893617 0.44723347541864983 0.460172861926699
0.1127659574468085 0.44931426939223945 0.4620157838035731
0.11297872340425531 0.44992672203224227 0.46262823644357587
0.11319148936170213 0.4490086003363145 0.4690550883150706
0.11340425531914894 0.45284927824057003 0.47333285920480406
0.11361702127659574 0.45229288498804443 0.470550892942176
0.11382978723404255 0.45117564500932095 0.468255421809816
0.11404255319148936 0.44913907171033973 0.46656648805308903
0.11425531914893616 0.44992672203224227 0.4623789336788447
0.11446808510638298 0.450206008607914 0.4608133371464581
0.11468085106382979 0.45059114921426774 0.45809485338701145
0.1148936170212766 0.44880031939917514 0.45789240165602757
0.1151063829787234 0.44658407882205414 0.4588740687335076
0.11531914893617021 0.4468640743546402 0.4568975279902547
0.11553191489361703 0.44879224073753743 0.45496936160735746
0.11574468085106383 0.45091708130853764 0.45415612026728924
0.11595744680851064 0.4498425512617085 0.4530195803483571
0.11617021276595745 0.44814533070617246 0.4526472860952729
0.11638297872340425 0.4528117929345822 0.45574291164489
0.11659574468085106 0.4519061956592658 0.4548373143695734
0.11680851063829788 0.44836961115847335 0.45130072986878095
0.11702127659574468 0.44864375817238134 0.45291710744337743
0.11723404255319149 0.450069458188721 0.4530883631615985
0.1174468085106383 0.451797951052153 0.45193603458597725
0.1176595744680851 0.4496598393645076 0.45336144237774073
0.11787234042553191 0.44987830611496216 0.45197763300700766
0.11808510638297873 0.45051863609121967 0.45050441029893
0.11829787234042553 0.44905149967627045 0.452705114921354
0.11851063829787234 0.44894968246213973 0.4528578407425501
0.11872340425531915 0.4516961654465965 0.45148459925032164
0.11893617021276595 0.45015099235225103 0.45361060999264385
0.11914893617021277 0.44758593923946327 0.45344817666007886
0.11936170212765958 0.448176938690856 0.4522671730580894
0.11957446808510638 0.4494542442322779 0.4513762394023092
0.11978723404255319 0.44992672203224227 0.4502964092518904
0.12 0.44992672203224227 0.4490615072330161
0.1202127659574468 0.44992672203224227 0.4478266052141418
0.12042553191489362 0.44992672203224227 0.44659170319526736
0.12063829787234043 0.44992672203224227 0.4453568011763931
0.12085106382978723 0.44992672203224227 0.44412189915751876
0.12106382978723404 0.44992672203224227 0.44471085426479645
0.12127659574468085 0.44992672203224227 0.44538874104317255
0.12148936170212765 0.44992672203224227 0.4459058165600214
0.12170212765957447 0.44992672203224227 0.4443156509523683
0.12191489361702128 0.44768860366493585 0.44294542542797355
0.12212765957446808 0.4470348989443563 0.4441430758564703
0.12234042553191489 0.4492380011832236 0.4462427305655338
0.1225531914893617 0.45095592646354227 0.4441688143340216
0.12276595744680852 0.4532695572832359 0.4484191939537978
0.12297872340425532 0.451024215055633 0.44186949856484514
0.12319148936170213 0.45188080117244755 0.4401499035523803
0.12340425531914893 0.45188080117244755 0.4394936542129453
0.12361702127659574 0.45188080117244755 0.43969509350147556
0.12382978723404255 0.45242926172821823 0.4412532474427579
0.12404255319148937 0.4511008421969682 0.444453070198864
0.12425531914893617 0.4505162258276027 0.44483955616111104
0.12446808510638298 0.4514554155210486 0.44461613853033055
0.12468085106382978 0.4513268614465648 0.4467033433593773
0.12489361702127659 0.44969510467627416 0.44495100057686027
0.1251063829787234 0.44959074971404595 0.4411642432858055
0.12531914893617022 0.4506090229264524 0.438791724542796
0.125531914893617 0.45016278344200583 0.4359793127099941
0.12574468085106383 0.45072336862360873 0.43367783529797044
0.12595744680851065 0.4500541635358657 0.42906905900810244
0.12617021276595744 0.45353650908776305 0.42662695796222494
0.12638297872340426 0.4490217559351418 0.4264777723497801
0.12659574468085105 0.4480728594121055 0.42823141844984874
0.12680851063829787 0.4461686854648622 0.4311377876307476
0.1270212765957447 0.4526899716866122 0.4275507370947043
0.12723404255319148 0.4480128711567707 0.4284238058370387
0.1274468085106383 0.4497075748621598 0.43190171543023076
0.1276595744680851 0.4480736797039913 0.4360460944268979
0.12787234042553192 0.44703039292976426 0.4352711284807034
0.1280851063829787 0.449848427059659 0.43511453853553683
0.12829787234042553 0.44937820860847283 0.43388841753560914
0.12851063829787235 0.45128069149363104 0.43762528074011964
0.12872340425531914 0.44874891140735124 0.43837620254195964
0.12893617021276596 0.4482966591140208 0.4362431771466541
0.12914893617021275 0.44992672203224227 0.4412573901604584
0.12936170212765957 0.44923624298008125 0.44141992641926053
0.1295744680851064 0.4477170740062231 0.4399007574454024
0.12978723404255318 0.44991993140310843 0.4425887393127722
0.13 0.4502958734035875 0.4434565964128694
0.1302127659574468 0.44919032615104837 0.44382384092271815
0.13042553191489362 0.4480798003591429 0.44493436671462366
0.13063829787234044 0.4479855015396263 0.4470213206171126
0.13085106382978723 0.4489064036528699 0.4488631248436
0.13106382978723405 0.448049029798426 0.4482781905175924
0.13127659574468084 0.4480358998304931 0.4524899895935453
0.13148936170212766 0.4432393652431945 0.45594087965452834
0.13170212765957448 0.44609569651727327 0.4587972109286069
0.13191489361702127 0.4465606950315617 0.460711903744138
0.1321276595744681 0.44425130110378 0.4665363947239862
0.13234042553191488 0.44563365800136284 0.4677206623632531
0.1325531914893617 0.44762443969482757 0.47274683534181144
0.1327659574468085 0.446946520257512 0.4750155373602928
0.13297872340425532 0.4528578407425501 0.4801875245200233
0.13319148936170214 0.4523124395607005 0.4891641337454457
0.13340425531914893 0.4461019503014126 0.4910457705261318
0.13361702127659575 0.44779692287974976 0.4927407431044688
0.13382978723404254 0.45057600088872646 0.4929164631167562
0.13404255319148936 0.45188080117244755 0.4895298215448354
0.13425531914893618 0.4516143433128696 0.4845672308367796
0.13446808510638297 0.4514230654533106 0.481588155862833
0.1346808510638298 0.45315365784369854 0.47905873260200577
0.13489361702127659 0.45503080317676137 0.4801562602554585
0.1351063829787234 0.4565413038031982 0.4736761054121706
0.13531914893617022 0.4535451948633316 0.474642396734128
0.13553191489361702 0.4528578407425501 0.4750316224285108
0.13574468085106384 0.4528578407425501 0.47319541601148124
0.13595744680851063 0.4528578407425501 0.47264800150743824
0.13617021276595745 0.45253859567936655 0.47305642665152087
0.13638297872340424 0.45188080117244755 0.4735704875345525
0.13659574468085106 0.4532689660047815 0.4753297508549097
0.13680851063829788 0.45266950285542557 0.4769365636254068
0.13702127659574467 0.4520688665199095 0.47593065973008797
0.1372340425531915 0.45478958929667507 0.4730648789153904
0.13744680851063829 0.4564946815502109 0.47098718794989575
0.1376595744680851 0.4522843477225991 0.4674567854708224
0.13787234042553193 0.4492851988915528 0.46329926930240195
0.13808510638297872 0.44982734147748904 0.46262823644357587
0.13829787234042554 0.4481463223039111 0.4567949455916061
0.13851063829787233 0.4530186019322488 0.45709001588873993
0.13872340425531915 0.44924178915062707 0.45412698700113996
0.13893617021276597 0.44908590558844486 0.45355069521705904
0.13914893617021276 0.44852395737545936 0.4507781722056031
0.13936170212765958 0.44774654942904996 0.45052828854878707
0.13957446808510637 0.4488371272452179 0.44844839637130024
0.1397872340425532 0.44992672203224227 0.44562487162829684
0.13999999999999999 0.44911888307629 0.4442336852257771
0.1402127659574468 0.4498874604377624 0.44218892866038123
0.14042553191489363 0.44938512215954896 0.43811198054556233
0.14063829787234042 0.4451499652695992 0.4363568230945307
0.14085106382978724 0.4486022490825079 0.4315798824423389
0.14106382978723403 0.44749282651573397 0.42651258598477276
0.14127659574468085 0.4476079753508732 0.4226865771227591
0.14148936170212767 0.4472286715076797 0.4178727175774804
0.14170212765957446 0.45134983653466787 0.4123531434360209
0.14191489361702128 0.44697065414804266 0.4117473312765658
0.14212765957446807 0.4466492735102052 0.40936409240671356
0.1423404255319149 0.44963690912575444 0.41182217879824123
0.1425531914893617 0.448534605083293 0.4126523335559347
0.1427659574468085 0.4479726428920372 0.4180493515824723
0.14297872340425533 0.4486354650992764 0.41827846346307107
0.14319148936170212 0.449743530947875 0.42067661907743087
0.14340425531914894 0.44992672203224227 0.4264405065622143
0.14361702127659573 0.4508203668725532 0.42834845676019384
0.14382978723404255 0.45179567451036307 0.42951529938769356
0.14404255319148937 0.44757459077934014 0.43455945698573223
0.14425531914893616 0.44602182557614983 0.43624816805080613
0.14446808510638298 0.449664404381775 0.4376776118900768
0.14468085106382977 0.4499716902850902 0.4420204689657258
0.1448936170212766 0.4506789625115623 0.4434880579284859
0.1451063829787234 0.45119124282753653 0.4417083283517023
0.1453191489361702 0.4509037616023448 0.441133365901319
0.14553191489361703 0.4474116721923118 0.4463715000163684
0.14574468085106382 0.4479263672327426 0.4442033115895106
0.14595744680851064 0.4460967312692601 0.44406448461162684
0.14617021276595746 0.45088491439428496 0.446011024868608
0.14638297872340425 0.4509037616023448 0.4450858604866199
0.14659574468085107 0.44618144917407654 0.4450415241817294
0.14680851063829786 0.44992072676990275 0.44407647513630594
0.14702127659574468 0.4491159008310928 0.4459077515058632
0.14723404255319147 0.45140087807787954 0.4444758472641137
0.1474468085106383 0.44597478089535514 0.44912678770627734
0.14765957446808511 0.44667710902595187 0.449108929610131
0.1478723404255319 0.44954822672387973 0.4506514313967698
0.14808510638297873 0.449276570754698 0.4515539128798892
0.14829787234042552 0.44852439826478246 0.4514555169750902
0.14851063829787234 0.4481995957369457 0.45113071444725333
0.14872340425531916 0.4486833274685862 0.4520583711681499
0.14893617021276595 0.44593407419914416 0.4537503907599649
0.14914893617021277 0.4442007667783901 0.4520170833392108
0.14936170212765956 0.44567356459227364 0.45188080117244755
0.14957446808510638 0.4452844023249369 0.45188080117244755
0.1497872340425532 0.44573443831847415 0.45188080117244755
0.15 0.4472991227558578 0.45188080117244755
0.15021276595744681 0.4473855423815645 0.4530550021933927
0.1504255319148936 0.4459840638205223 0.4528233408112405
0.15063829787234043 0.445872580361997 0.4535429135329829
0.15085106382978725 0.4475105536996412 0.4560464346417113
0.15106382978723404 0.4488696067834598 0.45672596118362047
0.15127659574468086 0.44766705322208894 0.45676599902296044
0.15148936170212765 0.44733173444669616 0.46113570364486195
0.15170212765957447 0.44802875597213704 0.46904666533354533
0.15191489361702126 0.44974865503128053 0.456147422389968
0.15212765957446808 0.44992672203224227 0.45280988419106
0.1523404255319149 0.44921198103555593 0.45188080117244755
0.1525531914893617 0.44798806231225957 0.45188080117244755
0.15276595744680851 0.44924648878358264 0.4499700323351293
0.1529787234042553 0.45024918328754976 0.4508844499939849
0.15319148936170213 0.4509037616023448 0.4547861514415428
0.15340425531914895 0.4509037616023448 0.4541481418239252
0.15361702127659574 0.4501095493917932 0.4546290925232043
0.15382978723404256 0.4495160570348603 0.45654412554981866
0.15404255319148935 0.4517228201067135 0.45948647631228956
0.15425531914893617 0.45263591753091015 0.4566766522994178
0.154468085106383 0.4541144327426066 0.4576738474529427
0.15468085106382978 0.4534941962335451 0.4578415957303588
0.1548936170212766 0.45188080117244755 0.45746059340152356
0.1551063829787234 0.45160661755798387 0.45997130134773195
0.15531914893617021 0.44951823122794543 0.46205968767777017
0.155531914893617 0.4498281860125912 0.45999272579222134
0.15574468085106383 0.45098180915745784 0.45653185635762134
0.15595744680851065 0.45169792324982927 0.4543835140805073
0.15617021276595744 0.4513210334520827 0.45495441575338225
0.15638297872340426 0.45210018828784104 0.45459253276736167
0.15659574468085105 0.4532373511705157 0.45255907617148167
0.15680851063829787 0.45188080117244755 0.45221160247462244
0.1570212765957447 0.45188080117244755 0.45357916713274
0.15723404255319148 0.45188080117244755 0.4480960192060269
0.1574468085106383 0.45375017036129595 0.45171138126973426
0.1576595744680851 0.44924610966867246 0.45096304704365137
0.15787234042553192 0.4533150406991031 0.4570152631340937
0.15808510638297874 0.4570354976064691 0.45614272994615485
0.15829787234042553 0.45422480683037797 0.4578998985104688
0.15851063829787235 0.45353651780933574 0.4587200781631655
0.15872340425531914 0.45312517374411304 0.45942978473170526
0.15893617021276596 0.4543206346256679 0.4582343238501503
0.15914893617021275 0.45354541227752143 0.45331026197474467
0.15936170212765957 0.4509100815516791 0.4479821228160384
0.1595744680851064 0.450007839522307 0.44363064810150643
0.15978723404255318 0.45188080117244755 0.441133365901319
0.16 0.45188080117244755 0.4405083549215943
0.1602127659574468 0.45188080117244755 0.43952180649482875
0.16042553191489362 0.4522253484890319 0.4411899682809695
0.16063829787234044 0.4522360862541145 0.4421548133088708
0.16085106382978723 0.4509037616023448 0.440936196843959
0.16106382978723405 0.45018298166022686 0.4438082249836421
0.16127659574468084 0.4482211002641152 0.4447762768914419
0.16148936170212766 0.4486489379038318 0.4423363441345507
0.16170212765957448 0.44903719902180045 0.4450415241817294
0.16191489361702127 0.45052249015868445 0.4461853385127104
0.1621276595744681 0.4503209591676752 0.44836688002747016
0.16234042553191488 0.4509037616023448 0.44894968246213973
0.1625531914893617 0.448858023949193 0.4499725512887156
0.1627659574468085 0.4476144498534762 0.4490472220077199
0.16297872340425532 0.45016312695802907 0.44505199747071456
0.16319148936170214 0.4534206267286574 0.44406448461162684
0.16340425531914893 0.44897825837905997 0.4432550476226946
0.16361702127659575 0.4479726428920372 0.4430874450415241
0.16382978723404254 0.4479516767075975 0.4392002529455534
0.16404255319148936 0.44590028249962044 0.4408968033968961
0.16425531914893618 0.44526833970075064 0.43872565572307126
0.16446808510638297 0.445352769406486 0.4375581047935816
0.1646808510638298 0.4449407828888959 0.43732594891374216
0.16489361702127658 0.4460185637518319 0.43624816805080613
0.1651063829787234 0.44796282360712963 0.43624816805080613
0.16531914893617022 0.4482202574203596 0.4347893179672457
0.16553191489361702 0.45091794692429926 0.43576674092673195
0.16574468085106384 0.449876354264885 0.4389207639275562
0.16595744680851063 0.4495981383530724 0.44080478222214914
0.16617021276595745 0.451248295409197 0.441133365901319
0.16638297872340424 0.44913180770244254 0.4431951110038228
0.16659574468085106 0.4472361025132677 0.4433279442328573
0.16680851063829788 0.4454202101391317 0.4493890177727354
0.16702127659574467 0.4467080532399042 0.447570703485995
0.1672340425531915 0.44699560332193444 0.44699560332193444
0.16744680851063828 0.4495240082239072 0.4495240082239072
0.1676595744680851 0.44992672203224227 0.4517111719129125
0.16787234042553192 0.4476027307105218 0.4495568098507271
0.16808510638297872 0.4477235509151393 0.44894968246213973
0.16829787234042554 0.4463975102248474 0.44816211612854495
0.16851063829787233 0.44958609093079127 0.44529699750781765
0.16872340425531915 0.4479102704744975 0.44508310579342253
0.16893617021276597 0.44585040850245833 0.4467259752150248
0.16914893617021276 0.4509037616023448 0.4450415241817294
0.16936170212765958 0.4512624048034087 0.44575881058385697
0.16957446808510637 0.45188080117244755 0.44838700973538675
0.1697872340425532 0.4513209507421723 0.44992672203224227
0.17 0.44957624851663336 0.44926296548938655
0.1702127659574468 0.4520368488141106 0.45280864040210334
0.17042553191489362 0.45197407202127204 0.4520673428700965
0.17063829787234042 0.4538348803126526 0.453816851078741
0.17085106382978724 0.4538348803126526 0.45360696698771047
0.17106382978723403 0.4543074708691584 0.4587200781631655
0.17127659574468085 0.45491318516112605 0.4581362286353443
0.17148936170212767 0.4528578407425501 0.45817457730774075
0.17170212765957446 0.4547827230000175 0.46049626751899286
0.17191489361702128 0.457743038593063 0.4577524946911737
0.17212765957446807 0.454193574828388 0.45558284443473535
0.1723404255319149 0.45677659777012924 0.45621071891066434
0.1725531914893617 0.45548435570641627 0.4600017214797097
0.1727659574468085 0.45389196615121774 0.4597542035718334
0.17297872340425532 0.45470334549891467 0.4606741573033708
0.17319148936170212 0.45205138981461024 0.4605035686612081
0.17340425531914894 0.45406302286152583 0.45860600688872893
0.17361702127659576 0.4557159479416782 0.4578890616154224
0.17382978723404255 0.454892510366142 0.4594553462831079
0.17404255319148937 0.4557889594528579 0.4570593158613511
0.17425531914893616 0.45591280991079264 0.45957326727533354
0.17446808510638298 0.4566132595661724 0.4582618597928014
0.17468085106382977 0.45562014362233433 0.45595777528338144
0.1748936170212766 0.45474644767576083 0.45683147122995477
0.1751063829787234 0.4538840544067022 0.4576938644990134
0.1753191489361702 0.4545772139240096 0.4592277058157772
0.17553191489361702 0.4554167785442298 0.46090683505621727
0.17574468085106382 0.4566936724229844 0.4611988403884101
0.17595744680851064 0.456960263299876 0.4593695318147259
0.17617021276595746 0.45485793075427233 0.4556049159667893
0.17638297872340425 0.4555763364971222 0.4527312929953903
0.17659574468085107 0.45523348066015906 0.45076984358704997
0.17680851063829786 0.45343194165871187 0.4494667292908945
0.17702127659574468 0.45188080117244755 0.44943101534140273
0.1772340425531915 0.45188080117244755 0.44891780725648817
0.1774468085106383 0.45611141094492 0.44850146911359623
0.1776595744680851 0.45461704558524996 0.44725632507946694
0.1778723404255319 0.452592412015323 0.4448927968098465
0.17808510638297873 0.45335591800424335 0.4464592961536733
0.17829787234042552 0.45249134542886654 0.4482166918347726
0.17851063829787234 0.45188080117244755 0.44731599814694356
0.17872340425531916 0.452248319135681 0.44907519678173746
0.17893617021276595 0.45326616157508604 0.4513120824348808
0.17914893617021277 0.45430064859962044 0.45188080117244755
0.17936170212765956 0.4553144614001391 0.450373176620296
0.17957446808510638 0.45734080296954954 0.4484324012899092
0.1797872340425532 0.45817459100417013 0.4479726428920372
0.18 0.45649382590744125 0.44859724923484806
0.1802127659574468 0.4557889594528579 0.450421398632771
0.1804255319148936 0.4557889594528579 0.45175620195041094
0.18063829787234043 0.4557889594528579 0.45284286020470693
0.18085106382978725 0.4539626115042771 0.4513508207730304
0.18106382978723404 0.45536278679507053 0.4574589234878714
0.18127659574468086 0.4527137075938886 0.4560051591758501
0.18148936170212765 0.4510577055497602 0.4590279660579963
0.18170212765957447 0.4520853487384974 0.460469609737321
0.18191489361702126 0.4516191155006856 0.459077755112336
0.18212765957446808 0.4510496544986263 0.4560630609638737
0.1823404255319149 0.45330419225552193 0.4527735041983913
0.1825531914893617 0.45030711480535446 0.45188080117244755
0.1827659574468085 0.44746127970406036 0.4503923984143682
0.1829787234042553 0.44699560332193444 0.4516169121827406
0.18319148936170213 0.4479497064454097 0.44997259492549724
0.18340425531914895 0.4515567582098031 0.44960267906959783
0.18361702127659574 0.44740018683517363 0.44620938243745306
0.18382978723404256 0.4438391083746964 0.4466949993701762
0.18404255319148935 0.44319378046188157 0.44519439792760696
0.18425531914893617 0.4465427462522064 0.44196775461012877
0.184468085106383 0.4444465938474153 0.43888182159395683
0.18468085106382978 0.44234384135025984 0.43745864349974695
0.1848936170212766 0.4395746781006899 0.4389156925347296
0.1851063829787234 0.4429844691136054 0.4344228088204992
0.1853191489361702 0.44210003934346886 0.4400526650516896
0.185531914893617 0.441133365901319 0.4308630708170701
0.18574468085106383 0.44067768384169703 0.43429408891060084
0.18595744680851065 0.4405282157640954 0.43328239215836456
0.18617021276595744 0.44128949522831107 0.4340598949201126
0.18638297872340426 0.43968841019233684 0.43722520762090866
0.18659574468085105 0.4421111330602401 0.440157417714444
0.18680851063829787 0.4432509418735958 0.4422739023034931
0.1870212765957447 0.44303003893185033 0.44174645487493813
0.18723404255319148 0.4452644352106234 0.4438676336426533
0.1874468085106383 0.4461011189141344 0.44679602660494183
0.1876595744680851 0.4469378026176452 0.44972441956722997
0.18787234042553191 0.44804382876301563 0.4520231729144045
0.18808510638297873 0.4492513021995173 0.4533824507065862
0.18829787234042553 0.4507939421451417 0.4510684907881495
0.18851063829787235 0.4501542899939081 0.4486553467770348
0.18872340425531914 0.4476402362219009 0.4485442643446225
0.18893617021276596 0.4464478117176389 0.4468034426331047
0.18914893617021278 0.44733540766364904 0.445423701978485
0.18936170212765957 0.4468148307448278 0.4476831898552348
0.1895744680851064 0.44406448461162684 0.44699560332193444
0.18978723404255318 0.44406448461162684 0.44699560332193444
0.19 0.44435708395709256 0.44787340135833165
0.1902127659574468 0.4446900578514615 0.44887232304143854
0.19042553191489361 0.4453421919956594 0.4478474082446229
0.19063829787234043 0.4485044458960705 0.45196736761041184
0.19085106382978723 0.44992672203224227 0.4578148543260527
0.19106382978723405 0.4520454827328563 0.45545959633204025
0.19127659574468084 0.4504879174913522 0.4562048035638505
0.19148936170212766 0.45263276504384625 0.45608948827005946
0.19170212765957448 0.4518260611530784 0.4571281722259073
0.19191489361702127 0.4524468314735824 0.45928610846430057
0.1921276595744681 0.453731481514678 0.45969711773326827
0.19234042553191488 0.4557957366464707 0.4636323847881299
0.1925531914893617 0.45666407736230735 0.4677172776153951
0.19276595744680852 0.4556171470450723 0.4698111382498652
0.19297872340425531 0.4543292606476494 0.47142159257449934
0.19319148936170213 0.4538212996825732 0.47045813363447625
0.19340425531914893 0.4557889594528579 0.46599932752443285
0.19361702127659575 0.45317073084388815 0.4631518821653699
0.19382978723404254 0.45409609618518426 0.45977447451427134
0.19404255319148936 0.45503977792091277 0.456993857061118
0.19425531914893618 0.4539575976867324 0.45676599902296044
0.19446808510638297 0.4557523427692412 0.4510136116531949
0.1946808510638298 0.4566697029987089 0.451784505148196
0.19489361702127658 0.46150142685572665 0.4509337156058941
0.1951063829787234 0.45864448275628406 0.451956396579329
0.19531914893617022 0.4571876234090464 0.4524875639532057
0.19553191489361701 0.4556838406110383 0.45264760305891105
0.19574468085106383 0.4573405478405412 0.4583759620330478
0.19595744680851063 0.4572763557606327 0.46322594099173225
0.19617021276595745 0.457743038593063 0.4667962111171706
0.19638297872340427 0.45482619861132045 0.46678422429865324
0.19659574468085106 0.4538348803126526 0.4715668484001185
0.19680851063829788 0.45761190656505873 0.47334288870770336
0.19702127659574467 0.45652556301690284 0.4724787774799544
0.1972340425531915 0.452887239418485 0.4731861435358709
0.19744680851063828 0.449249815257926 0.47029770257409786
0.1976595744680851 0.4511641122751898 0.46308457466798864
0.19787234042553192 0.4512827270283621 0.45812200401908026
0.19808510638297872 0.4480567279631541 0.45676599902296044
0.19829787234042554 0.4491231216634609 0.45322013512041637
0.19851063829787233 0.44667210979496996 0.45188080117244755
0.19872340425531915 0.4478733808326216 0.45188080117244755
0.19893617021276597 0.4451072494778732 0.44979527143995457
0.19914893617021276 0.4461996434908337 0.4488780415870461
0.19936170212765958 0.44675092895937213 0.4523684920174254
0.19957446808510637 0.44622727087140734 0.4509037616023448
0.1997872340425532 0.4466735126640411 0.45219212423391825
0.2 0.44862777712027135 0.45307244430379556
0.2002127659574468 0.44751439331954695 0.44872055767589447
0.20042553191489362 0.4453323356529922 0.4457277522805691
0.20063829787234042 0.44403001808333015 0.4430529785132276
0.20085106382978724 0.44573170415255453 0.4394661463603911
0.20106382978723403 0.4463309188445755 0.4382022471910112
0.20127659574468085 0.4466848117920654 0.4382022471910112
0.20148936170212767 0.44767683259102226 0.43752101792192355
0.20170212765957446 0.45087617516384015 0.43867697375681003
0.20191489361702128 0.45188080117244755 0.43917928676111373
0.20212765957446807 0.4502915702592798 0.44288749222517176
0.2023404255319149 0.4497883313506051 0.4447605904191338
0.2025531914893617 0.4517191443330929 0.4430874450415241
0.2027659574468085 0.45238517938487227 0.4440327677568799
0.20297872340425532 0.45188080117244755 0.4436241641967898
0.20319148936170212 0.45092241935521754 0.4392352600197317
0.20340425531914894 0.45105980729268996 0.4368147106810299
0.20361702127659576 0.4512207289865359 0.4359050632490855
0.20382978723404255 0.4547656109472087 0.433726388742758
0.20404255319148937 0.45225093847304426 0.4342015545854517
0.20425531914893616 0.45385459337159734 0.433336762399443
0.20446808510638298 0.4545583394422548 0.43467445957135137
0.20468085106382977 0.45333462853075446 0.4365100259386021
0.2048936170212766 0.45516200894577263 0.4339439998475834
0.2051063829787234 0.4539307947209492 0.4347106728894299
0.2053191489361702 0.4524595824194858 0.43856329303895925
0.20553191489361702 0.45423830669458115 0.436014928475123
0.20574468085106382 0.45641344537371287 0.4398994281289525
0.20595744680851064 0.45407500373682336 0.4393393690438942
0.20617021276595746 0.45280679528649215 0.43923033221717167
0.20638297872340425 0.45035417579085996 0.44182034816567506
0.20659574468085107 0.44699560332193444 0.44551214624912
0.20680851063829786 0.4480986282142405 0.4436968096475248
0.20702127659574468 0.4494445370024866 0.44164088995225714
0.2072340425531915 0.44944807381089713 0.4411531090287313
0.2074468085106383 0.45043476385014064 0.44109432183562475
0.2076595744680851 0.4519342302576762 0.4398128367794393
0.2078723404255319 0.4537685100180224 0.4392014101926571
0.20808510638297872 0.44909127741950366 0.43917928676111373
0.20829787234042554 0.45126780135432637 0.43972534638908606
0.20851063829787234 0.45256709416056745 0.44298264521736946
0.20872340425531916 0.4526789282459915 0.44544058771850137
0.20893617021276595 0.4528235546635789 0.44551290092729506
0.20914893617021277 0.4531181514673941 0.4475162247716226
0.20936170212765956 0.4509029165266738 0.44894968246213973
0.20957446808510638 0.44992672203224227 0.44979743820687385
0.2097872340425532 0.44992672203224227 0.44992672203224227
0.21 0.44699560332193444 0.45188080117244755
0.2102127659574468 0.44742614652234525 0.45274188757326916
0.2104255319148936 0.44894968246213973 0.4554626726434457
0.21063829787234042 0.4481102385179999 0.45397247593861545
0.21085106382978724 0.4485363081082482 0.45234427248044556
0.21106382978723404 0.4493021175274209 0.45125619666762606
0.21127659574468086 0.45225032042029084 0.4542043995604961
0.21148936170212765 0.4502039842282861 0.4550627802359845
0.21170212765957447 0.44729005651342385 0.45896098475454483
0.2119148936170213 0.4488816044808449 0.4578111165743578
0.21212765957446808 0.4460185637518319 0.45407488794321643
0.2123404255319149 0.44680121316977867 0.4575486484409072
0.2125531914893617 0.44930476880899406 0.46005220408012254
0.2127659574468085 0.4471216082168894 0.4587200781631655
0.2129787234042553 0.4476400281122838 0.45763910192286433
0.21319148936170212 0.44894968246213973 0.45938229439424927
0.21340425531914894 0.4497192350387338 0.4575959469969944
0.21361702127659574 0.4516949400679569 0.4576501080408177
0.21382978723404256 0.44998576469935647 0.45477255810467904
0.21404255319148935 0.45245502648008984 0.4528578407425501
0.21425531914893617 0.45066534555113086 0.4533502564218091
0.214468085106383 0.4535771703449926 0.4540925902803126
0.21468085106382978 0.4529316162382199 0.4528578407425501
0.2148936170212766 0.4520688124496381 0.45635299328442974
0.2151063829787234 0.4515010110060883 0.45939849303139646
0.2153191489361702 0.4494228217938375 0.4582161779247608
0.21553191489361703 0.44894968246213973 0.46012859812372914
0.21574468085106382 0.4497112839565302 0.45991255580898033
0.21595744680851064 0.4514181027984547 0.45447728505152507
0.21617021276595744 0.45188080117244755 0.45276938683790624
0.21638297872340426 0.45188080117244755 0.45265331354936694
0.21659574468085105 0.45188080117244755 0.45253724026082764
0.21680851063829787 0.45188080117244755 0.45242116697228835
0.2170212765957447 0.45188080117244755 0.45230509368374905
0.21723404255319148 0.45188080117244755 0.45218902039520975
0.2174468085106383 0.45188080117244755 0.45207294710667045
0.2176595744680851 0.45188080117244755 0.45195687381813116
0.2178723404255319 0.4520519621440463 0.4517096402008488
0.21808510638297873 0.45254863458290473 0.4512129677619902
0.21829787234042553 0.4540466223403336 0.4509037616023448
0.21851063829787234 0.45667906818410126 0.4508747846560584
0.21872340425531914 0.45604260109315414 0.45066262895907605
0.21893617021276596 0.45540613400220686 0.45045047326209364
0.21914893617021278 0.45476966691125964 0.45023831756511123
0.21936170212765957 0.45413319982031247 0.4500261618681289
0.2195744680851064 0.45421084605468426 0.4503026877742739
0.21978723404255318 0.45491849512258636 0.451010336842176
0.22 0.4556261441904886 0.4517179859100782
0.2202127659574468 0.45474474308933666 0.45135869299068687
0.2204255319148936 0.4538348803126526 0.45038229420734677
0.22063829787234043 0.4538741735161736 0.44894968246213973
0.22085106382978723 0.45428449539796484 0.44894968246213973
0.22106382978723405 0.45469481727975614 0.44894968246213973
0.22127659574468084 0.45510513916154743 0.44894968246213973
0.22148936170212766 0.45551546104333873 0.44894968246213973
0.22170212765957448 0.4545477126189336 0.4486393707536587
0.22191489361702127 0.45218971639899386 0.44859047334512986
0.2221276595744681 0.45328168543571873 0.4516221008049169
0.22234042553191488 0.4538348803126526 0.4532916476122442
0.2225531914893617 0.45450019669366076 0.45219252436154195
0.22276595744680852 0.45402012829232397 0.45029721799158506
0.2229787234042553 0.4520010558194979 0.4508436342788196
0.22319148936170213 0.4508503724980524 0.4487895151492625
0.22340425531914893 0.44993135534866585 0.44603246370110267
0.22361702127659575 0.4488718120940613 0.4460185637518319
0.22382978723404254 0.44768204637866904 0.44594591462348987
0.22404255319148936 0.44374881717175507 0.44519935790166526
0.22425531914893618 0.4410149405272064 0.4460185637518319
0.22446808510638297 0.43981121972927845 0.44440959121356466
0.2246808510638298 0.44748251118797794 0.4442592477580441
0.22489361702127658 0.4444641716352413 0.445344324702995
0.2251063829787234 0.441133365901319 0.4474687157876125
0.22531914893617022 0.4401850597279458 0.4432311120251706
0.225531914893617 0.4414510929308658 0.44406448461162684
0.22574468085106383 0.44382151985554297 0.4450363436359621
0.22595744680851063 0.4430874450415241 0.44645082504916805
0.22617021276595745 0.4436030387828144 0.44509567209420714
0.22638297872340427 0.4447164717992914 0.4460185637518319
0.22659574468085106 0.44266958672457574 0.44285598047562713
0.22680851063829788 0.44582002602578835 0.4411830003328299
0.22702127659574467 0.4484113310065673 0.43908956151851836
0.2272340425531915 0.4430874450415241 0.4375110258571634
0.22744680851063828 0.44381260260031535 0.43164534068674726
0.2276595744680851 0.44553960172627044 0.42848919804692415
0.22787234042553192 0.4453925925194424 0.4319889414326826
0.22808510638297871 0.44730160461321544 0.4323400097703958
0.22829787234042553 0.44529770083883713 0.4332316571214624
0.22851063829787233 0.4431940838375464 0.4326599261584626
0.22872340425531915 0.4450415241817294 0.4389412973922908
0.22893617021276597 0.44536283998827136 0.4411464580517955
0.22914893617021276 0.4446499010071713 0.44054794950577436
0.22936170212765958 0.4448797172436444 0.44330525360616846
0.22957446808510637 0.4452833869357294 0.44700519187603716
0.2297872340425532 0.4467871892018257 0.4479726428920372
0.23 0.44312881723039205 0.4470369755108024
0.2302127659574468 0.4460185637518319 0.4502368424561376
0.23042553191489362 0.44661002553930956 0.4515850702787087
0.23063829787234041 0.44667259288010885 0.4530705116222254
0.23085106382978723 0.4467466329324571 0.45294711153497835
0.23106382978723405 0.44867728022457387 0.45301767359995493
0.23127659574468085 0.4476209074542989 0.4558280428244138
0.23148936170212767 0.44699560332193444 0.45734527965564203
0.23170212765957446 0.44650090728465164 0.457743038593063
0.23191489361702128 0.44555693272964425 0.4572814075708753
0.23212765957446807 0.4466806264140662 0.45676599902296044
0.2323404255319149 0.4452365183990701 0.46018615463916934
0.2325531914893617 0.4522931395934794 0.45753686938254706
0.2327659574468085 0.44614782557065585 0.46060952639395886
0.23297872340425532 0.44761362857498455 0.4587200781631655
0.23319148936170211 0.446081960547834 0.4584599690716394
0.23340425531914893 0.449351795434569 0.4573409256206337
0.23361702127659575 0.44829861411316974 0.46110762014048706
0.23382978723404255 0.4489989959107037 0.4605755304062426
0.23404255319148937 0.44992672203224227 0.45491047510748545
0.23425531914893616 0.45027049709111366 0.4552099805481382
0.23446808510638298 0.45070152921637213 0.45693410904917225
0.2346808510638298 0.45140087126393114 0.4592343675778218
0.2348936170212766 0.45034992826531584 0.46016386633432693
0.2351063829787234 0.44777843338531764 0.4632108649637342
0.2353191489361702 0.44699560332193444 0.46227501149578965
0.23553191489361702 0.4485234261107415 0.45914633451456377
0.23574468085106381 0.4462490914966437 0.46142066912866153
0.23595744680851063 0.44617271821304766 0.46363096842388124
0.23617021276595745 0.4514493104969643 0.46530146670958655
0.23638297872340425 0.44876778651810556 0.47001320126639656
0.23659574468085107 0.44861256511303654 0.4727185932551015
0.23680851063829786 0.4517574359882463 0.4738333502037054
0.23702127659574468 0.45324438695055697 0.4737622179227113
0.2372340425531915 0.45140756314162034 0.46974997771238036
0.2374468085106383 0.45176295288324547 0.4659129000214899
0.2376595744680851 0.4565671644138992 0.46087299191243203
0.2378723404255319 0.452683280741034 0.46076143730412883
0.23808510638297872 0.4514737472711507 0.45975124464412037
0.23829787234042554 0.4544841105649372 0.452530031424732
0.23851063829787233 0.45298437035485684 0.45336744879631913
0.23872340425531915 0.45114384957450915 0.4504235856580165
0.23893617021276595 0.45188080117244755 0.44969716244869956
0.23914893617021277 0.4501029415952829 0.4517045816094069
0.23936170212765956 0.44992672203224227 0.44881093345723094
0.23957446808510638 0.45063160781253986 0.4461947851969063
0.2397872340425532 0.4538348803126526 0.4478435141498166
0.24 0.453000927632143 0.44909276935173265
0.2402127659574468 0.4539757925338521 0.44954388641309057
0.2404255319148936 0.4525822602964179 0.45026242177105685
0.24063829787234042 0.45481351805877684 0.4483628194496696
0.24085106382978724 0.45302146956198763 0.44889513952232724
0.24106382978723404 0.4517923940931471 0.4470840104012349
0.24127659574468086 0.4509037616023448 0.44661422178128257
0.24148936170212765 0.4512729028332738 0.44137212300956363
0.24170212765957447 0.451369392227376 0.4396449173861449
0.2419148936170213 0.44567994242783254 0.43917928676111373
0.24212765957446808 0.4477856954951893 0.43917928676111373
0.2423404255319149 0.4462134993313805 0.43917928676111373
0.2425531914893617 0.44136499520865624 0.4401563263312165
0.2427659574468085 0.4445026279962602 0.43971818294658305
0.2429787234042553 0.44529497992384703 0.4374786633630263
0.24319148936170212 0.4450719997958209 0.435744410458709
0.24340425531914894 0.44474418445730596 0.4359083181279665
0.24361702127659574 0.4401959870021005 0.4393429661384271
0.24382978723404256 0.44464696722878844 0.43924504625327054
0.24404255319148935 0.44413697544510183 0.44091589340089393
0.24425531914893617 0.4450415241817294 0.4382022471910112
0.244468085106383 0.44433445301517677 0.43961638952411636
0.24468085106382978 0.444077531234961 0.4431004916648585
0.2448936170212766 0.4475807579027794 0.4415252508905768
0.2451063829787234 0.44972480657106156 0.44403194687582587
0.2453191489361702 0.44992672203224227 0.44413202637687155
0.24553191489361703 0.45158804911218825 0.44330700908671855
0.24574468085106382 0.44776781889117256 0.4460185637518319
0.24595744680851064 0.44823964079330036 0.44626737124610505
0.24617021276595744 0.45207697945721764 0.4475841381762448
0.24638297872340426 0.4533645808665073 0.4502645487815471
0.24659574468085105 0.455927229458649 0.4516042611608654
0.24680851063829787 0.45717787433225177 0.4506131808810611
0.2470212765957447 0.4578361925541314 0.4534826876119431
0.24723404255319148 0.4540168119749207 0.44992672203224227
0.2474468085106383 0.4552947087667034 0.45289222614916874
0.2476595744680851 0.4529427808900984 0.45329677412931535
0.2478723404255319 0.4541516897381379 0.4533947268829078
0.24808510638297873 0.45392273360118784 0.4529456940310853
0.24829787234042552 0.45297444732969294 0.45027654179367077
0.24851063829787234 0.45512689003099954 0.4469013229809764
0.24872340425531914 0.4542156378534081 0.44837854615100653
0.24893617021276596 0.44963075269568004 0.4472680314153506
0.24914893617021278 0.45071773848897323 0.44345949126826717
0.24936170212765957 0.4480718267137685 0.442143466745332
0.2495744680851064 0.44992672203224227 0.4439414943535388
0.24978723404255318 0.44992672203224227 0.4412286727633497
0.25 0.44992672203224227 0.44202964662457955
0.2502127659574468 0.44992672203224227 0.44116091040159267
0.25042553191489364 0.45160584954843 0.4436520571756006
0.25063829787234043 0.4511721802245616 0.44406448461162684
0.2508510638297872 0.45284531454696303 0.4460060375562449
0.251063829787234 0.4538348803126526 0.44894952940318067
0.25127659574468086 0.4526714690442315 0.4522535445690847
0.25148936170212766 0.4524308359242584 0.4538348803126526
0.25170212765957445 0.4522394298720185 0.4563085237947792
0.2519148936170213 0.4505731410263923 0.4564353784470079
0.2521276595744681 0.45274169305845247 0.4586039304790681
0.2523404255319149 0.4538348803126526 0.4573671839612418
0.2525531914893617 0.4538348803126526 0.4584695037216788
0.2527659574468085 0.4538348803126526 0.460574476121204
0.2529787234042553 0.4538348803126526 0.4601269998005893
0.2531914893617021 0.45427447572726715 0.4590377246113465
0.25340425531914895 0.4554221972031026 0.4577440316889746
0.25361702127659574 0.45308574372372634 0.4643544126026049
0.25382978723404254 0.4564718512460228 0.46096830508030845
0.2540425531914894 0.456093409092087 0.4610104522688075
0.2542553191489362 0.45535683358272944 0.4613787400234862
0.25446808510638297 0.45460503329825497 0.4626856297959744
0.25468085106382976 0.45390146360178735 0.46643651979028417
0.2548936170212766 0.45603571168406504 0.46372865212928216
0.2551063829787234 0.45722755016415845 0.46484005979823345
0.2553191489361702 0.4564566024422684 0.46622699814329427
0.25553191489361704 0.45738928353331654 0.4664521691148496
0.25574468085106383 0.45628029488709415 0.46409661144791486
0.2559574468085106 0.4548587044373026 0.4631401485059009
0.2561702127659574 0.4534062545095456 0.4621996106404688
0.25638297872340426 0.4528578407425501 0.4588481377863394
0.25659574468085106 0.4528578407425501 0.4581635699739719
0.25680851063829785 0.45453082337802037 0.4587200781631655
0.2570212765957447 0.45481191988275516 0.4587200781631655
0.2572340425531915 0.452589539230201 0.45925668118786367
0.2574468085106383 0.4514530761323924 0.4612549501184571
0.25765957446808513 0.45327039127841384 0.4556802859137441
0.2578723404255319 0.452030205629373 0.45330900941337
0.2580851063829787 0.45179790535117526 0.4538348803126526
0.2582978723404255 0.45024870243799187 0.4538348803126526
0.25851063829787235 0.44871033866398136 0.4501464014529316
0.25872340425531914 0.44807282410812754 0.44894968246213973
0.25893617021276594 0.44801433457887097 0.45175572611194625
0.2591489361702128 0.44894968246213973 0.44929812487773163
0.2593617021276596 0.4491919245359133 0.45066151952857125
0.25957446808510637 0.4504966180050347 0.4502116700186385
0.2597872340425532 0.44975665175696855 0.4517534213685364
0.26 0.44980981605894405 0.44948078545813863
0.2602127659574468 0.45047939915919094 0.44769630432856283
0.2604255319148936 0.45328714795204633 0.4462924299321351
0.26063829787234044 0.44700586138625353 0.4460206153646957
0.26085106382978723 0.45173868071825213 0.4474219646845206
0.261063829787234 0.4500538211551681 0.4502100355146345
0.2612765957446809 0.44881703275405277 0.4517481514643605
0.26148936170212767 0.44992672203224227 0.4545506727924122
0.26170212765957446 0.44992672203224227 0.45295486480880043
0.26191489361702125 0.4490741862003405 0.4510282653405456
0.2621276595744681 0.449896706445049 0.4556388815168914
0.2623404255319149 0.44808359680394966 0.45079280769043234
0.2625531914893617 0.449203554752363 0.4504344666126889
0.26276595744680853 0.4487463463193982 0.4510938840305515
0.2629787234042553 0.4485946445018117 0.4509927494854938
0.2631914893617021 0.4492535673899137 0.45255395581477614
0.26340425531914896 0.4512837122786245 0.4583039103143479
0.26361702127659575 0.4491536781512139 0.45606095370495675
0.26382978723404255 0.44992672203224227 0.4557889594528579
0.26404255319148934 0.4503221768202794 0.45598668684687643
0.2642553191489362 0.45188080117244755 0.45541219713981473
0.264468085106383 0.4509217388260036 0.453337371915772
0.26468085106382977 0.4486899944336081 0.45321651651333555
0.2648936170212766 0.44728267413332534 0.4535478095012618
0.2651063829787234 0.44699560332193444 0.4501339858584443
0.2653191489361702 0.4478530373005911 0.4498071164407962
0.265531914893617 0.4489311173122569 0.44603712890171476
0.26574468085106384 0.4479726428920372 0.4463606888331644
0.26595744680851063 0.44851792097383525 0.44336008408242317
0.2661702127659574 0.4502733768017034 0.4419845559948601
0.2663829787234043 0.45042011089327877 0.4372349457728791
0.26659574468085107 0.44930397366021885 0.43624816805080613
0.26680851063829786 0.45192380808658705 0.43922229367525345
0.2670212765957447 0.4512613421617109 0.4417528249120557
0.2672340425531915 0.4492288797905048 0.4437852872832618
0.2674468085106383 0.45066310920505787 0.4412087733734299
0.2676595744680851 0.452573758228851 0.4398722438175172
0.26787234042553193 0.4523153639049585 0.4420450757459355
0.2680851063829787 0.44894968246213973 0.4436986643790215
0.2682978723404255 0.44894968246213973 0.4430874450415241
0.26851063829787236 0.4495538340750218 0.442483293428642
0.26872340425531915 0.44843695644784315 0.44434505384802037
0.26893617021276595 0.4470855466041413 0.4441544278938337
0.26914893617021274 0.44880243192162417 0.44704468683543963
0.2693617021276596 0.44658423598388103 0.4477840854813541
0.2695744680851064 0.44927853984726707 0.4476533180921892
0.26978723404255317 0.4494558732291462 0.44894968246213973
0.27 0.449562340923644 0.449562340923644
0.2702127659574468 0.44992672203224227 0.4529522472191038
0.2704255319148936 0.4517295370757919 0.4538348803126526
0.27063829787234045 0.4498598532709641 0.4568328677842386
0.27085106382978724 0.4495560519015221 0.45834940803244534
0.27106382978723403 0.4512090896316862 0.46101001307375145
0.2712765957446808 0.45083762989014536 0.46210665080242486
0.2714893617021277 0.45188080117244755 0.46262823644357587
0.27170212765957447 0.4511685190729446 0.46262823644357587
0.27191489361702126 0.4515566268141629 0.46262823644357587
0.2721276595744681 0.4539571056803457 0.4647045409514742
0.2723404255319149 0.458144816672159 0.4638929067591819
0.2725531914893617 0.4567724741896591 0.4626314740269252
0.2727659574468085 0.4541227184972597 0.4651458343225864
0.27297872340425533 0.45159782951535676 0.4631852722712807
0.2731914893617021 0.4553677545382973 0.4641611106692206
0.2734042553191489 0.45312214611858315 0.4624787601708972
0.27361702127659576 0.45389724721400243 0.4629954942345101
0.27382978723404255 0.4532151087352448 0.4636052760136786
0.27404255319148935 0.45756077052314237 0.46266469005756
0.2742553191489362 0.45197182411732545 0.4623551676089422
0.274468085106383 0.45297672624900803 0.45969711773326827
0.2746808510638298 0.4538348803126526 0.45991833457274395
0.27489361702127657 0.4538348803126526 0.4613812040591151
0.2751063829787234 0.45236862231579206 0.46311698910919613
0.2753191489361702 0.4502775488386847 0.4585955739043977
0.275531914893617 0.45292080480812885 0.45653748014682954
0.27574468085106385 0.45645631640503764 0.4541445629305754
0.27595744680851064 0.45571331792993425 0.44894968246213973
0.27617021276595743 0.45418498921566036 0.4484245191076281
0.2763829787234042 0.45421039259953905 0.44443999689851316
0.2765957446808511 0.4531723505685998 0.44204080148782093
0.27680851063829787 0.45519512345491153 0.4442751170374167
0.27702127659574466 0.4526029596882682 0.4479868044410455
0.2772340425531915 0.45539685044230305 0.44543363319228424
0.2774468085106383 0.45188080117244755 0.4431740507399022
0.2776595744680851 0.45203404452580725 0.4448882808283697
0.27787234042553194 0.4516976494750008 0.4437744367947395
0.27808510638297873 0.4493560808335995 0.44430664015590343
0.2782978723404255 0.4519674833257675 0.4455083734284506
0.2785106382978723 0.45126591912354264 0.44761048537083936
0.27872340425531916 0.45380474893755995 0.44662286631894904
0.27893617021276595 0.4520716920277279 0.4478453823218503
0.27914893617021275 0.4544109070595865 0.4505027487791761
0.2793617021276596 0.45709404149566285 0.4531858832152525
0.2795744680851064 0.457743038593063 0.4524904124774954
0.2797872340425532 0.455567964098308 0.4526058260040325
0.27999999999999997 0.455663105001927 0.4528578407425501
0.2802127659574468 0.4538299634380414 0.4528430901187163
0.2804255319148936 0.4527405710142854 0.44799866813741196
0.2806382978723404 0.4551802769698931 0.45298062643826265
0.28085106382978725 0.44894968246213973 0.45175618425658476
0.28106382978723404 0.44951882103791485 0.45001214786367427
0.28127659574468084 0.44992672203224227 0.45082637503167267
0.2814893617021277 0.4550784544510425 0.44587044668384734
0.2817021276595745 0.45335662105640057 0.4466630831127008
0.28191489361702127 0.4484964995895811 0.44699560332193444
0.28212765957446806 0.44991485580485824 0.45379334851680847
0.2823404255319149 0.4480787247702387 0.45177471929424606
0.2825531914893617 0.4492549597619636 0.45075112295243286
0.2827659574468085 0.45075329458015245 0.45000195554333844
0.28297872340425534 0.44750062175687366 0.45162829195497795
0.28319148936170213 0.45104879783308555 0.454312717879138
0.2834042553191489 0.45040918944361397 0.45186869642508815
0.2836170212765957 0.45210881597638874 0.4509037616023448
0.28382978723404256 0.45220805236490696 0.44960418484705855
0.28404255319148936 0.45188080117244755 0.4483722038865263
0.28425531914893615 0.44701515789848545 0.4460263855824524
0.284468085106383 0.4428195099502036 0.4461917980479727
0.2846808510638298 0.44338161845626295 0.4481057456179386
0.2848936170212766 0.44062099410586797 0.44211040547142155
0.2851063829787234 0.4384101312476686 0.44190252141476416
0.2853191489361702 0.43976027807004026 0.4417143572102455
0.285531914893617 0.44182163584544626 0.4434315800135878
0.2857446808510638 0.44344815805870846 0.4451466236631797
0.28595744680851065 0.4446487887120707 0.44680083528845316
0.28617021276595744 0.44621132809071135 0.4462799888289063
0.28638297872340424 0.4465518671050232 0.44712790429411003
0.2865957446808511 0.4456609673829254 0.4493551535993547
0.2868085106382979 0.44529275421800424 0.4511549916386197
0.28702127659574467 0.44624158234672573 0.45176929187500064
0.28723404255319146 0.44786914449430437 0.4509555108012112
0.2874468085106383 0.4464065962360777 0.4516867849303246
0.2876595744680851 0.44661668306592484 0.45188080117244755
0.2878723404255319 0.4487524298586411 0.45100238790409414
0.28808510638297874 0.4514385002739162 0.44912461402488524
0.28829787234042553 0.453390932204239 0.4472621490527789
0.2885106382978723 0.4579729885412632 0.44992672203224227
0.28872340425531917 0.4532140602720183 0.44992672203224227
0.28893617021276596 0.45083206233702733 0.44992672203224227
0.28914893617021276 0.45011110587194225 0.45287621419975105
0.28936170212765955 0.4504030447469356 0.4519051953131632
0.2895744680851064 0.4500366653494969 0.4552392428665847
0.2897872340425532 0.4489223499393569 0.4558162919756407
0.29 0.44764830640653663 0.45676599902296044
0.2902127659574468 0.4483704875998303 0.45764797046595984
0.2904255319148936 0.45297726791908627 0.4601259239300515
0.2906382978723404 0.45188080117244755 0.4589735552680716
0.2908510638297872 0.4497577495195591 0.4563276708244708
0.29106382978723405 0.44894968246213973 0.4549430673180947
0.29127659574468084 0.4508711097155883 0.4538185543692744
0.29148936170212764 0.4470895441432001 0.45169291952991625
0.2917021276595745 0.4479726428920372 0.44992672203224227
0.2919148936170213 0.44762327360296433 0.4495773527431695
0.29212765957446807 0.4486507979344456 0.4510186757277787
0.2923404255319149 0.45225562067295766 0.4538348803126526
0.2925531914893617 0.4538348803126526 0.4549979845919876
0.2927659574468085 0.45239381347611357 0.4543478926163187
0.2929787234042553 0.45532615337078536 0.4521122042134838
0.29319148936170214 0.45389324134615944 0.45371815824563905
0.29340425531914893 0.4557889594528579 0.4502636039764088
0.2936170212765957 0.4560892685480244 0.45218111026761404
0.29382978723404257 0.4550255220106813 0.45198760223641044
0.29404255319148936 0.4528578407425501 0.45147532907430166
0.29425531914893616 0.4535709704938459 0.45330706067503923
0.29446808510638295 0.45298060468562834 0.4555434315667014
0.2946808510638298 0.453800583978198 0.4529092852442321
0.2948936170212766 0.45218774549992896 0.45548201512537645
0.2951063829787234 0.4550124320419071 0.4547180441095935
0.29531914893617023 0.45810758871822393 0.4556723486474775
0.295531914893617 0.45721113217887915 0.4549665898008674
0.2957446808510638 0.4558144981771428 0.45676599902296044
0.29595744680851066 0.45228848743166705 0.45548670999687657
0.29617021276595745 0.45696675828279987 0.45715859863294106
0.29638297872340424 0.4568770925449639 0.45682154578396217
0.29659574468085104 0.4530288720087364 0.4564239364905878
0.2968085106382979 0.4554722077726973 0.45351812863249225
0.2970212765957447 0.4573802365180318 0.4554261573778266
0.29723404255319147 0.45676599902296044 0.45430514415306306
0.2974468085106383 0.45871654252059757 0.45513524264441074
0.2976595744680851 0.45572701713317215 0.45261287897278113
0.2978723404255319 0.45947364277161495 0.45561017948353527
0.29808510638297875 0.45760421388928113 0.45292725309444104
0.29829787234042554 0.45627277869601196 0.4538348803126526
0.29851063829787233 0.45920765859164414 0.4536717272654446
0.2987234042553191 0.45707011669214015 0.4519454877350109
0.298936170212766 0.45863582005160064 0.4494803313029735
0.29914893617021276 0.4579285781769852 0.4477706560912843
0.29936170212765956 0.45676599902296044 0.4489813543779426
0.2995744680851064 0.45600114729833463 0.44839701858299064
0.2997872340425532 0.4521680770026666 0.4470674222794892
0.3 0.45471392471018807 0.44793997783451484
0.3002127659574468 0.4509037616023448 0.4457816705046142
0.30042553191489363 0.4509306796880899 0.4430336088700339
0.3006382978723404 0.45138732864109016 0.4421203109640336
0.3008510638297872 0.4518439775940904 0.4412070130580333
0.30106382978723406 0.45098523023337084 0.44561122059670166
0.30127659574468085 0.45477751518539855 0.4421792148661348
0.30148936170212765 0.4525515007022569 0.4458653937316853
0.3017021276595745 0.45207214518397054 0.44474942828632297
0.3019148936170213 0.455233763388873 0.44406448461162684
0.3021276595744681 0.45634401688458703 0.44461954204335596
0.30234042553191487 0.456068742560663 0.4436470112571343
0.3025531914893617 0.4541074547732647 0.4447689497211173
0.3027659574468085 0.4577303530053089 0.4538348803126526
0.3029787234042553 0.4557889594528579 0.45353012989436936
0.30319148936170215 0.45533636559928836 0.451428207318878
0.30340425531914894 0.4535754727777078 0.449537610729825
0.30361702127659573 0.4521121033630994 0.44815211427519386
0.3038297872340425 0.45394964395724097 0.4496971947430658
0.3040425531914894 0.45478105880875536 0.4455146134297807
0.30425531914893617 0.4557715135458551 0.44375043535959435
0.30446808510638296 0.4551885687713662 0.44151001478993007
0.3046808510638298 0.45481191988275516 0.4392774891949869
0.3048936170212766 0.4557889594528579 0.44492897432961287
0.3051063829787234 0.45527915914593614 0.4430874450415241
0.30531914893617024 0.45188080117244755 0.4425561953084434
0.30553191489361703 0.45269158009243243 0.4435657026612737
0.3057446808510638 0.4521983304449421 0.4464500866993643
0.3059574468085106 0.45159334418475694 0.4439498160045957
0.30617021276595746 0.45105155719900913 0.4546968606696599
0.30638297872340425 0.4499315903577127 0.45287731404443177
0.30659574468085105 0.45244787835621475 0.45131372398868014
0.3068085106382979 0.45104294912761905 0.45299770999112005
0.3070212765957447 0.45298934674210156 0.4521720619581715
0.3072340425531915 0.4546964296128239 0.45496113168880326
0.30744680851063827 0.45359658611661496 0.4532534291277815
0.3076595744680851 0.4540996796870872 0.45557893203018046
0.3078723404255319 0.45481191988275516 0.45234496718586914
0.3080851063829787 0.45137014634220435 0.4536016879427229
0.30829787234042555 0.448949972506225 0.44992730212041276
0.30851063829787234 0.4516263911672928 0.4513719811621381
0.30872340425531913 0.4505792660170702 0.44775512823042785
0.308936170212766 0.4528578407425501 0.4477214556465027
0.3091489361702128 0.4538692165330428 0.4484439945668934
0.30936170212765957 0.4535140395926172 0.45056840347231325
0.30957446808510636 0.45206712630683 0.45109008673672724
0.3097872340425532 0.45096248329234123 0.45274039736255717
0.31 0.4511268771095229 0.45134999261670095
0.3102127659574468 0.4547154259180351 0.45676599902296044
0.31042553191489364 0.4548458844048809 0.45676599902296044
0.31063829787234043 0.4494210318506635 0.45929444993085433
0.3108510638297872 0.4502436546938883 0.46100421075759906
0.311063829787234 0.45011919254136007 0.4591050191814012
0.31127659574468086 0.44992672203224227 0.4587200781631655
0.31148936170212765 0.44908399526989407 0.45656452981132895
0.31170212765957445 0.45050345488091903 0.4548356471162171
0.3119148936170213 0.44831501409735275 0.4584027439807721
0.3121276595744681 0.44837612204663374 0.4554421740518975
0.3123404255319149 0.4493239112508603 0.4522550299611681
0.3125531914893617 0.4496924908557808 0.4503951843851653
0.3127659574468085 0.4474850873120487 0.4474850873120487
0.3129787234042553 0.44785919350575687 0.44526842295429003
0.3131914893617021 0.446998817659128 0.44601534941463833
0.31340425531914895 0.4483746096731239 0.44908367138916866
0.31361702127659574 0.4503690498370693 0.45019407791488
0.31382978723404253 0.45016401622967817 0.45211809536988323
0.3140425531914894 0.45242957276756396 0.45493242350288554
0.3142553191489362 0.45172768175083805 0.4580492774362818
0.31446808510638297 0.4509037616023448 0.46091832292616464
0.31468085106382976 0.45015477232894513 0.4631491754202729
0.3148936170212766 0.450794451877563 0.4627375461683577
0.3151063829787234 0.4509037616023448 0.4618316794439682
0.3153191489361702 0.4480595409029691 0.4623622520483172
0.31553191489361704 0.44921941228842405 0.4633695060990725
0.31574468085106383 0.4531863186954181 0.4611605785162967
0.3159574468085106 0.4520171950740752 0.45976531468408205
0.31617021276595747 0.4556484535022337 0.4568713784859286
0.31638297872340426 0.4500537715449802 0.46046240811547423
0.31659574468085105 0.45276319932002157 0.45583628016412214
0.31680851063829785 0.45102033712411377 0.456707711262076
0.3170212765957447 0.44888022876501643 0.4635126710841809
0.3172340425531915 0.44634581548069613 0.45926078209478266
0.3174468085106383 0.44849666745232847 0.4556379544495875
0.3176595744680851 0.4460185637518319 0.4544978875314184
0.3178723404255319 0.4462523326957584 0.4528578407425501
0.3180851063829787 0.4492752943461884 0.4528578407425501
0.3182978723404255 0.44923267723958077 0.45632806470585785
0.31851063829787235 0.44894968246213973 0.4558397087927272
0.31872340425531914 0.44894968246213973 0.4564273362593226
0.31893617021276593 0.44894968246213973 0.4562353757534751
0.3191489361702128 0.44781684103189145 0.4582104441734998
0.3193617021276596 0.44954983856999853 0.4637392396010475
0.31957446808510637 0.45139906447333034 0.4650911846266349
0.3197872340425532 0.4497502201327508 0.46245173454408445
0.32 0.45050694293252413 0.46424663099078056
0.3202127659574468 0.4528424823932122 0.46413219167207453
0.3204255319148936 0.44965047266263297 0.4592601067877478
0.32063829787234044 0.4484670408651017 0.45700731982147946
0.32085106382978723 0.4515788326313199 0.45588961563323377
0.321063829787234 0.4538254499761084 0.4538254499761084
0.32127659574468087 0.45169983427926413 0.4517601565769919
0.32148936170212766 0.44883521270297033 0.4493543732363954
0.32170212765957445 0.44807508805201857 0.444939079021748
0.32191489361702125 0.4489055812774403 0.4441085857963263
0.3221276595744681 0.4501947403983704 0.4434419556435114
0.3223404255319149 0.4509037616023448 0.44588794707326634
0.3225531914893617 0.4512119600717275 0.4480775312159465
0.3227659574468085 0.45188080117244755 0.44406448461162684
0.3229787234042553 0.45188080117244755 0.4428899039002251
0.3231914893617021 0.45159738702677804 0.439037579688279
0.32340425531914896 0.45040175611777594 0.438439764233778
0.32361702127659575 0.44992672203224227 0.4351068272110053
0.32382978723404254 0.44965157907028497 0.4308126842763784
0.32404255319148934 0.4482667463006012 0.42701861449470313
0.3242553191489362 0.44794451173545535 0.4235185224828907
0.324468085106383 0.4495574982619243 0.4257393248091442
0.32468085106382977 0.4491809948980451 0.42573204521558294
0.3248936170212766 0.44983974128869386 0.4281709092593402
0.3251063829787234 0.44699560332193444 0.4285905614268108
0.3253191489361702 0.44699560332193444 0.4317571113280884
0.325531914893617 0.4463167301544514 0.43365648592423983
0.32574468085106384 0.44743989429126513 0.43429408891060084
0.32595744680851063 0.44888594111787067 0.43637565073934415
0.3261702127659574 0.4463282705428374 0.4382022471910112
0.32638297872340427 0.44569505751086114 0.43754871386187943
0.32659574468085106 0.445231632975354 0.4395859999503425
0.32680851063829786 0.4450415241817294 0.4410860421953109
0.3270212765957447 0.4430874450415241 0.4392736543899895
0.3272340425531915 0.4430874450415241 0.4408172900643287
0.3274468085106383 0.44475187263484567 0.4424216740041955
0.3276595744680851 0.4475044931847216 0.4425378150232657
0.3278723404255319 0.44760686921096704 0.44467575050065933
0.3280851063829787 0.4472167541042154 0.44428563539390775
0.3282978723404255 0.4487876677663744 0.44854464572272645
0.32851063829787236 0.4487181647713973 0.45193868059513315
0.32872340425531915 0.4451933939064085 0.4531615801919083
0.32893617021276594 0.44603673954844103 0.4548664472725826
0.32914893617021274 0.44761388639090693 0.4580521801275492
0.3293617021276596 0.45237391827590967 0.462049368410972
0.3295744680851064 0.45492624638390644 0.46794479082856466
0.32978723404255317 0.4549725961284982 0.4662150422325005
0.33 0.453664329053636 0.4652905257168551
0.3302127659574468 0.4511722093160511 0.4655593551538837
0.3304255319148936 0.4508996767719158 0.46361344567453666
0.33063829787234045 0.4502211571134521 0.46497048499146404
0.33085106382978724 0.45188080117244755 0.4613618156131815
0.33106382978723403 0.45188080117244755 0.4611032354597087
0.3312765957446808 0.45131450457213373 0.46165119687347334
0.33148936170212767 0.44911867510220244 0.46165119687347334
0.33170212765957446 0.44851918170640337 0.46165119687347334
0.33191489361702126 0.4477682704185672 0.4622419028952595
0.3321276595744681 0.44572638371134676 0.46262823644357587
0.3323404255319149 0.4464754463898311 0.4647791197557286
0.3325531914893617 0.44614504783951237 0.4630076887066172
0.3327659574468085 0.4470054682331795 0.4616807916072085
0.33297872340425533 0.4478232667481407 0.46458231558378116
0.3331914893617021 0.4475730738479705 0.46371610979472705
0.3334042553191489 0.44894968246213973 0.46422638677287487
0.33361702127659576 0.4472488023499052 0.465245594144443
0.33382978723404255 0.44813759960276245 0.4636052760136786
0.33404255319148934 0.44894968246213973 0.46110427249426883
0.3342553191489362 0.44847312351593904 0.45972103941096926
0.334468085106383 0.44789121877758314 0.45863865404871146
0.3346808510638298 0.4470987114464943 0.4575883764062232
0.33489361702127657 0.448782819940329 0.45547936996999816
0.3351063829787234 0.4479726428920372 0.4587200781631655
0.3353191489361702 0.4489534581597431 0.4580662013180283
0.335531914893617 0.4512821603511656 0.45676599902296044
0.33574468085106385 0.4513665967302086 0.45522338569624393
0.33595744680851064 0.452859632826466 0.4583985798356021
0.33617021276595743 0.45224802789705126 0.45273989522536334
0.3363829787234042 0.45468986256572286 0.4537128229956203
0.33659574468085107 0.45676599902296044 0.4498442350210242
0.33680851063829786 0.45676599902296044 0.4492564977992643
0.33702127659574466 0.4584594018501815 0.45188080117244755
0.3372340425531915 0.4597315841520273 0.45149343198628233
0.3374468085106383 0.4559638219818908 0.44930705535041626
0.3376595744680851 0.4590957589565266 0.44932536325550065
0.33787234042553194 0.4613349813350327 0.4466509948287132
0.33808510638297873 0.46165119687347334 0.4460185637518319
0.3382978723404255 0.46233287876765394 0.4467002456460125
0.3385106382978723 0.45959715109942173 0.4439645179777803
0.33872340425531916 0.45800405825143814 0.44284877173761494
0.33893617021276595 0.4569312140792957 0.44211040547142155
0.33914893617021274 0.45714575322735623 0.44315995542862785
0.3393617021276596 0.4557889594528579 0.44099075789994413
0.3395744680851064 0.45651072369155865 0.4413445794772161
0.3397872340425532 0.45762728663913443 0.44211040547142155
0.34 0.4548418090772608 0.44791286450302586
0.3402127659574468 0.4550366253676479 0.4483097011193763
0.3404255319148936 0.45701813086378895 0.45039949792068784
0.3406382978723404 0.4569607671548909 0.44894968246213973
0.34085106382978725 0.45631620888677155 0.44947693189605337
0.34106382978723404 0.4540927704510142 0.44992672203224227
0.34127659574468083 0.4593009675451204 0.4515375037328849
0.3414893617021277 0.4513186612953548 0.457494098777257
0.3417021276595745 0.4515900770168115 0.4511944857579809
0.34191489361702126 0.44942211349369204 0.4535986647968765
0.34212765957446806 0.45015352131277453 0.4528578407425501
0.3423404255319149 0.44800980255229234 0.45332778069747376
0.3425531914893617 0.45093028572668553 0.4538348803126526
0.3427659574468085 0.44962875216615283 0.4538348803126526
0.34297872340425534 0.4504905577892289 0.4546741852783832
0.34319148936170213 0.4508987721168567 0.45383238556990857
0.3434042553191489 0.4485527535540468 0.45272553110651914
0.34361702127659577 0.44654321459543317 0.45083149948524504
0.34382978723404256 0.4471642066159104 0.44837686103010055
0.34404255319148935 0.4460185637518319 0.44676030014957935
0.34425531914893615 0.44463768254023 0.4422797617585254
0.344468085106383 0.4407569492835574 0.4394795982372842
0.3446808510638298 0.4401563263312165 0.43917928676111373
0.3448936170212766 0.4420724846995988 0.4410954451294963
0.3451063829787234 0.44163216836348274 0.44088396467023716
0.3453191489361702 0.4447713402502005 0.43917928676111373
0.345531914893617 0.44323331989996695 0.4371013749819641
0.3457446808510638 0.44211040547142155 0.4359752646593708
0.34595744680851065 0.4414088026336414 0.43862841329646896
0.34617021276595744 0.44534690828144385 0.43749386980906385
0.34638297872340423 0.4460185637518319 0.4391264262666895
0.3465957446808511 0.44406448461162684 0.4343454932416497
0.3468085106382979 0.4442813018074627 0.4352711284807034
0.34702127659574467 0.44696976263450605 0.4333687307153551
0.3472340425531915 0.44810581238867253 0.42745481191988266
0.3474468085106383 0.4469673494936576 0.42938063723181086
0.3476595744680851 0.4477213680828217 0.4289063414416571
0.3478723404255319 0.4492673738287027 0.4282120687554722
0.34808510638297874 0.44992672203224227 0.43289386276196185
0.34829787234042553 0.4537534986213666 0.440013908371466
0.3485106382978723 0.4497534245791469 0.43705191016781325
0.34872340425531917 0.44841690346327956 0.4357153890519458
0.34893617021276596 0.44992672203224227 0.4394032376864449
0.34914893617021275 0.44841591701400735 0.44258384336877915
0.34936170212765955 0.44764010976006624 0.443399418347685
0.3495744680851064 0.44954817995444946 0.4472155587364515
0.3497872340425532 0.4480675566962489 0.44983180822803054
0.35 0.44509857357841187 0.4558460088495404
0.3502127659574468 0.4458025620619989 0.45654999733312746
0.3504255319148936 0.44670627222953907 0.45676599902296044
0.3506382978723404 0.44699560332193444 0.4552439381251838
0.35085106382978726 0.4455399978317391 0.45481191988275516
0.35106382978723405 0.4450415241817294 0.4532473670302731
0.35127659574468084 0.44139104005349733 0.4528578407425501
0.35148936170212763 0.44216749578355313 0.45486901019488674
0.3517021276595745 0.4440729925052969 0.45598606894561244
0.3519148936170213 0.448649834399901 0.45812038203868816
0.35212765957446807 0.44848992676172467 0.4606741573033708
0.3523404255319149 0.448230110506524 0.4612914108956655
0.3525531914893617 0.44970750265817083 0.46316683726553565
0.3527659574468085 0.4490285538320542 0.46270710781349034
0.3529787234042553 0.44986466290692867 0.4606120981780572
0.35319148936170214 0.44915171686029615 0.46010118652958104
0.35340425531914893 0.4495833132131392 0.46062097041616407
0.3536170212765957 0.4494357417922878 0.45823401883301745
0.35382978723404257 0.44804507236442087 0.458997471704944
0.35404255319148936 0.4508237441261276 0.4589314895724295
0.35425531914893615 0.4527888960225801 0.4550876987626352
0.354468085106383 0.44705788027496496 0.457743038593063
0.3546808510638298 0.4481785094994227 0.45712543877090644
0.3548936170212766 0.4482503173051608 0.45516160246124465
0.3551063829787234 0.44748699456871943 0.4562803506996428
0.3553191489361702 0.44671484657049115 0.4542504063798685
0.355531914893617 0.451392707370951 0.4548731445997198
0.3557446808510638 0.4538348803126526 0.4565565580789428
0.35595744680851066 0.45474310853700156 0.4558577707986115
0.35617021276595745 0.45202888228276217 0.457743038593063
0.35638297872340424 0.4536167447607792 0.4573067674893161
0.35659574468085103 0.45425135026091157 0.4557889594528579
0.3568085106382979 0.45676599902296044 0.4543823400184183
0.3570212765957447 0.45432810703009646 0.45102942174790206
0.35723404255319147 0.45661322417836686 0.45142887540656906
0.3574468085106383 0.4595280033220423 0.45188080117244755
0.3576595744680851 0.4558459042609864 0.44705254813006295
0.3578723404255319 0.4565676487157528 0.4483693435064526
0.35808510638297875 0.45449386001437214 0.4505742717514852
0.35829787234042554 0.45275188105282066 0.45275188105282066
0.35851063829787233 0.45165088597625896 0.45328888172855425
0.3587234042553191 0.45390726787659996 0.4541846893573359
0.35893617021276597 0.45337282977714183 0.4556172964413273
0.35914893617021276 0.45191183116356926 0.4529509307159152
0.35936170212765955 0.45377436725823256 0.454690893773915
0.3595744680851064 0.45343886023220203 0.45305151390576737
0.3597872340425532 0.4557889594528579 0.4538348803126526
0.36 0.4548338672834893 0.4528797881432841
0.3602127659574468 0.4550820784231878 0.4481392068408421
0.3604255319148936 0.45194461912621636 0.4475562998824886
0.3606382978723404 0.451811816667771 0.4488806979574632
0.3608510638297872 0.4478986252405445 0.445115541833222
0.36106382978723406 0.4474323578371082 0.4460185637518319
0.36127659574468085 0.44931358484947137 0.4467463685264953
0.36148936170212764 0.45397611084134415 0.4449356012852107
0.3617021276595745 0.45321772540360367 0.4472821919736607
0.3619148936170213 0.45011580964720777 0.44992672203224227
0.3621276595744681 0.45179179222645033 0.4452640465467224
0.36234042553191487 0.44923715643033835 0.4461143884078981
0.3625531914893617 0.4514150188079891 0.44816005923308044
0.3627659574468085 0.44819185798211714 0.4497989643122974
0.3629787234042553 0.44699080769360383 0.44504392199589476
0.36319148936170215 0.45083927738713053 0.44469434958662374
0.36340425531914894 0.44880565766097497 0.4419663806702568
0.36361702127659573 0.44979440083219646 0.446598639721797
0.3638297872340425 0.44916989933113055 0.44203699984842465
0.36404255319148937 0.45188080117244755 0.4407446448116684
0.36425531914893616 0.45188080117244755 0.43943139439457735
0.36446808510638296 0.455384030664275 0.4401563263312165
0.3646808510638298 0.4580157094237921 0.43856125760346926
0.3648936170212766 0.4551365252238787 0.43787764184988776
0.3651063829787234 0.4554989041928002 0.4368282785709214
0.36531914893617023 0.4542794288481673 0.43624816805080613
0.365531914893617 0.4538348803126526 0.43192007784327846
0.3657446808510638 0.4519503026704973 0.4323052590213709
0.3659574468085106 0.45188080117244755 0.42952273776343686
0.36617021276595746 0.45090932270063633 0.4303859306301905
0.36638297872340425 0.45280620938033783 0.4303859306301905
0.36659574468085104 0.4498207969208527 0.43054481829727487
0.3668085106382979 0.4464852451400351 0.4355481459685013
0.3670212765957447 0.44694900729677556 0.433456837415975
0.3672340425531915 0.446954917456518 0.438364990652677
0.36744680851063827 0.446174100662922 0.441488257827061
0.3676595744680851 0.44828371689801016 0.44513060966632584
0.3678723404255319 0.4464030475223245 0.45111183363146234
0.3680851063829787 0.44413869857480565 0.45428629311611446
0.36829787234042555 0.4428420920221151 0.45677474403802704
0.36851063829787234 0.4422837268822327 0.4629171054615945
0.36872340425531913 0.44472925820101766 0.4669929909929028
0.368936170212766 0.4474231266292194 0.4691011692590822
0.36914893617021277 0.4463582429726406 0.47108191335369065
0.36936170212765956 0.44252627907578157 0.46967545023647406
0.36957446808510636 0.4440100298469597 0.46566826468321804
0.3697872340425532 0.44305086633056306 0.4596331049890865
0.37 0.4395784209958615 0.4525385333547519
0.3702127659574468 0.4440323592317847 0.4491103093613503
0.37042553191489364 0.4437247859865177 0.4506481755876852
0.3706382978723404 0.44341721274125073 0.45218604181401967
0.3708510638297872 0.4431096394959838 0.4537239080403541
0.371063829787234 0.44629465135083685 0.4557592040982403
0.37127659574468086 0.4476017704852435 0.45824948865013493
0.37148936170212765 0.44699560332193444 0.4602198520367143
0.37170212765957444 0.44699560332193444 0.4573623256362405
0.3719148936170213 0.44699560332193444 0.45856980065927555
0.3721276595744681 0.44699560332193444 0.4592701373264707
0.3723404255319149 0.44789993867432126 0.4620359744552504
0.3725531914893617 0.45052055087870274 0.46847779869019324
0.3727659574468085 0.4530063726106754 0.4650279111881572
0.3729787234042553 0.454063167269219 0.4684265821203546
0.3731914893617021 0.45404229051854483 0.470138876967482
0.37340425531914895 0.45188080117244755 0.46589866044474704
0.37361702127659574 0.4515875058109711 0.4629215318050523
0.37382978723404253 0.4500388036103358 0.4636052760136786
0.3740425531914894 0.44952445896653037 0.45843228747416265
0.37425531914893617 0.4485256568075638 0.4562129851074338
0.37446808510638296 0.44880398839821534 0.4559346535167823
0.37468085106382976 0.4538060429493792 0.4577315036477536
0.3748936170212766 0.44894968246213973 0.45844837924328263
0.3751063829787234 0.449227378967954 0.457321392034589
0.3753191489361702 0.4502699500562444 0.45974976223517183
0.37553191489361704 0.4509037616023448 0.46165119687347334
0.37574468085106383 0.4494811952640747 0.46022863053520313
0.3759574468085106 0.4485880071460586 0.4593354424171871
0.37617021276595747 0.450454362130019 0.4604494575672079
0.37638297872340426 0.45311956412424625 0.4577197539408356
0.37659574468085105 0.4524599354339489 0.45676599902296044
0.37680851063829784 0.45188080117244755 0.45526232232234554
0.3770212765957447 0.45099945893501603 0.4539305776453238
0.3772340425531915 0.4536022949680499 0.4529508748803912
0.3774468085106383 0.4497073240956557 0.45519074069951315
0.3776595744680851 0.45252845172392986 0.45676599902296044
0.3778723404255319 0.45140959967479327 0.45676599902296044
0.3780851063829787 0.4509037616023448 0.45676599902296044
0.37829787234042556 0.4509037616023448 0.45543919990708637
0.37851063829787235 0.45009804000457804 0.46045197106712266
0.37872340425531914 0.44897832748800703 0.46165119687347334
0.37893617021276593 0.4517634257605943 0.46204135938430985
0.3791489361702128 0.4511656073135467 0.4582667300154667
0.3793617021276596 0.45069909109165146 0.4577276009319414
0.37957446808510636 0.4499769232102993 0.45583916063091484
0.3797872340425532 0.4509037616023448 0.45676599902296044
0.38 0.4501360031977771 0.4559982406183927
0.3802127659574468 0.44992672203224227 0.45220366359739456
0.3804255319148936 0.44905207941865793 0.45198319812896576
0.38063829787234044 0.45145129735449985 0.4534698564778826
0.38085106382978723 0.45225421883435335 0.45030013969414817
0.381063829787234 0.4502734329706459 0.4465543531524324
0.38127659574468087 0.45188080117244755 0.44490024779433657
0.38148936170212766 0.45188080117244755 0.4428171859968725
0.38170212765957445 0.45188080117244755 0.44272657906598245
0.3819148936170213 0.4532530264916488 0.44171521972232286
0.3821276595744681 0.45054308812726196 0.4444251580867097
0.3823404255319149 0.4480093726209907 0.4392894759479743
0.3825531914893617 0.449809249748731 0.4401563263312165
0.3827659574468085 0.44919530540038516 0.4396650804547255
0.3829787234042553 0.44992672203224227 0.4382022471910112
0.3831914893617021 0.4479807580788579 0.4367427742259729
0.38340425531914896 0.4460185637518319 0.4371457100370929
0.38361702127659575 0.4483138515492694 0.4343767675286155
0.38382978723404254 0.4435304931244836 0.4324138511175557
0.38404255319148933 0.4439304795781972 0.4304529331469053
0.3842553191489362 0.44241313938486837 0.4315647928092576
0.384468085106383 0.44446438508054714 0.4329322899397101
0.38468085106382977 0.4443443849191169 0.43471132786572325
0.3848936170212766 0.4433615461418832 0.435974066950447
0.3851063829787234 0.4461300082886321 0.4423332945450222
0.3853191489361702 0.4452259564846627 0.4378707206811752
0.38553191489361704 0.4471260805995652 0.43429408891060084
0.38574468085106384 0.44992672203224227 0.4348289960693405
0.38595744680851063 0.448356895729647 0.4365972770998705
0.3861702127659574 0.4454970637192532 0.4357266680182273
0.38638297872340427 0.4448298688092685 0.43862555793593305
0.38659574468085106 0.44039655300236247 0.4408899126530693
0.38680851063829785 0.447060341827614 0.441133365901319
0.3870212765957447 0.44317555731232255 0.4460626198872311
0.3872340425531915 0.44489263131277107 0.4474422819288094
0.3874468085106383 0.4442465919765023 0.44992672203224227
0.3876595744680851 0.44699560332193444 0.4502533229144197
0.3878723404255319 0.44758283559272183 0.4509999527662665
0.3880851063829787 0.44766650694388377 0.4502328579803957
0.3882978723404255 0.4448924108007287 0.45357003059910234
0.38851063829787236 0.4482812911200072 0.45200071554383486
0.38872340425531915 0.4455113069669396 0.45531917666764765
0.38893617021276594 0.4449018966727129 0.45676599902296044
0.3891489361702128 0.4440732061310304 0.46548086147925144
0.3893617021276596 0.44869756481711587 0.4636367070236713
0.3895744680851064 0.44804418346269137 0.47018240796920735
0.38978723404255317 0.4521081028009751 0.46906606636808396
0.39 0.4543777028713835 0.4679476513054606
0.3902127659574468 0.4554968982653203 0.46819841267665396
0.3904255319148936 0.45826764034470735 0.4660117929723419
0.39063829787234045 0.45775048250572803 0.4665289508113212
0.39085106382978724 0.4612454045620515 0.4647175796875884
0.39106382978723403 0.45899788587046375 0.4647259320319891
0.3912765957446808 0.4592802147718234 0.4647127512507999
0.39148936170212767 0.4614679273662832 0.467513434294089
0.39170212765957446 0.46429439480822876 0.46682431549953873
0.39191489361702125 0.46291436306870737 0.4698722997541336
0.3921276595744681 0.4617753370632477 0.46618005610275565
0.3923404255319149 0.46360459803537796 0.4665360557348359
0.3925531914893617 0.46165119687347334 0.46347246668854986
0.39276595744680853 0.46165119687347334 0.46190299698970505
0.3929787234042553 0.46165119687347334 0.4589524279904158
0.3931914893617021 0.45969080692837044 0.45725294110678727
0.3934042553191489 0.4589742143668193 0.45676599902296044
0.39361702127659576 0.4553946667470725 0.4553318486942285
0.39382978723404255 0.455458677583122 0.45562381851798994
0.39404255319148934 0.4557889594528579 0.45389879034829766
0.3942553191489362 0.452639097485137 0.4500360936609488
0.394468085106383 0.45040389298854155 0.4509037616023448
0.3946808510638298 0.4481650697945479 0.4509037616023448
0.39489361702127657 0.44699560332193444 0.4503671186094733
0.3951063829787234 0.4490369564029722 0.4540094281943178
0.3953191489361702 0.4491627402837174 0.45349701420728306
0.395531914893617 0.4498333235684162 0.4528578407425501
0.39574468085106385 0.4500712862985157 0.45206150650528937
0.39595744680851064 0.4533036525597346 0.45694307494059977
0.39617021276595743 0.45058897571665013 0.457743038593063
0.3963829787234043 0.4517563237369482 0.4591152398715924
0.39659574468085107 0.4526538948470398 0.46185514276898365
0.39680851063829786 0.45188080117244755 0.4639897204677046
0.39702127659574465 0.4479323514845561 0.46221324577104633
0.3972340425531915 0.4534819943448601 0.4644310787404415
0.3974468085106383 0.4534850388071447 0.4613013553679654
0.3976595744680851 0.4512927431607527 0.4575153684049779
0.39787234042553193 0.45431174287591974 0.4556580865902568
0.3980851063829787 0.45188080117244755 0.454840764931397
0.3982978723404255 0.45465361171464436 0.4541252731275398
0.3985106382978723 0.4561753106187195 0.4493137103171044
0.39872340425531916 0.4551169771817631 0.45169947921959763
0.39893617021276595 0.4527692495878886 0.44906864962463033
0.39914893617021274 0.45047202292357974 0.4441780468241989
0.3993617021276596 0.4511967706982372 0.44372246937452164
0.3995744680851064 0.44994997967613537 0.4447080917770642
0.3997872340425532 0.44894968246213973 0.4472435650272056
0.4 0.44894968246213973 0.44871245252906017
0.4002127659574468 0.4496114073585504 0.4496114073585504
0.4004255319148936 0.44992672203224227 0.45096981849395035
0.4006382978723404 0.45032690889879207 0.45188080117244755
0.40085106382978725 0.45005229575435907 0.45102933532446177
0.40106382978723404 0.4479108709337879 0.44894968246213973
0.40127659574468083 0.44732579729448674 0.44894968246213973
0.4014893617021277 0.44699560332193444 0.44934981028421994
0.40170212765957447 0.44621102017380293 0.44796526416191335
0.40191489361702126 0.4464701131626951 0.4464701131626951
0.40212765957446805 0.4463404746838885 0.4447083064757398
0.4023404255319149 0.44565592129442905 0.44211040547142155
0.4025531914893617 0.4440264475173332 0.4387902117472572
0.4027659574468085 0.4442814771528531 0.43794162688770605
0.40297872340425533 0.44601390632448473 0.438981084390685
0.4031914893617021 0.447746335496116 0.44002054189366374
0.4034042553191489 0.44665348992903753 0.4401563263312165
0.40361702127659577 0.4451361231982712 0.4401563263312165
0.40382978723404256 0.4436187564675053 0.4401563263312165
0.40404255319148935 0.44989843140414293 0.4401563263312165
0.40425531914893614 0.4546452061969566 0.44106523754236093
0.404468085106383 0.4490527215142999 0.4435244453004953
0.4046808510638298 0.44548420917857684 0.44557587875498444
0.4048936170212766 0.443552324531714 0.4481276027221005
0.4051063829787234 0.4468213354011909 0.44921727301192604
0.4053191489361702 0.44924479632814757 0.45110717749627366
0.405531914893617 0.4507513096027485 0.4535050452844501
0.4057446808510638 0.4546413397309765 0.4519660912483369
0.40595744680851065 0.4509386054422198 0.45381745839271515
0.40617021276595744 0.45284027052314524 0.4518456607336378
0.40638297872340423 0.4520294052006263 0.4493323059195272
0.4065957446808511 0.4531486451661506 0.4460185637518319
0.40680851063829787 0.45426333390412343 0.4468754709347737
0.40702127659574466 0.4542452903038709 0.44513949499761557
0.4072340425531915 0.4559528495226474 0.4437934347781891
0.4074468085106383 0.45431694344915513 0.44569718832749694
0.4076595744680851 0.4528855454602558 0.4460185637518319
0.4078723404255319 0.45262925349731137 0.44699560332193444
0.40808510638297874 0.4496197200141149 0.4467387950042885
0.4082978723404255 0.44761380348715907 0.44681618361949554
0.4085106382978723 0.45099990918041494 0.4463628621697783
0.40872340425531917 0.45188080117244755 0.4457195049207854
0.40893617021276596 0.44858635016766335 0.4476657892542241
0.40914893617021275 0.4479726428920372 0.44507138719862344
0.40936170212765954 0.45317456139667345 0.4492138100285314
0.4095744680851064 0.4487153356709095 0.44949768085496333
0.4097872340425532 0.44895662656150637 0.44602550785119854
0.41 0.4526472484640194 0.44894968246213973
0.4102127659574468 0.4527850882348245 0.45052437057888206
0.4104255319148936 0.45188080117244755 0.45188080117244755
0.4106382978723404 0.45188080117244755 0.4510778192508423
0.41085106382978726 0.45428604451752425 0.4509037616023448
0.41106382978723405 0.45481191988275516 0.4509037616023448
0.41127659574468084 0.4541375414668472 0.45097942689089343
0.41148936170212763 0.45731890884636206 0.4527290606658494
0.4117021276595745 0.4557889594528579 0.452220507654173
0.41191489361702127 0.4532658291474245 0.44551393769074527
0.41212765957446806 0.45155323010840376 0.44374258716961157
0.4123404255319149 0.45504707497767155 0.44229587659021813
0.4125531914893617 0.4567246539394462 0.4402390164982449
0.4127659574468085 0.45676599902296044 0.439469490560374
0.4129787234042553 0.4560978349795961 0.44300129086257395
0.41319148936170214 0.45419359238920487 0.44637727582838416
0.41340425531914893 0.4552947592014958 0.4489269605968967
0.4136170212765957 0.459992094195279 0.45150420942269076
0.41382978723404257 0.4581858643538553 0.45484238256559467
0.41404255319148936 0.45676599902296044 0.45315127334321137
0.41425531914893615 0.45956548011609233 0.4625404780321253
0.414468085106383 0.45732586913992196 0.4606741573033708
0.4146808510638298 0.4613470504490571 0.4586942380444241
0.4148936170212766 0.46185434442775575 0.45549391267176154
0.4151063829787234 0.45770528295065954 0.45676599902296044
0.4153191489361702 0.46032543064146325 0.457114725684868
0.415531914893617 0.4601467372748908 0.4545957018017051
0.4157446808510638 0.45950025401889955 0.4538385198135228
0.41595744680851066 0.4587200781631655 0.4572485791841876
0.41617021276595745 0.45959361078627864 0.459490103839289
0.41638297872340424 0.45770730568561946 0.46262823644357587
0.4165957446808511 0.45605585564413703 0.46387098735651683
0.4168085106382979 0.45316676762556746 0.4673050252531723
0.41702127659574467 0.45295391563540177 0.46218775410495044
0.41723404255319146 0.45145068951138484 0.4588554710765657
0.4174468085106383 0.4506163062070961 0.4534319795986893
0.4176595744680851 0.4500802630460105 0.44864260043460324
0.4178723404255319 0.4505698641062259 0.44686204432348686
0.41808510638297874 0.44595664547415614 0.44510344245940514
0.41829787234042554 0.4450415241817294 0.4450878017996167
0.41851063829787233 0.4456707024763668 0.4414479550486377
0.4187234042553191 0.445179952443302 0.44301823091073783
0.41893617021276597 0.4448703151896145 0.4434701945622633
0.41914893617021276 0.4479835180949658 0.4424324602604795
0.41936170212765955 0.4483169736709812 0.4440085318448973
0.4195744680851064 0.4493648268620191 0.44295324822675636
0.4197872340425532 0.45158532632279386 0.44459831190724886
0.42 0.4499441236224026 0.4489148792818191
0.42021276595744683 0.4464239972276707 0.44615370824377815
0.4204255319148936 0.44811983726492366 0.44727221838767317
0.4206382978723404 0.44768713170511737 0.44713835891539444
0.4208510638297872 0.44936583267204316 0.446579453112031
0.42106382978723406 0.446835774603762 0.4455863314163494
0.42127659574468085 0.4460185637518319 0.4484408184527701
0.42148936170212764 0.44793699781542573 0.44894968246213973
0.4217021276595745 0.44479093292522454 0.44345066919832293
0.4219148936170213 0.4496636412991149 0.4465447252180867
0.4221276595744681 0.44935077631418 0.4475715490399968
0.42234042553191486 0.4510046628301062 0.44753457372086647
0.4225531914893617 0.45458863007431793 0.4500035145684399
0.4227659574468085 0.4533344987655093 0.4517219151647945
0.4229787234042553 0.45573981968538746 0.4566840994105097
0.42319148936170214 0.45500036170043245 0.45481191988275516
0.42340425531914894 0.456688575671746 0.45481191988275516
0.42361702127659573 0.45670473293387276 0.4584750138068148
0.4238297872340426 0.45543045798931053 0.4553496720780762
0.42404255319148937 0.45450631788691187 0.45707160101880373
0.42425531914893616 0.45568108333214963 0.454088642755548
0.42446808510638295 0.4538348803126526 0.4518515010019561
0.4246808510638298 0.45639570606023905 0.4509037616023448
0.4248936170212766 0.45462519135879614 0.4462269907509447
0.4251063829787234 0.45291227151500846 0.4441189153840852
0.42531914893617023 0.4519722202655079 0.441133365901319
0.425531914893617 0.4528578407425501 0.4413666875968269
0.4257446808510638 0.45248296411015604 0.4417355288390275
0.4259574468085106 0.45291834668022524 0.4406145931474302
0.42617021276595746 0.45184819479097454 0.4381696408095384
0.42638297872340425 0.45171032739009126 0.43561207604541596
0.42659574468085104 0.4490289637480559 0.4343205160059062
0.4268085106382979 0.44992672203224227 0.43319859507945924
0.4270212765957447 0.44992672203224227 0.4315576912069076
0.4272340425531915 0.44956972529570843 0.4290518943235541
0.4274468085106383 0.44657301517793774 0.42763962906191805
0.4276595744680851 0.44357788964918093 0.42696821695743686
0.4278723404255319 0.4446884997065917 0.42745481191988266
0.4280851063829787 0.4442750323622692 0.42668832010042246
0.42829787234042555 0.44406448461162684 0.4301167611715689
0.42851063829787234 0.4486939845605222 0.4340895305893068
0.42872340425531913 0.44813449432418256 0.4314438959163657
0.428936170212766 0.4497032584132044 0.43256347338943363
0.42914893617021277 0.448230992682986 0.43475442889880567
0.42936170212765956 0.4474655315985632 0.43722520762090866
0.42957446808510635 0.4474049681161226 0.43722520762090866
0.4297872340425532 0.4476846420735988 0.4399813626275657
0.43 0.4479726428920372 0.44689575377939506
0.4302127659574468 0.4508664165034642 0.44507886928060997
0.43042553191489363 0.45199904760012477 0.4472320961772889
0.4306382978723404 0.45391211849648266 0.45158537684697114
0.4308510638297872 0.45717167609823584 0.455068984485687
0.43106382978723407 0.4566480854261376 0.45102167519916775
0.43127659574468086 0.45706986657966725 0.4531617082992569
0.43148936170212765 0.45706687034052046 0.4524825438075676
0.43170212765957444 0.4590424649019963 0.45339844509180466
0.4319148936170213 0.4579946999604825 0.4546860891990454
0.4321276595744681 0.4619273247087552 0.4531382054364783
0.4323404255319149 0.4585392279552834 0.4536756424402085
0.4325531914893617 0.4534883457251272 0.45468581888623977
0.4327659574468085 0.4537714162301153 0.4520711934200595
0.4329787234042553 0.450964555060134 0.4528781052284798
0.4331914893617021 0.4537645378992303 0.4539052227260749
0.43340425531914895 0.45288544710922946 0.45489473898279326
0.43361702127659574 0.453715144810677 0.45738383208713607
0.43382978723404253 0.4560226504924352 0.4592015520462514
0.4340425531914894 0.45483504358732624 0.4603407695451463
0.43425531914893617 0.4538348803126526 0.46330299652985957
0.43446808510638296 0.4560104549716575 0.4624067409247763
0.4346808510638298 0.45596272972104973 0.4600446582696519
0.4348936170212766 0.45491711377568306 0.46318450044196713
0.4351063829787234 0.45481191988275516 0.45994342010691935
0.4353191489361702 0.45394186106217205 0.46230729419501765
0.43553191489361703 0.45648967891946873 0.4608583707056986
0.4357446808510638 0.4549581988039952 0.45977025719388825
0.4359574468085106 0.4541164743487666 0.46317434540321106
0.43617021276595747 0.452899020061438 0.46505024570938847
0.43638297872340426 0.4528784617958267 0.46722212285951564
0.43659574468085105 0.4536080262555813 0.47124714875584595
0.43680851063829784 0.45139163719614217 0.4753336160024337
0.4370212765957447 0.4497378796746288 0.48059263342064945
0.4372340425531915 0.45027390631892406 0.4868038113443731
0.4374468085106383 0.4509037616023448 0.48900830483634583
0.4376595744680851 0.4501750505792543 0.4868221717670741
0.4378723404255319 0.4487221353450512 0.4804155020106677
0.4380851063829787 0.4480673214455211 0.47116911643187553
