0 0.4782608695652173 0.45481191988275516
0.0004011040000477806 0.47728382999511476 0.4460185637518319
0.0006267300013860222 0.4753297508549097 0.4450415241817294
0.0008268189994851127 0.4733756717147044 0.4382022471910112
0.0010514440000406466 0.4733756717147044 0.4352711284807034
0.0012772179979947396 0.4684904738641915 0.4323400097703958
0.0014710290015500505 0.46946751343429405 0.4303859306301905
0.0016604150005150586 0.4665363947239862 0.4323400097703958
0.0018509850015107077 0.4684904738641915 0.4323400097703958
0.002040055998804746 0.4665363947239862 0.43429408891060084
0.0022315710011753254 0.4665363947239862 0.4401563263312165
0.0024204199980886187 0.46458231558378116 0.4352711284807034
0.0026083980010298546 0.46262823644357587 0.4401563263312165
0.002796134998789057 0.4636052760136786 0.4450415241817294
0.0029837609981768765 0.46165119687347334 0.44894968246213973
0.0031717019992356654 0.45969711773326827 0.4557889594528579
0.003359346999786794 0.4606741573033708 0.46165119687347334
0.003548935997969238 0.45481191988275516 0.46165119687347334
0.003735766000318108 0.45481191988275516 0.46165119687347334
0.003921873998478986 0.4538348803126526 0.46165119687347334
0.004107778000616236 0.4528578407425501 0.45969711773326827
0.004297552000934957 0.4528578407425501 0.4587200781631655
0.004528900000877911 0.45676599902296044 0.45969711773326827
0.0047165260002657305 0.4509037616023448 0.4606741573033708
0.004903578999801539 0.46165119687347334 0.45481191988275516
0.005090094000479439 0.4557889594528579 0.46165119687347334
0.0052769979993172456 0.4557889594528579 0.45676599902296044
0.005462402001285227 0.4528578407425501 0.457743038593063
0.005648286998621188 0.457743038593063 0.45481191988275516
0.005834247000166215 0.45188080117244755 0.45481191988275516
0.006020632998115616 0.4509037616023448 0.44992672203224227
0.006207647998962784 0.4509037616023448 0.44992672203224227
0.00639392199809663 0.4460185637518319 0.4450415241817294
0.00658327099881717 0.44699560332193444 0.4479726428920372
0.00676900799953728 0.44211040547142155 0.4460185637518319
0.006955264001589967 0.44211040547142155 0.441133365901319
0.007141390000469983 0.43429408891060084 0.4479726428920372
0.007327219998842338 0.43722520762090866 0.4382022471910112
0.007513606000429718 0.43722520762090866 0.4323400097703958
0.007722898000793066 0.43429408891060084 0.4303859306301905
0.007909395000751829 0.43624816805080613 0.42159257449926724
0.008103446998575237 0.4323400097703958 0.4255007327796776
0.008292072998301592 0.43722520762090866 0.4206155349291647
0.008491884000250138 0.4333170493404983 0.42745481191988266
0.008678936999785947 0.43624816805080613 0.431362970200293
0.008865284999046708 0.43624816805080613 0.431362970200293
0.009051707998878555 0.4333170493404983 0.4352711284807034
0.009246000001439825 0.43429408891060084 0.4333170493404983
0.009439274999749614 0.43624816805080613 0.4352711284807034
0.00962601200080826 0.4333170493404983 0.43722520762090866
0.00981193500047084 0.43429408891060084 0.441133365901319
0.009998024001106387 0.43624816805080613 0.44211040547142155
0.010184446000494063 0.43624816805080613 0.4460185637518319
0.010371609998401254 0.4352711284807034 0.45188080117244755
0.010557884001173079 0.431362970200293 0.45676599902296044
0.010743695998826297 0.431362970200293 0.4606741573033708
0.010930191998340888 0.42745481191988266 0.45969711773326827
0.011121299998194445 0.42452369320957506 0.46262823644357587
0.011309888999676332 0.4206155349291647 0.46458231558378116
0.01149629299834487 0.4176844162188569 0.4655593551538837
0.011683197000820655 0.4206155349291647 0.4636052760136786
0.01186919400061015 0.42159257449926724 0.46262823644357587
0.012054523998813238 0.4206155349291647 0.4587200781631655
0.012240168998687295 0.42256961406936977 0.4606741573033708
0.012441368999134284 0.4235466536394723 0.457743038593063
0.012630846998945344 0.42940889106008795 0.4557889594528579
0.012817825001548044 0.431362970200293 0.4557889594528579
0.013004210999497445 0.4352711284807034 0.4538348803126526
0.013189689001592342 0.4333170493404983 0.44894968246213973
0.013375425998674473 0.4352711284807034 0.4509037616023448
0.013561088999267668 0.4352711284807034 0.44992672203224227
0.013747679000516655 0.4382022471910112 0.4460185637518319
0.013935267998022027 0.44211040547142155 0.4479726428920372
0.014121320000413107 0.4450415241817294 0.4430874450415241
0.014308019999589305 0.44894968246213973 0.44894968246213973
0.014496257997961948 0.45481191988275516 0.4430874450415241
0.014682216999062803 0.4538348803126526 0.44699560332193444
0.014869861999613931 0.4636052760136786 0.44894968246213973
0.015055765998113202 0.45676599902296044 0.4528578407425501
0.015241206998325652 0.45676599902296044 0.44992672203224227
0.015427185000589816 0.457743038593063 0.4538348803126526
0.015612627001246437 0.45481191988275516 0.4538348803126526
0.0157989750005072 0.4557889594528579 0.4557889594528579
0.015984842000762 0.46165119687347334 0.4460185637518319
0.016170857001270633 0.4655593551538837 0.441133365901319
0.016358020999177825 0.47142159257449934 0.43917928676111373
0.016545313999813516 0.47923790913532005 0.4352711284807034
0.01673127300091437 0.4782608695652173 0.431362970200293
0.016917602999455994 0.4802149487054226 0.43429408891060084
0.017103191999922274 0.4802149487054226 0.4323400097703958
0.01728961499975412 0.4811919882755251 0.43429408891060084
0.017479537000326673 0.48216902784562765 0.4352711284807034
0.017667960000835592 0.47923790913532005 0.4382022471910112
0.01785641999958898 0.4782608695652173 0.4430874450415241
0.018044083000859246 0.47923790913532005 0.4479726428920372
0.01822989399806829 0.4802149487054226 0.44992672203224227
0.018415724000078626 0.47923790913532005 0.45481191988275516
0.01860173900058726 0.47728382999511476 0.46262823644357587
0.0187879580007575 0.4782608695652173 0.4665363947239862
0.0189741590002086 0.48216902784562765 0.4802149487054226
0.019160822001140332 0.4802149487054226 0.4763067904250122
0.019346819000929827 0.47923790913532005 0.4782608695652173
0.019533407998096664 0.4782608695652173 0.4811919882755251
0.01971970099839382 0.46946751343429405 0.486077186126038
0.019905809000192676 0.4636052760136786 0.48705422569614076
0.02009212000120897 0.46165119687347334 0.4880312652662433
0.020278543001040816 0.4538348803126526 0.4851001465559355
0.020470280000154162 0.44992672203224227 0.48216902784562765
0.020656777000112925 0.44894968246213973 0.4753297508549097
0.020843162001256132 0.44699560332193444 0.47142159257449934
0.021039159000793006 0.4401563263312165 0.46946751343429405
0.021225507000053767 0.4352711284807034 0.45969711773326827
0.021411280999018345 0.4333170493404983 0.4557889594528579
0.02159742599906167 0.42940889106008795 0.4509037616023448
0.021783570999104995 0.4264777723497801 0.4450415241817294
0.021970085999782896 0.4264777723497801 0.4450415241817294
0.022156841998366872 0.4284318514899854 0.441133365901319
0.02234337600020808 0.43429408891060084 0.43917928676111373
0.022529817000759067 0.43429408891060084 0.43722520762090866
0.022716220999427605 0.43429408891060084 0.43624816805080613
0.022902310000063153 0.43722520762090866 0.4382022471910112
0.023089287999027874 0.4352711284807034 0.44211040547142155
0.023275174000445986 0.4352711284807034 0.4450415241817294
0.023461559001589194 0.43624816805080613 0.457743038593063
0.0236471120006172 0.4401563263312165 0.45676599902296044
0.023832792998291552 0.43917928676111373 0.45969711773326827
0.024018975000217324 0.441133365901319 0.4606741573033708
0.024205378998885863 0.44211040547142155 0.4636052760136786
0.024408708999544615 0.44699560332193444 0.46165119687347334
0.024595427999884123 0.4460185637518319 0.45969711773326827
0.02478292500018142 0.4460185637518319 0.45676599902296044
0.024969402998976875 0.4479726428920372 0.45188080117244755
0.02517610300128581 0.44992672203224227 0.4460185637518319
0.025376155001140432 0.44894968246213973 0.441133365901319
0.025562947997968877 0.4479726428920372 0.43429408891060084
0.02574924000145984 0.44699560332193444 0.4352711284807034
0.025935255998774664 0.44406448461162684 0.42940889106008795
0.026121456001419574 0.4382022471910112 0.4333170493404983
0.026307711999834282 0.4352711284807034 0.43429408891060084
0.02649363399905269 0.4333170493404983 0.4382022471910112
0.026679612998123048 0.4323400097703958 0.43917928676111373
0.026866017000429565 0.431362970200293 0.4382022471910112
0.02705295800114982 0.4323400097703958 0.441133365901319
0.027239398998062825 0.43624816805080613 0.43917928676111373
0.027426229000411695 0.43722520762090866 0.441133365901319
0.027612096000666497 0.441133365901319 0.44406448461162684
0.027798221999546513 0.44699560332193444 0.44211040547142155
0.02798479299963219 0.45188080117244755 0.44211040547142155
0.028170752000733046 0.4538348803126526 0.4430874450415241
0.02836299000045983 0.4606741573033708 0.4479726428920372
0.028555542001413414 0.46458231558378116 0.44406448461162684
0.028746130999934394 0.467513434294089 0.441133365901319
0.028937312999914866 0.47239863214460187 0.4401563263312165
0.029135364999092417 0.47435271128480694 0.4333170493404983
0.029332527999940794 0.4753297508549097 0.4333170493404983
0.02952426499905414 0.4753297508549097 0.43624816805080613
0.029715372998907696 0.4753297508549097 0.43722520762090866
0.029905332001362694 0.47239863214460187 0.43722520762090866
0.03009507000024314 0.47142159257449934 0.4430874450415241
0.030285102999187075 0.4665363947239862 0.4450415241817294
0.030475192001176765 0.4665363947239862 0.4509037616023448
0.030665244998090202 0.4587200781631655 0.45969711773326827
0.03085488899887423 0.457743038593063 0.457743038593063
0.03104455300126574 0.4528578407425501 0.4587200781631655
0.03123432700158446 0.4538348803126526 0.46262823644357587
0.031423748998349765 0.44894968246213973 0.46262823644357587
0.031613393999577966 0.4528578407425501 0.4655593551538837
0.03180342799896607 0.4460185637518319 0.457743038593063
0.031993165001040325 0.44992672203224227 0.45969711773326827
0.032182643000851385 0.4479726428920372 0.45676599902296044
0.032376972998463316 0.4460185637518319 0.45481191988275516
0.03256730299835908 0.4460185637518319 0.4528578407425501
0.032757206998212496 0.44894968246213973 0.45188080117244755
0.03294768499836209 0.4509037616023448 0.4528578407425501
0.033149940998555394 0.45188080117244755 0.45481191988275516
0.0333462700000382 0.44992672203224227 0.45188080117244755
0.033536988998093875 0.44894968246213973 0.4509037616023448
0.03373507799915387 0.4460185637518319 0.45188080117244755
0.033936871001060354 0.4479726428920372 0.44699560332193444
0.03413838599954033 0.44894968246213973 0.44406448461162684
0.03434177099916269 0.4479726428920372 0.44406448461162684
0.034542841000074986 0.44894968246213973 0.43917928676111373
0.03474631900098757 0.4509037616023448 0.44211040547142155
0.03494814900113852 0.4538348803126526 0.43722520762090866
0.03516146000038134 0.4538348803126526 0.4382022471910112
0.035401214998273645 0.45188080117244755 0.441133365901319
0.035651766000228235 0.4528578407425501 0.4460185637518319
0.035883464999642456 0.45188080117244755 0.4509037616023448
0.03608253600032185 0.44699560332193444 0.44992672203224227
0.036280699001508765 0.44699560332193444 0.4528578407425501
0.03648045500085573 0.4450415241817294 0.45188080117244755
0.036680081000668 0.44699560332193444 0.44992672203224227
0.03687729900047998 0.44406448461162684 0.4460185637518319
0.03706879599849344 0.441133365901319 0.44211040547142155
0.03726179300065269 0.44699560332193444 0.4352711284807034
0.037458769998920616 0.441133365901319 0.431362970200293
0.03765895199830993 0.4450415241817294 0.4303859306301905
0.03786057799879927 0.4450415241817294 0.4284318514899854
0.03805849999844213 0.4460185637518319 0.43429408891060084
0.038254904000496026 0.44699560332193444 0.43429408891060084
0.03844695600128034 0.44699560332193444 0.43722520762090866
0.03864548999990802 0.44894968246213973 0.44699560332193444
0.03884315300092567 0.44894968246213973 0.457743038593063
0.03904070499993395 0.4460185637518319 0.46262823644357587
0.03924014600124792 0.4509037616023448 0.4684904738641915
0.03945756800021627 0.45188080117244755 0.4704445530043966
0.039684711999143474 0.4557889594528579 0.47435271128480694
0.039926670000568265 0.457743038593063 0.46946751343429405
0.04015227800118737 0.457743038593063 0.4684904738641915
0.04036057000121218 0.4606741573033708 0.4665363947239862
0.04055821500151069 0.46165119687347334 0.46458231558378116
0.04075578500123811 0.46262823644357587 0.46458231558378116
0.04095926299851271 0.4606741573033708 0.46458231558378116
0.0411561110013281 0.45969711773326827 0.467513434294089
0.04134812600022997 0.45481191988275516 0.46946751343429405
0.04153910400054883 0.4509037616023448 0.467513434294089
0.04173287899902789 0.44992672203224227 0.46946751343429405
0.041943281998101156 0.45188080117244755 0.4704445530043966
0.04216437099967152 0.44894968246213973 0.46946751343429405
0.04237149699838483 0.4538348803126526 0.47142159257449934
0.04259954799999832 0.45188080117244755 0.4665363947239862
0.0428020449980977 0.45676599902296044 0.467513434294089
0.04300128199975006 0.4557889594528579 0.46946751343429405
0.043230167000729125 0.45481191988275516 0.46262823644357587
0.04352019799989648 0.4557889594528579 0.457743038593063
0.04378108300079475 0.45676599902296044 0.4557889594528579
0.04400150500077871 0.46165119687347334 0.44992672203224227
0.044205668000358855 0.4636052760136786 0.44992672203224227
0.044431162998080254 0.4684904738641915 0.4479726428920372
0.04466243700153427 0.47142159257449934 0.4479726428920372
0.04486991500016302 0.467513434294089 0.45676599902296044
0.04506839299938292 0.46946751343429405 0.4538348803126526
0.04526394500135211 0.46946751343429405 0.46165119687347334
0.045488940999348415 0.46458231558378116 0.4684904738641915
0.045705232998443535 0.4636052760136786 0.4733756717147044
0.04590658099914435 0.46165119687347334 0.4733756717147044
0.04610796699853381 0.46262823644357587 0.4704445530043966
0.046308926001074724 0.4636052760136786 0.4684904738641915
0.04653070000131265 0.4636052760136786 0.46165119687347334
0.04673019600159023 0.46458231558378116 0.4557889594528579
0.046929914999054745 0.46165119687347334 0.4460185637518319
0.04715935499916668 0.46165119687347334 0.4450415241817294
0.04736368500016397 0.4538348803126526 0.44211040547142155
0.04756466300023021 0.45188080117244755 0.4479726428920372
0.04776599199976772 0.44894968246213973 0.43917928676111373
0.04796613700091257 0.44406448461162684 0.43429408891060084
0.04816568900059792 0.43722520762090866 0.431362970200293
0.0483695369985071 0.43429408891060084 0.42745481191988266
0.04856849600037094 0.4333170493404983 0.42159257449926724
0.04876454799887142 0.4401563263312165 0.4255007327796776
0.04898234099891852 0.43624816805080613 0.4333170493404983
0.04921061500135693 0.431362970200293 0.4401563263312165
0.04943307299981825 0.4352711284807034 0.44406448461162684
0.04967171699900064 0.43722520762090866 0.44699560332193444
0.04989097300131107 0.43722520762090866 0.4460185637518319
0.050096246999601135 0.43722520762090866 0.4479726428920372
0.05029250200095703 0.4382022471910112 0.44406448461162684
0.05049307299850625 0.43722520762090866 0.44211040547142155
0.05071903199859662 0.4430874450415241 0.4401563263312165
0.05094826799904695 0.4479726428920372 0.441133365901319
0.05116578299930552 0.44699560332193444 0.4450415241817294
0.051391205000982154 0.4538348803126526 0.44211040547142155
0.05159421999996994 0.44992672203224227 0.44406448461162684
0.05180862300039735 0.45481191988275516 0.45188080117244755
0.05202191599892103 0.4538348803126526 0.45188080117244755
0.05221513500146102 0.4509037616023448 0.457743038593063
0.05243661200074712 0.45481191988275516 0.4606741573033708
0.052628330999141326 0.4528578407425501 0.457743038593063
0.052820789998804685 0.4557889594528579 0.4557889594528579
0.05301567599963164 0.4557889594528579 0.4557889594528579
0.053217524000501726 0.4557889594528579 0.457743038593063
0.05341598299855832 0.45188080117244755 0.457743038593063
0.053613201998814475 0.4509037616023448 0.457743038593063
0.05381616099839448 0.44992672203224227 0.45676599902296044
0.054026286998123396 0.4460185637518319 0.46165119687347334
0.054249486998742213 0.4450415241817294 0.4606741573033708
0.05448268599866424 0.44406448461162684 0.46458231558378116
0.05471760799991898 0.44211040547142155 0.46262823644357587
0.054945695999776945 0.44406448461162684 0.46165119687347334
0.05517500700079836 0.44406448461162684 0.4636052760136786
0.055412132998753805 0.44211040547142155 0.46262823644357587
0.0556275730014022 0.44211040547142155 0.45969711773326827
0.05583677300091949 0.441133365901319 0.4557889594528579
0.05604191699967487 0.44406448461162684 0.4528578407425501
0.05625522799891769 0.44211040547142155 0.44992672203224227
0.05648505800127168 0.441133365901319 0.4460185637518319
0.05671481299941661 0.4450415241817294 0.44699560332193444
0.056957957000122406 0.44406448461162684 0.43722520762090866
0.05726880300062476 0.4460185637518319 0.43429408891060084
0.057515686999977333 0.44699560332193444 0.431362970200293
0.05777260900140391 0.4450415241817294 0.43722520762090866
0.05804952999824309 0.4450415241817294 0.431362970200293
0.05827728499934892 0.44894968246213973 0.42940889106008795
0.058514724998531165 0.44211040547142155 0.4323400097703958
0.058733499001391465 0.4450415241817294 0.4303859306301905
0.058931995001330506 0.43917928676111373 0.42940889106008795
0.05913465800040285 0.4460185637518319 0.431362970200293
0.059331709999241866 0.44699560332193444 0.43429408891060084
0.05954111399842077 0.4460185637518319 0.4352711284807034
0.05974212900036946 0.44894968246213973 0.43917928676111373
0.059945994998997776 0.4479726428920372 0.44699560332193444
0.060157176998473005 0.44894968246213973 0.44894968246213973
0.06043541300095967 0.4460185637518319 0.4606741573033708
0.06065172300077393 0.4479726428920372 0.4606741573033708
0.06087990499872831 0.4460185637518319 0.4665363947239862
0.06110140099917771 0.4509037616023448 0.47239863214460187
0.061327136998443166 0.44992672203224227 0.47728382999511476
0.06156842899872572 0.4509037616023448 0.48216902784562765
0.06183214699922246 0.4606741573033708 0.4880312652662433
0.062121234001097037 0.4606741573033708 0.4733756717147044
0.06318371499946807 0.4636052760136786 0.46262823644357587
0.06350546799876611 0.467513434294089 0.45969711773326827
0.06374279699957697 0.467513434294089 0.45676599902296044
0.06395844199869316 0.46946751343429405 0.457743038593063
0.06416230800095946 0.467513434294089 0.4587200781631655
0.06438319299923023 0.46165119687347334 0.4538348803126526
0.06460792999860132 0.46165119687347334 0.45188080117244755
0.06482594499902916 0.457743038593063 0.4479726428920372
0.0650299039989477 0.45676599902296044 0.441133365901319
0.0653143249983259 0.4538348803126526 0.4382022471910112
0.06552721000116435 0.44992672203224227 0.4401563263312165
0.06573924300028011 0.44699560332193444 0.43917928676111373
0.06593696200070553 0.4460185637518319 0.441133365901319
0.06614332800018019 0.4460185637518319 0.43917928676111373
0.06634686200050055 0.44699560332193444 0.43917928676111373
0.06655596899872762 0.45188080117244755 0.43429408891060084
0.06676609499845654 0.4528578407425501 0.43429408891060084
0.06699229399964679 0.4528578407425501 0.4303859306301905
0.06723784600035287 0.4587200781631655 0.42452369320957506
0.06746291599847609 0.45676599902296044 0.41670737664875435
0.06768180099970778 0.4636052760136786 0.4079140205178309
0.06791824099855148 0.4606741573033708 0.3981436248168051
0.06817186599801062 0.45481191988275516 0.3961895456765998
0.06854343300074106 0.4479726428920372 0.4049829018075233
0.06886777899853769 0.441133365901319 0.40986809965803617
0.06909699699826888 0.4352711284807034 0.4206155349291647
0.06932808599958662 0.431362970200293 0.4264777723497801
0.06956408200130682 0.4264777723497801 0.4401563263312165
0.0697901150015241 0.42452369320957506 0.4460185637518319
0.07000761100061936 0.42452369320957506 0.44992672203224227
0.07024506900052074 0.42452369320957506 0.45481191988275516
0.0704761579982005 0.42452369320957506 0.45676599902296044
0.07069050599966431 0.4235466536394723 0.457743038593063
0.07092885300153284 0.4255007327796776 0.45481191988275516
0.07115658999828156 0.4284318514899854 0.4509037616023448
0.07139369699871168 0.4333170493404983 0.44406448461162684
0.07159348899949691 0.4303859306301905 0.4430874450415241
0.07178285600093659 0.43429408891060084 0.44894968246213973
0.07197001999884378 0.43722520762090866 0.44406448461162684
0.07215683100002934 0.4401563263312165 0.44211040547142155
0.0723641789991234 0.4460185637518319 0.4450415241817294
0.07255484299821546 0.44894968246213973 0.44211040547142155
0.07274785800109385 0.45481191988275516 0.4460185637518319
0.07293746499999543 0.4538348803126526 0.4430874450415241
0.0731243509981141 0.4528578407425501 0.4450415241817294
0.07331084700126667 0.4509037616023448 0.4450415241817294
0.07351073300014832 0.45188080117244755 0.4479726428920372
0.07371145100114518 0.45188080117244755 0.4479726428920372
0.07391802200072561 0.44894968246213973 0.4479726428920372
0.0741183700010879 0.4509037616023448 0.4401563263312165
0.07438330999866594 0.4528578407425501 0.44211040547142155
0.0745777320007619 0.4557889594528579 0.4401563263312165
0.07477156199820456 0.45969711773326827 0.4401563263312165
0.07497572500142269 0.45969711773326827 0.43917928676111373
0.07517423999888706 0.4587200781631655 0.4450415241817294
0.07540823599993018 0.45481191988275516 0.4509037616023448
0.0756080840001232 0.44992672203224227 0.4538348803126526
0.07579817299847491 0.4460185637518319 0.46165119687347334
0.07599244700031704 0.44211040547142155 0.4704445530043966
0.07618672199896537 0.44211040547142155 0.4753297508549097
0.07638984799996251 0.4401563263312165 0.486077186126038
0.07659943600083352 0.44406448461162684 0.4948705422569615
0.07688909799981047 0.44211040547142155 0.5026868588177822
0.07713564900041092 0.4430874450415241 0.5095261358085001
0.07737886700124363 0.44699560332193444 0.5163654127992183
0.07761699199909344 0.4479726428920372 0.5144113336590133
0.07784698799878242 0.4460185637518319 0.5202735710796287
0.0780637249990832 0.44699560332193444 0.5134342940889105
0.07834486800129525 0.4538348803126526 0.5026868588177822
0.07860938199883094 0.45676599902296044 0.48705422569614076
0.07885735899981228 0.4655593551538837 0.47239863214460187
0.07908266999947955 0.47435271128480694 0.457743038593063
0.07930807299999287 0.4782608695652173 0.44894968246213973
0.07952903199839056 0.4831460674157304 0.4323400097703958
0.07977871299954131 0.48900830483634583 0.42452369320957506
0.08001892999891425 0.49193942354665365 0.42159257449926724
0.08025314800033811 0.49193942354665365 0.4186614557889594
0.0809113770010299 0.486077186126038 0.41963849535906195
0.08136746200034395 0.4831460674157304 0.42159257449926724
0.08158160599850817 0.4802149487054226 0.4235466536394723
0.08179112099969643 0.47435271128480694 0.4333170493404983
0.08199961699938285 0.47142159257449934 0.4352711284807034
0.08220379900012631 0.467513434294089 0.4382022471910112
0.08240698000008706 0.46262823644357587 0.4450415241817294
0.08261397599926568 0.45969711773326827 0.44992672203224227
0.08282191699981922 0.45676599902296044 0.4528578407425501
0.08302056200045627 0.4538348803126526 0.46165119687347334
0.0832185399995069 0.45188080117244755 0.467513434294089
0.08341738799936138 0.44992672203224227 0.4704445530043966
0.08361553199938498 0.4460185637518319 0.47728382999511476
0.08381436199852033 0.4450415241817294 0.4782608695652173
0.08401604399841744 0.44992672203224227 0.4782608695652173
0.08422129899918218 0.44894968246213973 0.4782608695652173
0.08452329400097369 0.44699560332193444 0.4763067904250122
0.08475349299988011 0.4430874450415241 0.4763067904250122
0.08500932199967792 0.44406448461162684 0.47239863214460187
0.08520637399851694 0.4430874450415241 0.4763067904250122
0.08540190799976699 0.4430874450415241 0.467513434294089
0.08559749699998065 0.43917928676111373 0.467513434294089
0.08579047500097658 0.43722520762090866 0.4636052760136786
0.08598002700091456 0.43624816805080613 0.46262823644357587
0.08617046799918171 0.4333170493404983 0.467513434294089
0.0863643900011084 0.43429408891060084 0.4684904738641915
0.08656570099992678 0.42940889106008795 0.47142159257449934
0.08676960500088171 0.4255007327796776 0.47142159257449934
0.08697215700158267 0.4264777723497801 0.4704445530043966
0.0871805239985406 0.4255007327796776 0.4704445530043966
0.08737337200000184 0.42256961406936977 0.4665363947239862
0.087571313000808 0.42452369320957506 0.4606741573033708
0.08777269799975329 0.4206155349291647 0.4538348803126526
0.08797904599850881 0.4303859306301905 0.44699560332193444
0.08817319100126042 0.4235466536394723 0.4401563263312165
0.08839553899815655 0.42159257449926724 0.43429408891060084
0.08860336900033872 0.41963849535906195 0.4323400097703958
0.08880314300040482 0.42452369320957506 0.4284318514899854
0.08899978699992062 0.4206155349291647 0.42745481191988266
0.08921259799899417 0.4186614557889594 0.4255007327796776
0.08942453900090186 0.41670737664875435 0.42745481191988266
0.08970460799901048 0.4206155349291647 0.4235466536394723
0.08996882499923231 0.4206155349291647 0.42159257449926724
0.09016661799978465 0.41963849535906195 0.4235466536394723
0.09039137299987487 0.4235466536394723 0.4284318514899854
0.09059459199852427 0.4206155349291647 0.431362970200293
0.09079542199833668 0.42256961406936977 0.4382022471910112
0.09100136200140696 0.4284318514899854 0.43722520762090866
0.09120024799995008 0.431362970200293 0.43917928676111373
0.09140300299986848 0.4352711284807034 0.4401563263312165
0.09161433299959754 0.4352711284807034 0.4460185637518319
0.09181877399896621 0.4430874450415241 0.4479726428920372
0.09205675100020017 0.43722520762090866 0.4479726428920372
0.09226761700119823 0.4401563263312165 0.44894968246213973
0.09249570600150037 0.43917928676111373 0.44699560332193444
0.09273635000135982 0.4382022471910112 0.4479726428920372
0.09300419699866325 0.4606741573033708 0.4753297508549097
0.09697271799814189 0.457743038593063 0.48412310698583294
0.09740826599954744 0.457743038593063 0.4811919882755251
0.09771942699808278 0.45676599902296044 0.47142159257449934
0.09800218099917402 0.46262823644357587 0.46458231558378116
0.09826356499979738 0.46165119687347334 0.45676599902296044
0.09886668399849441 0.47239863214460187 0.44406448461162684
0.10128897400136339 0.4636052760136786 0.41475329750854906
0.10211718099890277 0.4763067904250122 0.4040058622374205
0.10241563800082076 0.47923790913532005 0.4059599413776258
0.10263222700086772 0.47728382999511476 0.40693698094772834
0.10283613099818467 0.4929164631167562 0.40693698094772834
0.10303342399856774 0.48216902784562765 0.41182217879824123
0.10323654999956489 0.4811919882755251 0.41963849535906195
0.10345749000043725 0.4851001465559355 0.4284318514899854
0.10366257900022902 0.48216902784562765 0.4352711284807034
0.10387103799803299 0.4782608695652173 0.441133365901319
0.10406988600152545 0.47239863214460187 0.4509037616023448
0.10427625300144427 0.47239863214460187 0.45969711773326827
0.10451815600026748 0.4684904738641915 0.4684904738641915
0.10471952299849363 0.4655593551538837 0.47239863214460187
0.10491194499991252 0.46165119687347334 0.4782608695652173
0.10510433099989314 0.4606741573033708 0.4831460674157304
0.10530404900055146 0.45481191988275516 0.4782608695652173
0.10549223099951632 0.45188080117244755 0.486077186126038
0.10569046800083015 0.44992672203224227 0.4782608695652173
0.10587720599869499 0.44894968246213973 0.47435271128480694
0.10606307299894979 0.4450415241817294 0.4763067904250122
0.10624882900083321 0.4430874450415241 0.4733756717147044
0.10643504800100345 0.4352711284807034 0.4763067904250122
0.10665056200014078 0.43624816805080613 0.4782608695652173
0.10683661399889388 0.431362970200293 0.4811919882755251
0.10702207400026964 0.4284318514899854 0.4811919882755251
0.10723734799830709 0.42452369320957506 0.4763067904250122
0.10742758500055061 0.42159257449926724 0.4753297508549097
0.10761421200004406 0.4176844162188569 0.4753297508549097
0.10780039300152566 0.4206155349291647 0.4704445530043966
0.10798574200089206 0.42256961406936977 0.4655593551538837
0.10817125700123142 0.4206155349291647 0.4636052760136786
0.10835758699977305 0.42159257449926724 0.45969711773326827
0.10854523200032418 0.4176844162188569 0.457743038593063
0.10873122900011367 0.4206155349291647 0.45481191988275516
0.10891679899941664 0.42159257449926724 0.4528578407425501
0.10910153700024239 0.4186614557889594 0.45188080117244755
0.10928749600134324 0.4176844162188569 0.44699560332193444
0.10947427100109053 0.4206155349291647 0.4450415241817294
0.10965967499942053 0.4235466536394723 0.44211040547142155
0.10984496799937915 0.4284318514899854 0.4401563263312165
0.11003161299959174 0.42940889106008795 0.43917928676111373
0.11021833099948708 0.43429408891060084 0.4352711284807034
0.11041579100128729 0.4401563263312165 0.4333170493404983
0.11060141699999804 0.43917928676111373 0.4323400097703958
0.11078821000046446 0.441133365901319 0.43429408891060084
0.11097326199887902 0.4401563263312165 0.43429408891060084
0.11115798099854146 0.43722520762090866 0.43429408891060084
0.11134373700042488 0.43722520762090866 0.4333170493404983
0.1115290300003835 0.44406448461162684 0.4323400097703958
0.11174252599812462 0.43624816805080613 0.4323400097703958
0.11193117099901428 0.43722520762090866 0.4264777723497801
0.11211742700106697 0.4352711284807034 0.42256961406936977
0.1123025900014909 0.4333170493404983 0.41963849535906195
0.11255021499891882 0.4401563263312165 0.4176844162188569
0.11273565599913127 0.4382022471910112 0.41963849535906195
0.11292174600021099 0.4382022471910112 0.42159257449926724
0.11310750199845643 0.4382022471910112 0.42256961406936977
0.11329329499858432 0.4401563263312165 0.42256961406936977
0.11347930999909295 0.44211040547142155 0.42452369320957506
0.11366530599843827 0.4430874450415241 0.42452369320957506
0.11386254399985773 0.4460185637518319 0.44406448461162684
0.11494043199854787 0.45188080117244755 0.4528578407425501
0.11517848299990874 0.4557889594528579 0.4528578407425501
0.11537927600147668 0.4557889594528579 0.457743038593063
0.11562917799892602 0.457743038593063 0.45676599902296044
0.11582956399797695 0.45481191988275516 0.4557889594528579
0.11602983799821232 0.4528578407425501 0.4528578407425501
0.1162439079998876 0.45969711773326827 0.4460185637518319
0.11648595899896463 0.4557889594528579 0.43917928676111373
0.11671821400159388 0.4587200781631655 0.43917928676111373
0.11695296900143148 0.45969711773326827 0.4323400097703958
0.11718735400063451 0.4606741573033708 0.43429408891060084
0.11741609100135975 0.4636052760136786 0.43429408891060084
0.11771890000090934 0.46165119687347334 0.44992672203224227
0.1179877469985513 0.45969711773326827 0.45188080117244755
0.11824364999847603 0.45969711773326827 0.4606741573033708
0.11856766300115851 0.4587200781631655 0.4655593551538837
0.1189596000003803 0.44992672203224227 0.47142159257449934
0.11936424099985743 0.4509037616023448 0.4782608695652173
0.11964936499862233 0.4538348803126526 0.47923790913532005
0.11991800900068483 0.4557889594528579 0.48412310698583294
0.12016726300134906 0.45676599902296044 0.48705422569614076
0.12037759300073958 0.457743038593063 0.48216902784562765
0.12056884900084697 0.4557889594528579 0.48412310698583294
0.12075471600110177 0.457743038593063 0.4831460674157304
0.12094032399909338 0.457743038593063 0.4851001465559355
0.12112576499930583 0.457743038593063 0.48705422569614076
0.12131118699835497 0.46165119687347334 0.4811919882755251
0.12149731400131714 0.45969711773326827 0.4851001465559355
0.12168323600053554 0.467513434294089 0.47728382999511476
0.12186904799818876 0.46458231558378116 0.4665363947239862
0.12205511800129898 0.4655593551538837 0.4636052760136786
0.12224065199916367 0.467513434294089 0.457743038593063
0.12242538899954525 0.46946751343429405 0.45481191988275516
0.12261049700100557 0.47142159257449934 0.45188080117244755
0.1227954009991663 0.4684904738641915 0.4479726428920372
0.12298091599950567 0.47435271128480694 0.44699560332193444
0.123166746001516 0.4763067904250122 0.4479726428920372
0.12335272500058636 0.4763067904250122 0.4460185637518319
0.12353825799800688 0.4802149487054226 0.44699560332193444
0.12372303300071508 0.47923790913532005 0.4538348803126526
0.12390782600050443 0.47923790913532005 0.44406448461162684
0.1240922299984959 0.4782608695652173 0.4430874450415241
0.12427746699904674 0.48412310698583294 0.4382022471910112
0.12446553799964022 0.4763067904250122 0.4430874450415241
0.12465164600143908 0.4811919882755251 0.44406448461162684
0.12486538300072425 0.4802149487054226 0.4430874450415241
0.12505847200009157 0.4802149487054226 0.4401563263312165
0.12622556199858082 0.4704445530043966 0.4303859306301905
0.12676010799987125 0.46165119687347334 0.4284318514899854
0.12701986200045212 0.4606741573033708 0.4284318514899854
0.12722745100109023 0.46458231558378116 0.4264777723497801
0.12742068800071138 0.4557889594528579 0.42745481191988266
0.12763022199942498 0.45188080117244755 0.4333170493404983
0.12786812500053202 0.4528578407425501 0.43624816805080613
0.1281016950015328 0.44699560332193444 0.44211040547142155
0.12843170699852635 0.44699560332193444 0.44992672203224227
0.1287290350010153 0.4352711284807034 0.4538348803126526
0.12896975300100166 0.4284318514899854 0.4538348803126526
0.1292096010001842 0.4255007327796776 0.4557889594528579
0.1294203559991729 0.4186614557889594 0.457743038593063
0.1296200750002754 0.40889106008793363 0.4528578407425501
0.12981136799862725 0.4049829018075233 0.457743038593063
0.13000393800029997 0.4010747435271129 0.4557889594528579
0.1301899530008086 0.4059599413776258 0.45481191988275516
0.13038370899812435 0.4059599413776258 0.457743038593063
0.13056905800112872 0.4059599413776258 0.457743038593063
0.13075994300015736 0.403028822667318 0.45969711773326827
0.13121908299945062 0.412799218368344 0.4655593551538837
0.13151663299868233 0.41670737664875435 0.4636052760136786
0.1317219259981357 0.42159257449926724 0.4587200781631655
0.1319531810004264 0.4137762579384465 0.4636052760136786
0.13217632499799947 0.412799218368344 0.467513434294089
0.13278640700082178 0.41670737664875435 0.4704445530043966
0.1331574370015005 0.4235466536394723 0.47923790913532005
0.13347185699967667 0.4333170493404983 0.4763067904250122
0.13381692500115605 0.44699560332193444 0.4763067904250122
0.13411038299818756 0.45188080117244755 0.48412310698583294
0.1344000809986028 0.4587200781631655 0.4802149487054226
0.1349565159980557 0.457743038593063 0.47142159257449934
0.1354654880015005 0.4606741573033708 0.4655593551538837
0.13575339000090025 0.47239863214460187 0.4636052760136786
0.13600420099828625 0.47923790913532005 0.4538348803126526
0.13620967799943173 0.4802149487054226 0.44699560332193444
0.13646565499948338 0.4851001465559355 0.4264777723497801
0.13704916300048353 0.486077186126038 0.42452369320957506
0.13724512299813796 0.486077186126038 0.42452369320957506
0.13747393299854593 0.4880312652662433 0.42256961406936977
0.13766424500136054 0.4938935026868587 0.4206155349291647
0.13785133399869665 0.4929164631167562 0.4206155349291647
0.13808042299933732 0.4880312652662433 0.4235466536394723
0.13826727099876734 0.48705422569614076 0.4255007327796776
0.13845334199868375 0.4831460674157304 0.4255007327796776
0.13864354199904483 0.48216902784562765 0.4255007327796776
0.13882955699955346 0.4763067904250122 0.42745481191988266
0.139015646000189 0.48216902784562765 0.4284318514899854
0.1392014390003169 0.47728382999511476 0.4284318514899854
0.1393875100002333 0.47239863214460187 0.42940889106008795
0.13957391399890184 0.4684904738641915 0.4352711284807034
0.13976005899894517 0.4606741573033708 0.4382022471910112
0.13994561100116698 0.46165119687347334 0.441133365901319
0.140131886000745 0.45676599902296044 0.44406448461162684
0.14035780699850875 0.44894968246213973 0.44699560332193444
0.14054550799846766 0.4479726428920372 0.4538348803126526
0.14073342999836314 0.4450415241817294 0.4538348803126526
0.1409207789984066 0.44699560332193444 0.45481191988275516
0.14110747900122078 0.4401563263312165 0.45676599902296044
0.14129436499933945 0.441133365901319 0.4557889594528579
0.14147969500118052 0.4450415241817294 0.457743038593063
0.14170770900091156 0.4430874450415241 0.45676599902296044
0.1419327420007903 0.44406448461162684 0.457743038593063
0.1421191830013413 0.4460185637518319 0.45969711773326827
0.14230510600100388 0.44699560332193444 0.4655593551538837
0.142490842998086 0.4450415241817294 0.4753297508549097
0.14267634000134422 0.4460185637518319 0.48412310698583294
0.14286254000035115 0.4479726428920372 0.4948705422569615
0.14304799999808893 0.44699560332193444 0.5007327796775769
0.14323357100147405 0.4460185637518319 0.49975574010747437
0.1434183640012634 0.4430874450415241 0.5026868588177822
0.14360410099834553 0.4450415241817294 0.5026868588177822
0.14378913499967894 0.44211040547142155 0.48998534440644836
0.14397552000082214 0.4401563263312165 0.48900830483634583
0.14416149799944833 0.4382022471910112 0.48216902784562765
0.14435047599909012 0.42940889106008795 0.4782608695652173
0.14453636200050823 0.4284318514899854 0.47435271128480694
0.14472232199841528 0.4284318514899854 0.4753297508549097
0.14490824400127167 0.42745481191988266 0.47142159257449934
0.14509420399917872 0.42452369320957506 0.46946751343429405
0.14528195999810123 0.4186614557889594 0.4655593551538837
0.14546784499907517 0.41670737664875435 0.4557889594528579
0.14565397100159316 0.4176844162188569 0.45188080117244755
0.14584043099966948 0.41963849535906195 0.4430874450415241
0.1460330019981484 0.4186614557889594 0.4430874450415241
0.1462187389988685 0.42452369320957506 0.4352711284807034
0.14640429100109031 0.42452369320957506 0.43429408891060084
0.14659058400138747 0.4255007327796776 0.4323400097703958
0.14677719199971762 0.4264777723497801 0.4284318514899854
0.14699524399838992 0.4264777723497801 0.43429408891060084
0.14718155499940622 0.4264777723497801 0.43429408891060084
0.14736777399957646 0.4284318514899854 0.43624816805080613
0.14755389999845647 0.4284318514899854 0.43917928676111373
0.14774184099951526 0.4284318514899854 0.44406448461162684
0.14811209400068037 0.431362970200293 0.441133365901319
0.1483826820003742 0.4323400097703958 0.43429408891060084
0.1486288810010592 0.4382022471910112 0.4186614557889594
0.1488635620007699 0.43722520762090866 0.4049829018075233
0.14910366899857763 0.4430874450415241 0.3854421104054715
0.14932962699822383 0.4479726428920372 0.3756717147044455
0.14955504899990046 0.4450415241817294 0.3639472398632144
0.14986539600067772 0.4538348803126526 0.3678553981436248
0.15013320599973667 0.45676599902296044 0.376648754274548
0.15037099799883435 0.457743038593063 0.38446507083536874
0.15058727200084832 0.457743038593063 0.39912066438690763
0.15079773099932936 0.457743038593063 0.412799218368344
0.1510003199982748 0.4606741573033708 0.42745481191988266
0.15120051999838324 0.4587200781631655 0.43917928676111373
0.15139625699885073 0.457743038593063 0.44699560332193444
0.15159340199897997 0.4587200781631655 0.4528578407425501
0.15187537800011341 0.4587200781631655 0.457743038593063
0.15210787400064874 0.45188080117244755 0.4655593551538837
0.15230331500060856 0.44992672203224227 0.4782608695652173
0.1525662909989478 0.44699560332193444 0.4704445530043966
0.152771731998655 0.44894968246213973 0.47923790913532005
0.15298311700098566 0.44406448461162684 0.486077186126038
0.15321461300118244 0.4460185637518319 0.4851001465559355
0.15345334999801707 0.4509037616023448 0.4909623839765511
0.1536621980012569 0.441133365901319 0.4831460674157304
0.15385647199946106 0.44211040547142155 0.48412310698583294
0.15404593099810882 0.4450415241817294 0.47728382999511476
0.15423403900058474 0.4460185637518319 0.47239863214460187
0.1544229799983441 0.44894968246213973 0.4665363947239862
0.1546128289992339 0.44699560332193444 0.4665363947239862
0.15480439900056808 0.44992672203224227 0.4606741573033708
0.15501885800040327 0.4528578407425501 0.457743038593063
0.15522572500049137 0.4538348803126526 0.4538348803126526
0.15542424000159372 0.4509037616023448 0.44992672203224227
0.15562618100011605 0.4509037616023448 0.44894968246213973
0.15582834399901913 0.45481191988275516 0.44211040547142155
0.15602195099927485 0.45188080117244755 0.43917928676111373
0.15621296699828235 0.44992672203224227 0.4333170493404983
0.15648303600028157 0.4509037616023448 0.4303859306301905
0.15671490200111293 0.44992672203224227 0.431362970200293
0.1569121760003327 0.45188080117244755 0.431362970200293
0.15710465400115936 0.4509037616023448 0.43429408891060084
0.1573203170009947 0.44992672203224227 0.43722520762090866
0.15754133199880016 0.44992672203224227 0.441133365901319
0.15776023500075098 0.44992672203224227 0.4460185637518319
0.15810956199857173 0.4528578407425501 0.44894968246213973
0.15832939100073418 0.44894968246213973 0.44894968246213973
0.15854877599849715 0.4509037616023448 0.45188080117244755
0.15877949399873614 0.4528578407425501 0.4636052760136786
0.15898906499933219 0.4538348803126526 0.4479726428920372
0.1591895060009847 0.4538348803126526 0.4528578407425501
0.1593855210012407 0.4557889594528579 0.457743038593063
0.15958118400158128 0.45481191988275516 0.46262823644357587
0.15977527300128713 0.4538348803126526 0.46262823644357587
0.15996545500092907 0.457743038593063 0.45969711773326827
0.16018056200118735 0.4557889594528579 0.46165119687347334
0.16045933499844978 0.4587200781631655 0.4636052760136786
0.16070725600002334 0.45969711773326827 0.46946751343429405
0.16095940000013798 0.4587200781631655 0.4733756717147044
0.16116895099912654 0.45969711773326827 0.47728382999511476
0.16137065200018696 0.45969711773326827 0.4802149487054226
0.1615669999991951 0.4665363947239862 0.4851001465559355
0.16176084800099488 0.46165119687347334 0.4831460674157304
0.16195851099837455 0.4606741573033708 0.48412310698583294
0.16215211899907445 0.4587200781631655 0.48216902784562765
0.16235592999873916 0.4587200781631655 0.4851001465559355
0.16255253800045466 0.4636052760136786 0.486077186126038
0.16296317800151883 0.4733756717147044 0.4880312652662433
0.16330320899942308 0.4782608695652173 0.4909623839765511
0.16364664800130413 0.4782608695652173 0.4978016609672691
0.16424569199807593 0.47435271128480694 0.5036638983878847
0.1646809990015754 0.47142159257449934 0.4948705422569615
0.16506036300052074 0.4704445530043966 0.4851001465559355
0.16548061499997857 0.4655593551538837 0.4831460674157304
0.1657441839997773 0.45969711773326827 0.4811919882755251
0.16601434599942877 0.45481191988275516 0.48412310698583294
0.16641974600133835 0.45676599902296044 0.4733756717147044
0.16667003800102975 0.4509037616023448 0.4665363947239862
0.1669037190004019 0.45481191988275516 0.45188080117244755
0.16711786299856612 0.4479726428920372 0.44406448461162684
0.16732604400021955 0.44699560332193444 0.42745481191988266
0.1675322810006037 0.44406448461162684 0.41963849535906195
0.1677598880014557 0.441133365901319 0.41670737664875435
0.16801640199992107 0.4352711284807034 0.4137762579384465
0.16822158400100307 0.43429408891060084 0.41182217879824123
0.16852630100038368 0.4333170493404983 0.412799218368344
0.16874261100019794 0.42940889106008795 0.412799218368344
0.1689332009991631 0.4303859306301905 0.41963849535906195
0.1691233450001164 0.4303859306301905 0.4206155349291647
0.16931184200075222 0.431362970200293 0.4284318514899854
0.1694993199998862 0.4352711284807034 0.4284318514899854
0.16973844499807456 0.4333170493404983 0.4333170493404983
0.1699303860004875 0.43429408891060084 0.4352711284807034
0.17013540100015234 0.43722520762090866 0.43722520762090866
0.17033076799998526 0.4333170493404983 0.43624816805080613
0.170557875000668 0.4333170493404983 0.4352711284807034
0.1707551119980053 0.4352711284807034 0.4333170493404983
0.17095486800099025 0.4303859306301905 0.42745481191988266
0.1711548089988355 0.4333170493404983 0.42256961406936977
0.1713457309997466 0.4323400097703958 0.412799218368344
0.17156309799975134 0.43429408891060084 0.3981436248168051
0.17178394599977764 0.43429408891060084 0.38251099169516367
0.17199933099982445 0.43722520762090866 0.36492427943331696
0.17220180799995433 0.4382022471910112 0.3434294088910601
0.1724511739994341 0.4352711284807034 0.3356130923302394
0.1726599850007915 0.43722520762090866 0.32681973619931615
0.17287114799910341 0.43722520762090866 0.3277967757694187
0.1730700150001212 0.4352711284807034 0.32975085490962375
0.1732613259991922 0.43429408891060084 0.33952125061064975
0.1734479900005681 0.4303859306301905 0.3502686858817783
0.17363485700116144 0.4382022471910112 0.3610161211529066
0.1738205020010355 0.4352711284807034 0.36980947728383007
0.17400723899845616 0.4382022471910112 0.3834880312652662
0.17419304999930318 0.43722520762090866 0.3913043478260869
0.17441054599839845 0.43722520762090866 0.403028822667318
0.17460091300017666 0.43917928676111373 0.4079140205178309
0.17478761399979703 0.441133365901319 0.41670737664875435
0.1749899060014286 0.4460185637518319 0.42256961406936977
0.17525295700033894 0.44406448461162684 0.4323400097703958
0.17544171299959999 0.44992672203224227 0.43917928676111373
0.1756283020004048 0.44992672203224227 0.4450415241817294
0.17581539199818508 0.4538348803126526 0.45481191988275516
0.17600116600078763 0.4538348803126526 0.46262823644357587
0.17618718100129627 0.4538348803126526 0.4665363947239862
0.17637791800007108 0.457743038593063 0.4763067904250122
0.17656730399903608 0.46165119687347334 0.4802149487054226
0.17675378200146952 0.46262823644357587 0.4909623839765511
0.1769397600000957 0.46165119687347334 0.4948705422569615
0.17712870100149303 0.46458231558378116 0.49975574010747437
0.17731947599895648 0.4665363947239862 0.5075720566682951
0.1778869650006527 0.46165119687347334 0.5046409379579873
0.17809657299949322 0.4587200781631655 0.5105031753786029
0.17829351399996085 0.4557889594528579 0.512457254518808
0.17848519499966642 0.4538348803126526 0.5075720566682951
0.1786703399993712 0.45481191988275516 0.5065950170981925
0.17885657800070476 0.4557889594528579 0.5056179775280898
0.17904233299850603 0.4557889594528579 0.5046409379579873
0.17922838600134128 0.4528578407425501 0.49975574010747437
0.17941397499816958 0.4528578407425501 0.4948705422569615
0.17959902700022212 0.45676599902296044 0.4948705422569615
0.17978426500121714 0.45481191988275516 0.49193942354665365
0.1799700199990184 0.46165119687347334 0.48412310698583294
0.18015542500143056 0.4606741573033708 0.4763067904250122
0.1803566429989587 0.46458231558378116 0.47728382999511476
0.18054832499910844 0.46458231558378116 0.4753297508549097
0.18073278500014567 0.47239863214460187 0.4753297508549097
0.1809180780001043 0.46262823644357587 0.4763067904250122
0.18110542599970358 0.4636052760136786 0.4763067904250122
0.18129023700021207 0.45969711773326827 0.47728382999511476
0.181475863999367 0.4636052760136786 0.4763067904250122
0.18166071199811995 0.46262823644357587 0.47728382999511476
0.1818457090012089 0.4587200781631655 0.4753297508549097
0.18203070600065985 0.46262823644357587 0.4753297508549097
0.18221514700053376 0.46165119687347334 0.4733756717147044
0.18240008800057694 0.4636052760136786 0.4733756717147044
0.18258502900062012 0.46165119687347334 0.4704445530043966
0.1827853030008555 0.4655593551538837 0.4704445530043966
0.18297022600017954 0.4636052760136786 0.4733756717147044
0.18315642599918647 0.4665363947239862 0.4733756717147044
0.183375292999699 0.4665363947239862 0.46946751343429405
0.1835818260005908 0.46946751343429405 0.46946751343429405
0.18376889700084575 0.4684904738641915 0.46946751343429405
0.18395474499993725 0.4684904738641915 0.4636052760136786
0.18414087099881726 0.4665363947239862 0.4587200781631655
0.18434981199970935 0.46262823644357587 0.4479726428920372
0.18454038300114917 0.46262823644357587 0.441133365901319
0.18472641599873896 0.4636052760136786 0.4382022471910112
0.1849116720004531 0.45969711773326827 0.4382022471910112
0.1850970209998195 0.4557889594528579 0.44211040547142155
0.18528298000092036 0.45676599902296044 0.44406448461162684
0.18546805100049824 0.45481191988275516 0.4479726428920372
0.18565362200024538 0.45481191988275516 0.44894968246213973
0.18583865600157878 0.46262823644357587 0.4528578407425501
0.18602365200058557 0.4587200781631655 0.45676599902296044
0.18620905599891557 0.457743038593063 0.46165119687347334
0.18640123799923458 0.46262823644357587 0.4636052760136786
0.1865877720010758 0.4538348803126526 0.4665363947239862
0.18677291700078058 0.4538348803126526 0.4665363947239862
0.1869584689993644 0.4479726428920372 0.4655593551538837
0.18714381699828664 0.4460185637518319 0.467513434294089
0.1873297950005508 0.4509037616023448 0.46458231558378116
0.18751555099879624 0.44699560332193444 0.46458231558378116
0.18770175199824735 0.4450415241817294 0.4665363947239862
0.18788769299862906 0.4460185637518319 0.46946751343429405
0.18807324500085087 0.45188080117244755 0.4636052760136786
0.1882593709997309 0.44992672203224227 0.46262823644357587
0.1884487569986959 0.4538348803126526 0.4587200781631655
0.1886342350007908 0.4538348803126526 0.45481191988275516
0.18884276799872168 0.4538348803126526 0.4557889594528579
0.18903126499935752 0.44894968246213973 0.4587200781631655
0.1892169839993585 0.4479726428920372 0.45676599902296044
0.18940748000022722 0.4430874450415241 0.45969711773326827
0.1896051619987702 0.44211040547142155 0.46262823644357587
0.18979626999862376 0.4401563263312165 0.45969711773326827
0.1899874880000425 0.43722520762090866 0.46262823644357587
0.19017322600120679 0.4382022471910112 0.4587200781631655
0.19035903699841583 0.4382022471910112 0.4538348803126526
0.19054464500004542 0.441133365901319 0.45188080117244755
0.190729531001125 0.441133365901319 0.44894968246213973
0.19091448999824934 0.43722520762090866 0.4430874450415241
0.1911003940003866 0.4382022471910112 0.43429408891060084
0.1912864459991397 0.4430874450415241 0.42452369320957506
0.19150360899948282 0.44406448461162684 0.41670737664875435
0.1917024020003737 0.4450415241817294 0.4049829018075233
0.19194445299945073 0.44406448461162684 0.39912066438690763
0.1921364679983526 0.4430874450415241 0.3952125061064973
0.19236520499907783 0.441133365901319 0.39423546653639474
0.19256640499952482 0.4382022471910112 0.39716658524670256
0.19276384600016172 0.43722520762090866 0.39912066438690763
0.1929558609990636 0.43722520762090866 0.40889106008793363
0.19314808000126504 0.431362970200293 0.41182217879824123
0.19335911300004227 0.4323400097703958 0.4157303370786516
0.19355596099921968 0.42745481191988266 0.4235466536394723
0.19374823500038474 0.4284318514899854 0.4255007327796776
0.19395186100155115 0.42940889106008795 0.42745481191988266
0.19419017199834343 0.43722520762090866 0.42452369320957506
0.1944373340011225 0.42940889106008795 0.4303859306301905
0.19469186700007413 0.43624816805080613 0.4382022471910112
0.19498151000152575 0.4401563263312165 0.44699560332193444
0.19521883899869863 0.43624816805080613 0.4528578407425501
0.19542346500020358 0.43917928676111373 0.45481191988275516
0.19562325700098881 0.43917928676111373 0.46946751343429405
0.19587736399989808 0.43624816805080613 0.47239863214460187
0.19607523100057733 0.43722520762090866 0.4811919882755251
0.19628594900132157 0.43429408891060084 0.4811919882755251
0.19670408999809297 0.431362970200293 0.48412310698583294
0.1969704000002821 0.42940889106008795 0.4831460674157304
0.19725048699910985 0.42940889106008795 0.4802149487054226
0.19755492599870195 0.431362970200293 0.47239863214460187
0.19783271800042712 0.4333170493404983 0.46262823644357587
0.19808784300039406 0.4382022471910112 0.4557889594528579
0.19832726399909006 0.4401563263312165 0.4479726428920372
0.19855427899892675 0.4460185637518319 0.44992672203224227
0.19879794100052095 0.4538348803126526 0.44992672203224227
0.19902614099919447 0.457743038593063 0.44894968246213973
0.19928956199873937 0.4665363947239862 0.4509037616023448
0.19955811199906748 0.4704445530043966 0.4538348803126526
0.19978770099987742 0.47435271128480694 0.45676599902296044
0.2000245849994826 0.47435271128480694 0.4606741573033708
0.20023032300014165 0.47728382999511476 0.45969711773326827
0.20048094799858518 0.47923790913532005 0.4528578407425501
0.2008361820007849 0.4733756717147044 0.4382022471910112
0.20131202500124346 0.4753297508549097 0.4284318514899854
0.20150463299796684 0.4811919882755251 0.4255007327796776
0.20169186999919475 0.4831460674157304 0.42256961406936977
0.20190177399854292 0.48216902784562765 0.42452369320957506
0.20208806699884008 0.48412310698583294 0.4264777723497801
0.2022740079992218 0.4851001465559355 0.42745481191988266
0.2024597640011052 0.48216902784562765 0.4206155349291647
0.20264605700140237 0.4782608695652173 0.4206155349291647
0.202831350001361 0.4753297508549097 0.42256961406936977
0.20302166100009345 0.4753297508549097 0.4264777723497801
0.20320758399975603 0.46458231558378116 0.4284318514899854
0.20339391399829765 0.46458231558378116 0.43722520762090866
0.20357970699842554 0.457743038593063 0.4509037616023448
0.2037656659995264 0.45188080117244755 0.4557889594528579
0.20395038499918883 0.44894968246213973 0.4606741573033708
0.20413569700031076 0.4479726428920372 0.4636052760136786
0.20436506300029578 0.441133365901319 0.4587200781631655
0.20455194799797027 0.4401563263312165 0.45676599902296044
0.2047371859989653 0.43722520762090866 0.45188080117244755
0.204922090000764 0.4333170493404983 0.44406448461162684
0.2051078830008919 0.43722520762090866 0.44211040547142155
0.20529326799805858 0.4323400097703958 0.43722520762090866
0.20547880199956126 0.4323400097703958 0.4352711284807034
0.2056648910001968 0.4303859306301905 0.4352711284807034
0.20585009199930937 0.4333170493404983 0.4352711284807034
0.20603493999806233 0.431362970200293 0.4323400097703958
0.206223270000919 0.42940889106008795 0.4303859306301905
0.20640832199933357 0.431362970200293 0.4323400097703958
0.20659315200100536 0.43722520762090866 0.4333170493404983
0.20677809400149272 0.441133365901319 0.43917928676111373
0.2069632009988709 0.44211040547142155 0.4430874450415241
0.20714941999904113 0.44406448461162684 0.44992672203224227
0.20733467600075528 0.4479726428920372 0.4538348803126526
0.20752059900041786 0.44894968246213973 0.4557889594528579
0.2077058360009687 0.44699560332193444 0.4557889594528579
0.20789111100020818 0.4450415241817294 0.4636052760136786
0.20808605199999874 0.44406448461162684 0.4557889594528579
0.20827606699822354 0.44894968246213973 0.46165119687347334
0.2085203399983584 0.44992672203224227 0.46165119687347334
0.20872237300136476 0.4587200781631655 0.4655593551538837
0.2089190740007325 0.4587200781631655 0.4655593551538837
0.20913812499929918 0.46262823644357587 0.46946751343429405
0.20932601100139436 0.4636052760136786 0.46946751343429405
0.20951102600156446 0.4636052760136786 0.467513434294089
0.20971852200091234 0.4606741573033708 0.4665363947239862
0.20990733399958117 0.4606741573033708 0.4636052760136786
0.21010579300127574 0.45676599902296044 0.4665363947239862
0.21029775200076983 0.457743038593063 0.4636052760136786
0.21049299000151223 0.45676599902296044 0.46458231558378116
0.21076794799955678 0.4557889594528579 0.4587200781631655
0.21101138800077024 0.4538348803126526 0.45969711773326827
0.2112045690009836 0.4509037616023448 0.45676599902296044
0.21139015899825608 0.4509037616023448 0.45676599902296044
0.2115757110004779 0.44894968246213973 0.4557889594528579
0.2117620220014942 0.44406448461162684 0.4557889594528579
0.21194748199923197 0.44406448461162684 0.45188080117244755
0.2121334969997406 0.441133365901319 0.45188080117244755
0.21235099299883586 0.4382022471910112 0.4479726428920372
0.21253991599951405 0.441133365901319 0.44406448461162684
0.21272980099820415 0.43722520762090866 0.4450415241817294
0.21291714999824762 0.43624816805080613 0.4430874450415241
0.21310322000135784 0.43722520762090866 0.4479726428920372
0.21328849500059732 0.4401563263312165 0.44699560332193444
0.2134742689995619 0.4333170493404983 0.44992672203224227
0.2136608590008109 0.4333170493404983 0.45188080117244755
0.21384628099986003 0.4303859306301905 0.4460185637518319
0.2140539069987426 0.4264777723497801 0.44699560332193444
0.21424340399971697 0.42452369320957506 0.4479726428920372
0.214429529998597 0.42256961406936977 0.44406448461162684
0.21461663800073438 0.42159257449926724 0.43917928676111373
0.21480187500128523 0.4206155349291647 0.431362970200293
0.21498685299957287 0.4206155349291647 0.4284318514899854
0.2151721650006948 0.41963849535906195 0.42745481191988266
0.21535851299995556 0.4206155349291647 0.4264777723497801
0.2155440839997027 0.41963849535906195 0.42745481191988266
0.21573061800154392 0.4176844162188569 0.4401563263312165
0.21591641099803383 0.4186614557889594 0.43917928676111373
0.21610211100050947 0.4137762579384465 0.44699560332193444
0.21629479300099774 0.4186614557889594 0.4528578407425501
0.2165194369990786 0.41670737664875435 0.4557889594528579
0.21672272900104872 0.4206155349291647 0.4606741573033708
0.21691843000007793 0.4255007327796776 0.4606741573033708
0.21711714800039772 0.42940889106008795 0.4636052760136786
0.21731597799953306 0.4323400097703958 0.4587200781631655
0.2175076409985195 0.4352711284807034 0.46165119687347334
0.2176977489980345 0.4382022471910112 0.4587200781631655
0.21788304199799313 0.4382022471910112 0.45969711773326827
0.21807131600144203 0.44699560332193444 0.457743038593063
0.21828496099988115 0.45676599902296044 0.4538348803126526
0.21847043899833807 0.4557889594528579 0.457743038593063
0.21866882399990573 0.4538348803126526 0.45481191988275516
0.21885517299961066 0.46165119687347334 0.45481191988275516
0.21904031699887128 0.4636052760136786 0.4587200781631655
0.21922598099990864 0.467513434294089 0.46262823644357587
0.21941162499933853 0.47239863214460187 0.46946751343429405
0.21959758500088356 0.4684904738641915 0.47239863214460187
0.21978319299887517 0.46946751343429405 0.47435271128480694
0.2199688190012239 0.46946751343429405 0.47239863214460187
0.22015418600130943 0.4704445530043966 0.4753297508549097
0.22038744100063923 0.4655593551538837 0.4811919882755251
0.2205880299989076 0.467513434294089 0.4831460674157304
0.2207739709992893 0.467513434294089 0.4851001465559355
0.22095948700007284 0.4733756717147044 0.4851001465559355
0.2211449280002853 0.4704445530043966 0.486077186126038
0.2213300719995459 0.46946751343429405 0.48998534440644836
0.2215149020012177 0.4733756717147044 0.48998534440644836
0.22169982500054175 0.4733756717147044 0.48998534440644836
0.22188465499857557 0.46946751343429405 0.4909623839765511
0.22208116999900085 0.47435271128480694 0.4880312652662433
0.22226672200122266 0.4733756717147044 0.486077186126038
0.22245590400052606 0.4704445530043966 0.48705422569614076
0.22264177100078086 0.4704445530043966 0.4802149487054226
0.22293711800011806 0.467513434294089 0.4782608695652173
0.2231247989984695 0.467513434294089 0.4684904738641915
0.22331740699883085 0.4665363947239862 0.45969711773326827
0.22351770000022952 0.467513434294089 0.44894968246213973
0.22370752999995602 0.46946751343429405 0.441133365901319
0.2238954710010148 0.467513434294089 0.4323400097703958
0.22408113399797003 0.4665363947239862 0.42745481191988266
0.22426703800010728 0.4636052760136786 0.42256961406936977
0.2245012189996487 0.46165119687347334 0.412799218368344
0.22470677100136527 0.45969711773326827 0.4108451392281387
0.22491123000145308 0.4636052760136786 0.4049829018075233
0.22521646499808412 0.4587200781631655 0.40889106008793363
0.22546146099921316 0.45481191988275516 0.4079140205178309
0.22567825299847755 0.44992672203224227 0.4108451392281387
0.2258815829991363 0.44406448461162684 0.4157303370786516
0.22610713500034763 0.441133365901319 0.42745481191988266
0.22632640799929504 0.4401563263312165 0.4255007327796776
0.226537089998601 0.43624816805080613 0.4382022471910112
0.22684026999922935 0.43722520762090866 0.43917928676111373
0.2270341359981103 0.43722520762090866 0.44211040547142155
0.22722720700039645 0.4382022471910112 0.4401563263312165
0.22741781500008074 0.4430874450415241 0.44211040547142155
0.2276087930003996 0.44211040547142155 0.44699560332193444
0.22781256699818186 0.441133365901319 0.4460185637518319
0.22802102599962382 0.44406448461162684 0.4430874450415241
0.22823276299823192 0.4430874450415241 0.4430874450415241
0.22848618399802945 0.4450415241817294 0.4460185637518319
0.22867945899997721 0.44894968246213973 0.44699560332193444
0.22888145500110113 0.44992672203224227 0.44211040547142155
0.22907904399835388 0.44992672203224227 0.4430874450415241
0.22927915200125426 0.45481191988275516 0.4460185637518319
0.22946864799814648 0.4528578407425501 0.4479726428920372
0.22965432999990298 0.45481191988275516 0.44699560332193444
0.229839733998233 0.45676599902296044 0.4479726428920372
0.2300259340008779 0.457743038593063 0.4509037616023448
0.2302128379997157 0.46165119687347334 0.4538348803126526
0.23040757600028883 0.46165119687347334 0.45481191988275516
0.23059572000056505 0.46165119687347334 0.4587200781631655
0.2307816989996354 0.4655593551538837 0.45481191988275516
0.23096778800027096 0.4636052760136786 0.4509037616023448
0.23115345100086415 0.4655593551538837 0.4509037616023448
0.23133904000133043 0.4587200781631655 0.45188080117244755
0.23155792499892414 0.45969711773326827 0.45481191988275516
0.2317561999989266 0.45969711773326827 0.4509037616023448
0.23194769600013387 0.457743038593063 0.4460185637518319
0.2321406000010029 0.45969711773326827 0.44406448461162684
0.2323723549998249 0.45481191988275516 0.44406448461162684
0.23257709199970122 0.45676599902296044 0.4479726428920372
0.23277603300084593 0.457743038593063 0.4528578407425501
0.2329678440000862 0.4557889594528579 0.4430874450415241
0.23315382299915655 0.4538348803126526 0.4509037616023448
0.2333391339998343 0.4538348803126526 0.4528578407425501
0.2335242789995391 0.4528578407425501 0.4538348803126526
0.23370920099841896 0.4528578407425501 0.457743038593063
0.23389456899894867 0.45188080117244755 0.4587200781631655
0.23407930599933024 0.44992672203224227 0.45969711773326827
0.23426472899882356 0.4450415241817294 0.4665363947239862
0.23445066999920527 0.44992672203224227 0.4684904738641915
0.2346358139984659 0.44894968246213973 0.467513434294089
0.23482314400098403 0.4479726428920372 0.4655593551538837
0.23503127000003587 0.44699560332193444 0.46946751343429405
0.2352258780010743 0.4509037616023448 0.46946751343429405
0.23541191199910827 0.4509037616023448 0.47239863214460187
0.23559755599853816 0.44992672203224227 0.4753297508549097
0.23578325700145797 0.44894968246213973 0.4782608695652173
0.2359691979982017 0.4450415241817294 0.47923790913532005
0.23615432400038117 0.4460185637518319 0.4753297508549097
0.2363535430013144 0.4509037616023448 0.47239863214460187
0.236542112997995 0.4430874450415241 0.46946751343429405
0.23672718400121084 0.4430874450415241 0.467513434294089
0.2369115879992023 0.44699560332193444 0.46165119687347334
0.2370967329989071 0.4430874450415241 0.45676599902296044
0.2372823410005367 0.4382022471910112 0.4587200781631655
0.2374680780012568 0.44406448461162684 0.4509037616023448
0.23765396399903693 0.4401563263312165 0.4460185637518319
0.23783977499988396 0.4401563263312165 0.4382022471910112
0.23802486500062514 0.43624816805080613 0.43624816805080613
0.23821023200071068 0.43624816805080613 0.4323400097703958
0.23839533899808885 0.43624816805080613 0.42940889106008795
0.2385807989994646 0.43722520762090866 0.4255007327796776
0.23876718500105198 0.43624816805080613 0.4235466536394723
0.23900162499921862 0.4382022471910112 0.431362970200293
0.2392643790008151 0.4401563263312165 0.4255007327796776
0.23954417099957936 0.4460185637518319 0.42159257449926724
0.2397487589987577 0.4479726428920372 0.42256961406936977
0.23994712599960621 0.4538348803126526 0.42745481191988266
0.24014482599886833 0.4538348803126526 0.4284318514899854
0.24035963699861895 0.4587200781631655 0.4284318514899854
0.2405643929996586 0.4557889594528579 0.4284318514899854
0.2407871299983526 0.457743038593063 0.4284318514899854
0.24099819999901229 0.45969711773326827 0.4303859306301905
0.24120993700125837 0.4557889594528579 0.4333170493404983
0.24144050700124353 0.45188080117244755 0.4352711284807034
0.24173268699814798 0.4528578407425501 0.4382022471910112
0.24198321899893926 0.45969711773326827 0.4382022471910112
0.24220371499905013 0.45969711773326827 0.4401563263312165
0.24244582200117293 0.46262823644357587 0.4450415241817294
0.24272250200010603 0.4684904738641915 0.44992672203224227
0.24292172100103926 0.4606741573033708 0.457743038593063
0.24311575400133734 0.4655593551538837 0.46262823644357587
0.24330917699990096 0.4636052760136786 0.4665363947239862
0.2435143769980641 0.46262823644357587 0.4665363947239862
0.2437113550004142 0.4587200781631655 0.46946751343429405
0.2439083329991263 0.457743038593063 0.4704445530043966
0.24413831000128994 0.4538348803126526 0.47142159257449934
0.24435791699943366 0.45188080117244755 0.46946751343429405
0.2445470620004926 0.44992672203224227 0.4753297508549097
0.24474483599988162 0.44211040547142155 0.4811919882755251
0.24495062899950426 0.4382022471910112 0.48705422569614076
0.24515197700020508 0.43429408891060084 0.4880312652662433
0.24535019600079977 0.43429408891060084 0.48900830483634583
0.24554498799989233 0.4333170493404983 0.48412310698583294
0.2457411889990908 0.43722520762090866 0.48998534440644836
0.24594455500118784 0.43722520762090866 0.4909623839765511
0.246163477000664 0.4382022471910112 0.4909623839765511
0.24639865800054395 0.4401563263312165 0.48900830483634583
0.24661293199824286 0.43917928676111373 0.48412310698583294
0.2468070210015867 0.4450415241817294 0.486077186126038
0.24699572199824615 0.4401563263312165 0.4763067904250122
0.2471814220007218 0.4382022471910112 0.4763067904250122
0.24740549199850648 0.4401563263312165 0.47142159257449934
0.24759446999814827 0.43917928676111373 0.4655593551538837
0.24778015199990477 0.44406448461162684 0.46458231558378116
0.24800085199967725 0.4401563263312165 0.4665363947239862
0.24818658900039736 0.43917928676111373 0.46165119687347334
0.24837519699940458 0.43917928676111373 0.46165119687347334
0.24856230500154197 0.4430874450415241 0.45969711773326827
0.2487484859993856 0.44211040547142155 0.45969711773326827
0.24893359400084591 0.43722520762090866 0.4528578407425501
0.2491212759996415 0.4401563263312165 0.45676599902296044
0.2493071989993041 0.43917928676111373 0.4509037616023448
0.2494935840004473 0.43917928676111373 0.4509037616023448
0.24967909900078666 0.441133365901319 0.4479726428920372
0.24986450299911667 0.44406448461162684 0.44406448461162684
0.2500494999985676 0.4401563263312165 0.44211040547142155
0.250234700000874 0.441133365901319 0.4352711284807034
0.25041993799823103 0.4479726428920372 0.441133365901319
0.25062682299903827 0.44699560332193444 0.4264777723497801
0.2508179120013665 0.44699560332193444 0.42159257449926724
0.2510034090009867 0.4460185637518319 0.4235466536394723
0.2511912019981537 0.44699560332193444 0.41182217879824123
0.2513770129990007 0.4479726428920372 0.403028822667318
0.2515618430006725 0.44894968246213973 0.403028822667318
0.2517468400001235 0.44894968246213973 0.3952125061064973
0.2519322619991726 0.4450415241817294 0.3913043478260869
0.2521181849988352 0.44992672203224227 0.3903273082559844
0.25234543999977177 0.4509037616023448 0.3903273082559844
0.25253180700019584 0.44894968246213973 0.3952125061064973
0.2527172480004083 0.4509037616023448 0.4059599413776258
0.25290309699994395 0.44406448461162684 0.4049829018075233
0.25308803799998714 0.44699560332193444 0.412799218368344
0.2532752939987404 0.4450415241817294 0.4176844162188569
0.25346036499831825 0.4450415241817294 0.42452369320957506
0.25364591700054007 0.44211040547142155 0.42940889106008795
0.25383208000130253 0.44211040547142155 0.42745481191988266
0.25401679900096497 0.4401563263312165 0.4352711284807034
0.25420194400066976 0.4401563263312165 0.4352711284807034
0.2543869219989574 0.4479726428920372 0.4430874450415241
0.2545721220012638 0.44894968246213973 0.4450415241817294
0.2547574150012224 0.44992672203224227 0.4509037616023448
0.2549423749987909 0.457743038593063 0.45481191988275516
0.2551282419990457 0.4538348803126526 0.4587200781631655
0.25531336800122517 0.4538348803126526 0.46262823644357587
0.2555041240011633 0.4538348803126526 0.4655593551538837
0.2556903240001702 0.4538348803126526 0.4655593551538837
0.2558754509991559 0.4538348803126526 0.46946751343429405
0.2560603359997913 0.4538348803126526 0.4704445530043966
0.2562451109988615 0.4538348803126526 0.4782608695652173
0.2564348669984611 0.44894968246213973 0.48412310698583294
0.2566203079986735 0.44992672203224227 0.48216902784562765
0.25680599000043003 0.44894968246213973 0.4851001465559355
0.25699224499840057 0.44894968246213973 0.4851001465559355
0.25720201899821404 0.45188080117244755 0.4831460674157304
0.2574004599991895 0.45188080117244755 0.48216902784562765
0.25758623499859823 0.44992672203224227 0.48412310698583294
0.2577718979991914 0.44894968246213973 0.4763067904250122
0.2579577469987271 0.44699560332193444 0.4704445530043966
0.2581457619999128 0.44992672203224227 0.46165119687347334
0.25835662800091086 0.44992672203224227 0.4557889594528579
0.25854571699892404 0.457743038593063 0.45481191988275516
0.25873147300080745 0.46165119687347334 0.4528578407425501
0.2589157289985451 0.46262823644357587 0.4557889594528579
0.2590998560008302 0.4665363947239862 0.4528578407425501
0.25929329700011294 0.47142159257449934 0.46262823644357587
0.25947975600138307 0.4704445530043966 0.4636052760136786
0.25966664199950173 0.46946751343429405 0.4606741573033708
0.25985165699967183 0.4655593551538837 0.4636052760136786
0.26005600500138826 0.4636052760136786 0.4636052760136786
0.260249038998154 0.4636052760136786 0.45969711773326827
0.26043696099804947 0.46458231558378116 0.4587200781631655
0.26062269899921375 0.46262823644357587 0.4538348803126526
0.26080836199980695 0.4606741573033708 0.45188080117244755
0.2609952290004003 0.46165119687347334 0.4479726428920372
0.2611803180006973 0.46262823644357587 0.44406448461162684
0.2613649449995137 0.46262823644357587 0.4401563263312165
0.2615499780004029 0.46165119687347334 0.43624816805080613
0.2617406229983317 0.46165119687347334 0.4352711284807034
0.26193173099818523 0.4587200781631655 0.42452369320957506
0.2621169679987361 0.457743038593063 0.41963849535906195
0.26230327899975237 0.45481191988275516 0.4108451392281387
0.26248823900095886 0.4587200781631655 0.4059599413776258
0.2626730320007482 0.4587200781631655 0.41475329750854906
0.26285919500151067 0.4636052760136786 0.41670737664875435
0.2630445069989946 0.47728382999511476 0.41963849535906195
0.26322955900104716 0.4763067904250122 0.42940889106008795
0.2634150369995041 0.47923790913532005 0.44211040547142155
0.2636007930013875 0.4782608695652173 0.4538348803126526
0.26378588199804653 0.48216902784562765 0.4538348803126526
0.26397060100134695 0.4811919882755251 0.4606741573033708
0.26415522800016333 0.4782608695652173 0.46458231558378116
0.26434987199900206 0.48412310698583294 0.467513434294089
0.2645369989986648 0.47923790913532005 0.47435271128480694
0.2647222919986234 0.4802149487054226 0.47923790913532005
0.2649083989999781 0.47435271128480694 0.4802149487054226
0.2650935810015653 0.4753297508549097 0.48216902784562765
0.2652793000015663 0.47239863214460187 0.4851001465559355
0.26546518599934643 0.4704445530043966 0.48705422569614076
0.26565073800156824 0.4655593551538837 0.486077186126038
0.26583549399947515 0.4606741573033708 0.49193942354665365
0.2660209349996876 0.45676599902296044 0.486077186126038
0.26620643099886365 0.4528578407425501 0.48900830483634583
0.2663915580014873 0.4460185637518319 0.47923790913532005
0.2665770909989078 0.4430874450415241 0.47728382999511476
0.2667622359986126 0.4352711284807034 0.47239863214460187
0.2669473259993538 0.431362970200293 0.47435271128480694
0.2671331179990375 0.42940889106008795 0.4665363947239862
0.2673523369994655 0.431362970200293 0.46458231558378116
0.2675381670014758 0.431362970200293 0.457743038593063
0.26772327499929816 0.42745481191988266 0.45969711773326827
0.26790836399959517 0.4333170493404983 0.457743038593063
0.2680936569995538 0.4303859306301905 0.457743038593063
0.26829178299885825 0.4352711284807034 0.4528578407425501
0.2684917789993051 0.43722520762090866 0.44992672203224227
0.26867670199862914 0.4401563263312165 0.4430874450415241
0.2688619020009355 0.4382022471910112 0.4352711284807034
0.2690471579990117 0.4460185637518319 0.42745481191988266
0.26923285800148733 0.4450415241817294 0.4186614557889594
0.2694180030011921 0.441133365901319 0.41670737664875435
0.2696073699989938 0.44211040547142155 0.4079140205178309
0.2697931629991217 0.4401563263312165 0.4079140205178309
0.2699779379981919 0.43624816805080613 0.403028822667318
0.27016408200142905 0.4323400097703958 0.403028822667318
0.2703489490013453 0.4323400097703958 0.39912066438690763
0.2705337799998233 0.42452369320957506 0.40693698094772834
0.2707180170000356 0.4284318514899854 0.40693698094772834
0.270902902000671 0.42452369320957506 0.4040058622374205
0.27108767699974123 0.42256961406936977 0.40693698094772834
0.2712726549980289 0.4284318514899854 0.4079140205178309
0.2714577070000814 0.4284318514899854 0.4040058622374205
0.27164255599927856 0.42940889106008795 0.41182217879824123
0.2718271449994063 0.43429408891060084 0.4176844162188569
0.27202747499904945 0.43624816805080613 0.4235466536394723
0.2722126010012289 0.4352711284807034 0.4333170493404983
0.27242417099841987 0.43917928676111373 0.441133365901319
0.2726092789998802 0.4430874450415241 0.44992672203224227
0.27279472000009264 0.4382022471910112 0.45969711773326827
0.2729801800014684 0.43917928676111373 0.47239863214460187
0.27316588000030606 0.43624816805080613 0.47728382999511476
0.27335076600138564 0.4352711284807034 0.47728382999511476
0.27353565099838306 0.43429408891060084 0.47923790913532005
0.27372003699929337 0.43722520762090866 0.47728382999511476
0.2739047370014305 0.4430874450415241 0.4753297508549097
0.2740899749987875 0.44211040547142155 0.47239863214460187
0.27427580500079785 0.4479726428920372 0.4704445530043966
0.2744603380015178 0.44992672203224227 0.4684904738641915
0.27464485399832483 0.44894968246213973 0.46458231558378116
0.2748577940001269 0.4538348803126526 0.4704445530043966
0.27504279099957785 0.4538348803126526 0.47142159257449934
0.2752656019983988 0.45188080117244755 0.4704445530043966
0.27545617199939443 0.4557889594528579 0.4684904738641915
0.2756472250002844 0.45481191988275516 0.4684904738641915
0.2758427769986156 0.4538348803126526 0.4636052760136786
0.2760693470008846 0.4509037616023448 0.45969711773326827
0.27626708399839117 0.4557889594528579 0.46262823644357587
0.27657976299815346 0.4587200781631655 0.46262823644357587
0.27677616700020735 0.4606741573033708 0.4655593551538837
0.2769686079991516 0.4587200781631655 0.4753297508549097
0.2771687899985409 0.45481191988275516 0.4733756717147044
0.27736171200012905 0.45481191988275516 0.47239863214460187
0.2775565789997927 0.4538348803126526 0.4763067904250122
0.2777518900002178 0.4557889594528579 0.47435271128480694
0.27796610899895313 0.45481191988275516 0.47435271128480694
0.27819684499991126 0.45481191988275516 0.47435271128480694
0.27841337800055044 0.45676599902296044 0.4704445530043966
0.27860763399803545 0.4538348803126526 0.467513434294089
0.2788071860013588 0.45481191988275516 0.457743038593063
0.27900490499814623 0.44992672203224227 0.4528578407425501
0.2791969200006861 0.4509037616023448 0.44894968246213973
0.2793888980013435 0.44992672203224227 0.4538348803126526
0.2795805610003299 0.44992672203224227 0.4538348803126526
0.2797801870001422 0.4460185637518319 0.45969711773326827
0.2799766099997214 0.4460185637518319 0.4665363947239862
0.28017512500082375 0.4450415241817294 0.4665363947239862
0.2803745649980556 0.4401563263312165 0.4733756717147044
0.2805772840001737 0.43917928676111373 0.4753297508549097
0.2807804469994153 0.4352711284807034 0.47435271128480694
0.2809723139980633 0.4401563263312165 0.46946751343429405
0.28117575500073144 0.4430874450415241 0.467513434294089
0.281413787000929 0.4460185637518319 0.4587200781631655
0.28170089299965184 0.4528578407425501 0.44894968246213973
0.2819465559987293 0.4636052760136786 0.441133365901319
0.28218945900152903 0.4655593551538837 0.4333170493404983
0.282425676999992 0.46458231558378116 0.4284318514899854
0.28265746900069644 0.4655593551538837 0.4255007327796776
0.2829132970000501 0.45969711773326827 0.42745481191988266
0.28313505299956887 0.4587200781631655 0.4323400097703958
0.28345819500100333 0.457743038593063 0.43917928676111373
0.28374248600084684 0.4587200781631655 0.4460185637518319
0.28397431499979575 0.4636052760136786 0.4430874450415241
0.28417403400089825 0.46262823644357587 0.44699560332193444
0.284370585999568 0.467513434294089 0.4528578407425501
0.28456317499876604 0.4655593551538837 0.44894968246213973
0.2847495419991901 0.4684904738641915 0.4509037616023448
0.28493444600098883 0.4704445530043966 0.44894968246213973
0.28511966500082053 0.4655593551538837 0.4479726428920372
0.28534275399943 0.4665363947239862 0.4352711284807034
0.28554049100057455 0.4655593551538837 0.4352711284807034
0.28572596899903147 0.4655593551538837 0.42745481191988266
0.2859119290005765 0.46262823644357587 0.42452369320957506
0.2860973880015081 0.46165119687347334 0.412799218368344
0.2862824779986113 0.45969711773326827 0.41182217879824123
0.28646806699907756 0.45969711773326827 0.4157303370786516
0.28665347100104555 0.457743038593063 0.412799218368344
0.28683848600121564 0.4636052760136786 0.4206155349291647
0.2870273900007305 0.4509037616023448 0.4235466536394723
0.2872173309988284 0.44894968246213973 0.4303859306301905
0.2874035310014733 0.45188080117244755 0.43429408891060084
0.2875889540009666 0.44699560332193444 0.43722520762090866
0.2877742099990428 0.44894968246213973 0.4333170493404983
0.2879599660009262 0.44894968246213973 0.44211040547142155
0.28814551799951005 0.45188080117244755 0.44406448461162684
0.28845243899922934 0.45481191988275516 0.4450415241817294
0.28864552799859666 0.45481191988275516 0.44406448461162684
0.2888314129995706 0.4587200781631655 0.441133365901319
0.28901744700124254 0.4528578407425501 0.4401563263312165
0.2892037210003764 0.4538348803126526 0.43624816805080613
0.28939029200046207 0.4509037616023448 0.4333170493404983
0.28957440000158385 0.4528578407425501 0.4303859306301905
0.28975980399991386 0.4538348803126526 0.4303859306301905
0.2899457630010147 0.44992672203224227 0.42745481191988266
0.290130778997991 0.45481191988275516 0.42745481191988266
0.29031660900000134 0.4557889594528579 0.42940889106008795
0.29050245699909283 0.4528578407425501 0.42940889106008795
0.29068787999858614 0.4557889594528579 0.4303859306301905
0.29087322800114634 0.4587200781631655 0.4401563263312165
0.291060835999815 0.4606741573033708 0.43917928676111373
0.29124612899977365 0.45188080117244755 0.44992672203224227
0.29143238499818835 0.4538348803126526 0.46165119687347334
0.2916184739988239 0.44992672203224227 0.46458231558378116
0.2918328779996955 0.44699560332193444 0.47142159257449934
0.2920184299982793 0.4460185637518319 0.4811919882755251
0.29220451899891486 0.441133365901319 0.48412310698583294
0.29240499699881184 0.43722520762090866 0.486077186126038
0.292591289999109 0.4382022471910112 0.48998534440644836
0.2927780829995754 0.43624816805080613 0.495847581827064
0.2929630239996186 0.4323400097703958 0.4929164631167562
0.2931492799980333 0.43429408891060084 0.495847581827064
0.2933658319998358 0.4284318514899854 0.4948705422569615
0.293570087000262 0.431362970200293 0.49682462139716654
0.293756528000813 0.4284318514899854 0.4880312652662433
0.29394170999876224 0.4264777723497801 0.48705422569614076
0.29412705899812863 0.4235466536394723 0.4802149487054226
0.2943167769990396 0.4284318514899854 0.4733756717147044
0.2945179960006499 0.4323400097703958 0.46262823644357587
0.2947285109985387 0.431362970200293 0.46165119687347334
0.29493145200103754 0.43624816805080613 0.45188080117244755
0.2951200220013561 0.4430874450415241 0.44699560332193444
0.29532579599981545 0.4450415241817294 0.4479726428920372
0.2955129229994782 0.44211040547142155 0.4460185637518319
0.29569869699844276 0.44699560332193444 0.4450415241817294
0.29588410100041074 0.4430874450415241 0.44992672203224227
0.29606930099907913 0.441133365901319 0.4479726428920372
0.29625481699986267 0.4382022471910112 0.4460185637518319
0.2964533869999286 0.43429408891060084 0.44211040547142155
0.2966389950015582 0.43722520762090866 0.4430874450415241
0.29682449200117844 0.4323400097703958 0.4401563263312165
0.29700948800018523 0.43624816805080613 0.44211040547142155
0.29719405899959384 0.431362970200293 0.441133365901319
0.2974033700011205 0.4352711284807034 0.4430874450415241
0.2975897190008254 0.43624816805080613 0.44894968246213973
0.2978207330015721 0.43624816805080613 0.467513434294089
0.2980117849983799 0.4401563263312165 0.4655593551538837
0.29819750399838085 0.4401563263312165 0.46165119687347334
0.2983836669991433 0.43624816805080613 0.4655593551538837
0.29856864500106894 0.4382022471910112 0.4655593551538837
0.2987537160006468 0.441133365901319 0.4665363947239862
0.29893902799813077 0.44211040547142155 0.47142159257449934
0.2991238210015581 0.44211040547142155 0.47728382999511476
0.2993090210002265 0.4430874450415241 0.4802149487054226
0.2994948140003544 0.44699560332193444 0.4831460674157304
0.29967988499993226 0.44992672203224227 0.48998534440644836
0.2998650289991929 0.4460185637518319 0.48705422569614076
0.30005108199839015 0.4479726428920372 0.4880312652662433
0.30023578200052725 0.44894968246213973 0.48216902784562765
0.3004294079983083 0.44894968246213973 0.48412310698583294
0.3006147380001494 0.45188080117244755 0.4811919882755251
0.30079986399869085 0.45481191988275516 0.47239863214460187
0.30098471300152596 0.457743038593063 0.47142159257449934
0.30117543199958163 0.4538348803126526 0.4684904738641915
0.3013598360012111 0.45481191988275516 0.46458231558378116
0.3015463699994143 0.4665363947239862 0.4587200781631655
0.3017480140006228 0.4538348803126526 0.4636052760136786
0.3019329739981913 0.4528578407425501 0.46165119687347334
0.30211874800079386 0.45481191988275516 0.46458231558378116
0.3023037259990815 0.45188080117244755 0.4655593551538837
0.30248909299916704 0.44992672203224227 0.46458231558378116
0.302674811999168 0.44894968246213973 0.4655593551538837
0.30285966099836514 0.4538348803126526 0.4528578407425501
0.3030445090007561 0.4479726428920372 0.4382022471910112
0.3032298580001225 0.4509037616023448 0.4186614557889594
0.30344903899822384 0.44992672203224227 0.4010747435271129
0.30363483199835173 0.4538348803126526 0.38641914997557403
0.3038191800005734 0.4538348803126526 0.38251099169516367
0.3040040849991783 0.4528578407425501 0.3756717147044455
0.3041886920000252 0.45188080117244755 0.3756717147044455
0.30437518899998395 0.45481191988275516 0.3786028334147533
0.30456092600070406 0.45188080117244755 0.38739618954567656
0.30474618199878023 0.4528578407425501 0.38935026868588185
0.3049311049981043 0.4538348803126526 0.3961895456765998
0.3051162129995646 0.457743038593063 0.41182217879824123
0.3053011910014902 0.45481191988275516 0.4157303370786516
0.3054853360008565 0.45969711773326827 0.4186614557889594
0.30567001799863647 0.4636052760136786 0.42159257449926724
0.3058545329986373 0.4655593551538837 0.42745481191988266
0.30603912199876504 0.4655593551538837 0.431362970200293
0.3062258589998237 0.4704445530043966 0.4352711284807034
0.3064243560002069 0.4655593551538837 0.4401563263312165
0.30661270400014473 0.4655593551538837 0.44406448461162684
0.30679895999855944 0.4655593551538837 0.44699560332193444
0.30698323500109836 0.4655593551538837 0.4509037616023448
0.30716815699997824 0.467513434294089 0.45969711773326827
0.30735248700148077 0.46458231558378116 0.4636052760136786
0.3075375019980129 0.46165119687347334 0.46458231558378116
0.3077221470011864 0.45969711773326827 0.4636052760136786
0.30790677400000277 0.45676599902296044 0.4636052760136786
0.30809149199922103 0.457743038593063 0.4606741573033708
0.30827719299850287 0.45676599902296044 0.45969711773326827
0.30850244799876236 0.457743038593063 0.4509037616023448
0.3087068149980041 0.457743038593063 0.4460185637518319
0.30889927400130546 0.45676599902296044 0.44992672203224227
0.30909606700151926 0.457743038593063 0.45188080117244755
0.3092887300008442 0.4528578407425501 0.4538348803126526
0.3095120779980789 0.45188080117244755 0.46165119687347334
0.309706981999625 0.4450415241817294 0.4665363947239862
0.309927810998488 0.4450415241817294 0.467513434294089
0.31012352999823634 0.44211040547142155 0.4655593551538837
0.31031578599868226 0.44211040547142155 0.4606741573033708
0.3105094860002282 0.441133365901319 0.46165119687347334
0.31072729700099444 0.43722520762090866 0.46458231558378116
0.3110109769986593 0.4352711284807034 0.46946751343429405
0.311250212998857 0.4333170493404983 0.47239863214460187
0.31146030200034147 0.4333170493404983 0.4763067904250122
0.3116827240010025 0.4333170493404983 0.4753297508549097
0.31190879399946425 0.43722520762090866 0.47728382999511476
0.3121086050014128 0.43722520762090866 0.4684904738641915
0.31230197200056864 0.4382022471910112 0.4557889594528579
0.3125887819987838 0.44211040547142155 0.4479726428920372
0.31279812999855494 0.4450415241817294 0.43722520762090866
0.313004126001033 0.4460185637518319 0.4284318514899854
0.31321251099871006 0.44699560332193444 0.4255007327796776
0.31341769299979205 0.44894968246213973 0.42452369320957506
0.31362585600072634 0.45188080117244755 0.4255007327796776
0.31385675899946364 0.4528578407425501 0.42940889106008795
0.3140825699993002 0.4509037616023448 0.43624816805080613
0.3142984730002354 0.45188080117244755 0.4382022471910112
0.3145184140012134 0.4538348803126526 0.441133365901319
0.31473609499880695 0.4538348803126526 0.44699560332193444
0.31506381099825376 0.4538348803126526 0.4460185637518319
0.315324546998454 0.45481191988275516 0.4479726428920372
0.31558019099975354 0.45676599902296044 0.44992672203224227
0.3157954829985101 0.457743038593063 0.44894968246213973
0.3159998869996343 0.46165119687347334 0.44699560332193444
0.3161953650014766 0.46262823644357587 0.45188080117244755
0.3163879359999555 0.4655593551538837 0.45481191988275516
0.3165751550004643 0.4655593551538837 0.4509037616023448
0.3167605220005498 0.47142159257449934 0.45188080117244755
0.3169457029980549 0.4704445530043966 0.4509037616023448
0.31713083000067854 0.47239863214460187 0.4528578407425501
0.3173158079989662 0.47142159257449934 0.45188080117244755
0.3175035640015267 0.46946751343429405 0.4479726428920372
0.317690746000153 0.4655593551538837 0.4460185637518319
0.3178753719985252 0.46165119687347334 0.44699560332193444
0.31806029500148725 0.4606741573033708 0.4460185637518319
0.3182455319984001 0.4587200781631655 0.44699560332193444
0.3184311949989933 0.457743038593063 0.44699560332193444
0.31861652500083437 0.45481191988275516 0.4479726428920372
0.31883053999990807 0.45481191988275516 0.4450415241817294
0.3190161659986188 0.4528578407425501 0.44406448461162684
0.3192016440007137 0.4538348803126526 0.4450415241817294
0.31938721500046086 0.44992672203224227 0.4479726428920372
0.31958211899836897 0.45188080117244755 0.4528578407425501
0.3197704669983068 0.44992672203224227 0.44894968246213973
0.31995553800152265 0.4479726428920372 0.44894968246213973
0.32014153500131215 0.44894968246213973 0.4460185637518319
0.320339771998988 0.45188080117244755 0.44699560332193444
0.32052612099869293 0.4509037616023448 0.44406448461162684
0.32071167300091474 0.44894968246213973 0.441133365901319
0.320896854998864 0.44894968246213973 0.44211040547142155
0.3210826479989919 0.4509037616023448 0.4401563263312165
0.3212682550001773 0.4557889594528579 0.4382022471910112
0.3214541589986766 0.4538348803126526 0.43917928676111373
0.3216400259989314 0.4528578407425501 0.43917928676111373
0.32182596799975727 0.44894968246213973 0.44406448461162684
0.3220114089999697 0.44992672203224227 0.44699560332193444
0.3221969049991458 0.44699560332193444 0.4479726428920372
0.3223822719992313 0.4460185637518319 0.4450415241817294
0.32258034299957217 0.45188080117244755 0.44894968246213973
0.32276650600033463 0.4587200781631655 0.4538348803126526
0.3229747059995134 0.4636052760136786 0.4557889594528579
0.32316112899934524 0.4655593551538837 0.45481191988275516
0.32334610700127087 0.46262823644357587 0.4606741573033708
0.32353208499989705 0.46946751343429405 0.4606741573033708
0.3237174329988193 0.46946751343429405 0.4655593551538837
0.32390204100011033 0.467513434294089 0.467513434294089
0.32408813100119005 0.46946751343429405 0.4733756717147044
0.32427397900028154 0.46946751343429405 0.4763067904250122
0.3244637719981256 0.4704445530043966 0.47923790913532005
0.32464995400005137 0.4704445530043966 0.4909623839765511
0.3248397470015334 0.46262823644357587 0.48412310698583294
0.3250394470014726 0.4636052760136786 0.48705422569614076
0.3259903559992381 0.44992672203224227 0.4831460674157304
0.3262578879985085 0.4430874450415241 0.4782608695652173
0.32645840300028794 0.4450415241817294 0.4753297508549097
0.32665467699916917 0.4450415241817294 0.47142159257449934
0.3268491919989174 0.4460185637518319 0.46946751343429405
0.32704653999826405 0.4460185637518319 0.46458231558378116
0.3275013279999257 0.4479726428920372 0.4509037616023448
0.32836897900051554 0.4401563263312165 0.4479726428920372
0.32859191999887116 0.43917928676111373 0.4450415241817294
0.32878232399889384 0.4401563263312165 0.4430874450415241
0.3289716170002066 0.44211040547142155 0.43917928676111373
0.3291607799983467 0.44992672203224227 0.4401563263312165
0.3293488140006957 0.45481191988275516 0.4382022471910112
0.32953886600080295 0.45676599902296044 0.43624816805080613
0.3297288989997469 0.46458231558378116 0.43429408891060084
0.32991895099985413 0.467513434294089 0.4401563263312165
0.3301083929982269 0.4665363947239862 0.4333170493404983
0.33029551900108345 0.4665363947239862 0.43624816805080613
0.3304819779987156 0.46262823644357587 0.4333170493404983
0.3306692900005146 0.4587200781631655 0.4303859306301905
0.33085650900102337 0.457743038593063 0.42745481191988266
0.33104306099994574 0.4557889594528579 0.4284318514899854
0.331230002000666 0.4528578407425501 0.4264777723497801
0.33141738699850976 0.44992672203224227 0.42745481191988266
0.3316047170010279 0.4479726428920372 0.4303859306301905
0.3317941960012831 0.4450415241817294 0.4352711284807034
0.3319816740004171 0.4430874450415241 0.44211040547142155
0.33216878099847236 0.44211040547142155 0.4450415241817294
0.3323648330006108 0.43429408891060084 0.44992672203224227
0.3325600520001899 0.43429408891060084 0.4509037616023448
0.33275082600084716 0.42940889106008795 0.45481191988275516
0.3329421380003623 0.4284318514899854 0.45481191988275516
0.3331322640005965 0.4264777723497801 0.45481191988275516
0.33332200099903275 0.4264777723497801 0.457743038593063
0.3335121279997111 0.4303859306301905 0.45969711773326827
0.3337018279999029 0.42940889106008795 0.45676599902296044
0.33389143599924864 0.4303859306301905 0.45481191988275516
0.3340809689980233 0.4264777723497801 0.45676599902296044
0.3342742620006902 0.42745481191988266 0.4587200781631655
0.33446503600134747 0.42940889106008795 0.45969711773326827
0.33465486600107397 0.4284318514899854 0.4587200781631655
0.3348438259999966 0.42745481191988266 0.46165119687347334
0.33503315599955386 0.42745481191988266 0.4636052760136786
0.3352235780002957 0.42745481191988266 0.4606741573033708
0.3354131669984781 0.4284318514899854 0.45481191988275516
0.33560270100133494 0.4284318514899854 0.4528578407425501
0.33579203100089217 0.4284318514899854 0.44699560332193444
0.3359820279983978 0.4255007327796776 0.44406448461162684
0.33617219100051443 0.4264777723497801 0.44211040547142155
0.3363633539993316 0.42745481191988266 0.4382022471910112
0.3365721839982143 0.42940889106008795 0.43917928676111373
0.33677069899931666 0.42940889106008795 0.44992672203224227
0.33695889899900067 0.43429408891060084 0.45676599902296044
0.33714656200027093 0.4382022471910112 0.457743038593063
0.33733322500120266 0.4352711284807034 0.4587200781631655
0.3375208699981158 0.43624816805080613 0.4606741573033708
0.337711144999048 0.4401563263312165 0.45676599902296044
0.33789978899949347 0.4450415241817294 0.4528578407425501
0.33809124899926246 0.45188080117244755 0.44699560332193444
0.3382787080008711 0.45676599902296044 0.4333170493404983
0.33846609399915906 0.4636052760136786 0.4206155349291647
0.3386547199988854 0.4704445530043966 0.412799218368344
0.3388425869998173 0.4733756717147044 0.4079140205178309
0.3390302879997762 0.46946751343429405 0.40205178309721545
0.33923920999950496 0.4763067904250122 0.4040058622374205
0.3394603169981565 0.47923790913532005 0.41670737664875435
0.33969010899818386 0.4802149487054226 0.4176844162188569
0.3398944020009367 0.48216902784562765 0.4284318514899854
0.3400850830003037 0.4851001465559355 0.4323400097703958
0.3402742100006435 0.4831460674157304 0.4382022471910112
0.34047066899802303 0.48705422569614076 0.441133365901319
0.3406645729992306 0.4851001465559355 0.4479726428920372
0.3408558470000571 0.48412310698583294 0.45188080117244755
0.3410515100003977 0.4851001465559355 0.4557889594528579
0.34125576600126806 0.4802149487054226 0.46165119687347334
0.34144935500080464 0.47728382999511476 0.4636052760136786
0.3416411660000449 0.47142159257449934 0.46946751343429405
0.34184869999808143 0.4655593551538837 0.4704445530043966
0.34204836299977615 0.46262823644357587 0.4684904738641915
0.3422489330005192 0.46262823644357587 0.467513434294089
0.34245013300096616 0.46165119687347334 0.4704445530043966
0.34265166700060945 0.4655593551538837 0.46946751343429405
0.3428539410015219 0.4606741573033708 0.46946751343429405
0.3430541230009112 0.4587200781631655 0.4665363947239862
0.3432534150015272 0.45481191988275516 0.467513434294089
0.3434620599982736 0.457743038593063 0.46458231558378116
0.3436651490010263 0.44992672203224227 0.4684904738641915
0.34387783000056515 0.4479726428920372 0.467513434294089
0.34408234500006074 0.44699560332193444 0.46946751343429405
0.3442800820012053 0.4460185637518319 0.467513434294089
0.34450237399869366 0.44699560332193444 0.4665363947239862
0.34472881499823416 0.4479726428920372 0.47142159257449934
0.3449564590009686 0.44992672203224227 0.467513434294089
0.34518458399907104 0.4460185637518319 0.467513434294089
0.3454808200003754 0.4430874450415241 0.47239863214460187
0.34567874200001825 0.441133365901319 0.47239863214460187
0.3460708649981825 0.43429408891060084 0.4684904738641915
0.3467359269998269 0.43624816805080613 0.46262823644357587
0.34772898300070665 0.4235466536394723 0.44992672203224227
0.34821760400154744 0.4235466536394723 0.441133365901319
0.34911631000068155 0.4333170493404983 0.4157303370786516
0.34936236100111273 0.431362970200293 0.4176844162188569
0.34955406099834363 0.43429408891060084 0.4284318514899854
0.34974424299798557 0.43722520762090866 0.4382022471910112
0.34993472099813516 0.43429408891060084 0.4509037616023448
0.35012403200016706 0.43429408891060084 0.45969711773326827
0.35031204700135277 0.43722520762090866 0.4606741573033708
0.35050011799830827 0.43722520762090866 0.46262823644357587
0.35068793000027654 0.44211040547142155 0.46165119687347334
0.3508755930015468 0.44406448461162684 0.46165119687347334
0.3510806820013386 0.44992672203224227 0.45676599902296044
0.3512787149993528 0.4509037616023448 0.4557889594528579
0.35148269300043467 0.45481191988275516 0.4450415241817294
0.35172328100088635 0.4528578407425501 0.4382022471910112
0.35194581399991876 0.4509037616023448 0.42745481191988266
0.3521561810011917 0.45188080117244755 0.42159257449926724
0.35237971400056267 0.45188080117244755 0.42159257449926724
0.3525783959994442 0.44211040547142155 0.42940889106008795
0.35277866999967955 0.44211040547142155 0.44211040547142155
0.3529857399989851 0.441133365901319 0.44992672203224227
0.35319368099953863 0.43917928676111373 0.4636052760136786
0.35340075099884416 0.43917928676111373 0.47435271128480694
0.3536006180002005 0.4401563263312165 0.4851001465559355
0.35384268800044083 0.4352711284807034 0.4929164631167562
0.3540529800011427 0.43722520762090866 0.49682462139716654
0.3542453289992409 0.4401563263312165 0.4929164631167562
0.35444151000046986 0.43722520762090866 0.49193942354665365
0.35464589500043076 0.43624816805080613 0.4880312652662433
0.35484046599958674 0.44406448461162684 0.48216902784562765
0.35502848100077244 0.4460185637518319 0.4753297508549097
0.35521634799806634 0.4430874450415241 0.467513434294089
0.35540462200151524 0.44406448461162684 0.4606741573033708
0.35559219299830147 0.44699560332193444 0.44992672203224227
0.35582746699947165 0.44894968246213973 0.4352711284807034
0.3560182600012922 0.4479726428920372 0.4303859306301905
0.3562070900006802 0.44992672203224227 0.42256961406936977
0.3564726399999927 0.4538348803126526 0.42256961406936977
0.35666200700143236 0.45481191988275516 0.42256961406936977
0.3568493560014758 0.46262823644357587 0.4235466536394723
0.3570357040007366 0.45969711773326827 0.4264777723497801
0.3572227929980727 0.45969711773326827 0.42745481191988266
0.35741156799849705 0.46262823644357587 0.42745481191988266
0.3576008979980543 0.4606741573033708 0.4352711284807034
0.35778883899911307 0.4606741573033708 0.43917928676111373
0.3579762609988393 0.46262823644357587 0.44211040547142155
0.3581638319992635 0.46165119687347334 0.44406448461162684
0.3583544399989478 0.45969711773326827 0.441133365901319
0.3585485660005361 0.46458231558378116 0.4382022471910112
0.3587360620003892 0.46165119687347334 0.43624816805080613
0.3589229669996712 0.46165119687347334 0.43624816805080613
0.3591170190011326 0.467513434294089 0.4303859306301905
0.3593042559987225 0.467513434294089 0.42940889106008795
0.35949251200145227 0.4665363947239862 0.4255007327796776
0.3596811200004595 0.4665363947239862 0.4264777723497801
0.3598677090012643 0.4684904738641915 0.42256961406936977
0.3600666310012457 0.4733756717147044 0.4186614557889594
0.36029803400015226 0.4753297508549097 0.4235466536394723
0.3605574190005427 0.4763067904250122 0.42940889106008795
0.3607708960007585 0.4763067904250122 0.43722520762090866
0.3609935589993256 0.4753297508549097 0.45188080117244755
0.36133938599959947 0.4733756717147044 0.4606741573033708
0.3615598079995834 0.467513434294089 0.46946751343429405
0.3617599530007283 0.4655593551538837 0.47435271128480694
0.36194896799861453 0.46165119687347334 0.4733756717147044
0.36213544600104797 0.45969711773326827 0.4782608695652173
0.3623242569992726 0.457743038593063 0.47239863214460187
0.3625121240002045 0.4538348803126526 0.4733756717147044
0.36269913900105166 0.4538348803126526 0.4684904738641915
0.3628858209995087 0.45676599902296044 0.4704445530043966
0.363076428999193 0.45481191988275516 0.4733756717147044
0.36326329599978635 0.45188080117244755 0.47239863214460187
0.36344999599896255 0.44894968246213973 0.46946751343429405
0.36366690000068047 0.4479726428920372 0.4704445530043966
0.36385585899915895 0.44992672203224227 0.4665363947239862
0.36404259700066177 0.4538348803126526 0.4655593551538837
0.3642297599981248 0.4528578407425501 0.46262823644357587
0.36444862599819317 0.4528578407425501 0.45188080117244755
0.36477141700015636 0.46165119687347334 0.44699560332193444
0.36497033900013776 0.46458231558378116 0.441133365901319
0.36515907699867967 0.4684904738641915 0.4382022471910112
0.36534948099870235 0.4665363947239862 0.4323400097703958
0.3655375140006072 0.4704445530043966 0.4303859306301905
0.36572465900098905 0.467513434294089 0.42745481191988266
0.36591446999955224 0.4655593551538837 0.431362970200293
0.36610222599847475 0.4655593551538837 0.431362970200293
0.36628931499944883 0.4606741573033708 0.4333170493404983
0.36647597900082474 0.457743038593063 0.4382022471910112
0.36666269800116424 0.4528578407425501 0.4284318514899854
0.3668492500000866 0.45188080117244755 0.42256961406936977
0.36703622799905133 0.4538348803126526 0.41475329750854906
0.36722283600101946 0.44894968246213973 0.4137762579384465
0.36741096200057655 0.44992672203224227 0.4108451392281387
0.36759949599945685 0.44992672203224227 0.4108451392281387
0.36778612199850613 0.4479726428920372 0.41475329750854906
0.36797273000047426 0.4430874450415241 0.4206155349291647
0.36815994800053886 0.4430874450415241 0.42159257449926724
0.36835068599975784 0.44406448461162684 0.4235466536394723
0.3685402189985325 0.441133365901319 0.4235466536394723
0.36872703100016224 0.441133365901319 0.42452369320957506
0.3689144349991693 0.441133365901319 0.4284318514899854
0.3691004319989588 0.44211040547142155 0.4303859306301905
0.36928714999885415 0.44211040547142155 0.43429408891060084
0.3694740360006108 0.4479726428920372 0.4460185637518319
0.36966108799970243 0.44406448461162684 0.44211040547142155
0.36984806599866715 0.44211040547142155 0.44992672203224227
0.3700623959994118 0.44211040547142155 0.4479726428920372
0.37024952199863037 0.4401563263312165 0.44992672203224227
0.37043598200034467 0.43917928676111373 0.4538348803126526
0.3706222750006418 0.43917928676111373 0.4606741573033708
0.3708086229999026 0.4430874450415241 0.4606741573033708
0.3709949340009189 0.4460185637518319 0.4665363947239862
0.37118226399979903 0.44406448461162684 0.4704445530043966
0.3713695389997156 0.4528578407425501 0.4802149487054226
0.37155610999980127 0.4557889594528579 0.4704445530043966
0.3717425690010714 0.4538348803126526 0.47728382999511476
0.37192904699986684 0.45676599902296044 0.47923790913532005
0.3721154140002909 0.45969711773326827 0.4811919882755251
0.3723027070009266 0.45969711773326827 0.4851001465559355
0.37250314799894113 0.457743038593063 0.4831460674157304
0.3726939219995984 0.45188080117244755 0.4851001465559355
0.37289225199856446 0.45481191988275516 0.48412310698583294
0.37338574300156324 0.4479726428920372 0.48900830483634583
0.3735780729984981 0.441133365901319 0.4880312652662433
0.3737657550009317 0.4401563263312165 0.48412310698583294
0.37395243699938874 0.4401563263312165 0.48412310698583294
0.37414200700004585 0.4382022471910112 0.4851001465559355
0.37437057699935394 0.43722520762090866 0.4909623839765511
0.3745584999996936 0.43624816805080613 0.48900830483634583
0.37474531100087916 0.4401563263312165 0.48705422569614076
0.37493240099865943 0.44211040547142155 0.4802149487054226
0.3751196939992951 0.44406448461162684 0.4636052760136786
0.3757237380013976 0.44992672203224227 0.4587200781631655
0.3759415310014447 0.45188080117244755 0.45188080117244755
0.37614835999920615 0.4460185637518319 0.4509037616023448
0.3766498139993928 0.4450415241817294 0.457743038593063
0.3781169729991234 0.44992672203224227 0.44699560332193444
0.3783733759992174 0.4528578407425501 0.44211040547142155
0.37857989099939005 0.4528578407425501 0.4382022471910112
0.37877971999841975 0.4538348803126526 0.42940889106008795
0.3789899020011944 0.4587200781631655 0.42745481191988266
0.3791906199985533 0.4587200781631655 0.4255007327796776
0.37944087500000023 0.45676599902296044 0.42256961406936977
0.3802241759985918 0.4587200781631655 0.431362970200293
0.3813785620004637 0.45481191988275516 0.4430874450415241
0.38199001400062116 0.4479726428920372 0.43917928676111373
0.3822025109984679 0.4479726428920372 0.43429408891060084
0.3823964139992313 0.4450415241817294 0.4323400097703958
0.3825882070013904 0.45188080117244755 0.4303859306301905
0.38277788900086307 0.4528578407425501 0.431362970200293
0.38296666300084325 0.44992672203224227 0.4382022471910112
0.3831550489994697 0.4538348803126526 0.43624816805080613
0.383344786001544 0.45969711773326827 0.44406448461162684
0.38353557899972657 0.44894968246213973 0.4430874450415241
0.38372800200158963 0.44992672203224227 0.44894968246213973
0.3839158500013582 0.4460185637518319 0.4528578407425501
0.38410393899903283 0.4460185637518319 0.4655593551538837
0.3842918800000916 0.4479726428920372 0.46262823644357587
0.3845155800008797 0.4479726428920372 0.4636052760136786
0.3847037060004368 0.4430874450415241 0.467513434294089
0.3848914810005226 0.44699560332193444 0.4684904738641915
0.38507842200124287 0.4460185637518319 0.4684904738641915
0.3852655480004614 0.4460185637518319 0.4684904738641915
0.3854561369989824 0.44992672203224227 0.4655593551538837
0.3856441520001681 0.4479726428920372 0.4587200781631655
0.3858659079996869 0.4460185637518319 0.457743038593063
0.38605366299816524 0.4479726428920372 0.45969711773326827
0.3862408269997104 0.44699560332193444 0.4528578407425501
0.38642841600085376 0.44699560332193444 0.4430874450415241
0.3866153939998185 0.44992672203224227 0.4352711284807034
0.3868036130006658 0.4528578407425501 0.4323400097703958
0.386990312999842 0.4509037616023448 0.431362970200293
0.38717821699901833 0.4538348803126526 0.42940889106008795
0.3873652510010288 0.45676599902296044 0.4323400097703958
0.38755250699978205 0.4557889594528579 0.44211040547142155
0.3877394849987468 0.45676599902296044 0.4479726428920372
0.387926019000588 0.45676599902296044 0.45676599902296044
0.38811296000130824 0.4587200781631655 0.46165119687347334
0.3882993639999768 0.457743038593063 0.47142159257449934
0.38850206400093157 0.45481191988275516 0.47142159257449934
0.3886889120003616 0.457743038593063 0.4782608695652173
0.38887701999919955 0.4528578407425501 0.4763067904250122
0.38906446100008907 0.44992672203224227 0.47728382999511476
0.3892512540005555 0.44894968246213973 0.4763067904250122
0.3894383619990549 0.4430874450415241 0.47142159257449934
0.38962567300040973 0.44406448461162684 0.46946751343429405
0.38981265099937445 0.4430874450415241 0.467513434294089
0.3900084999986575 0.4352711284807034 0.467513434294089
0.3902057179984695 0.4382022471910112 0.46458231558378116
0.3904037520005659 0.43624816805080613 0.4528578407425501
0.3905978219991084 0.441133365901319 0.4509037616023448
0.3907952080007817 0.441133365901319 0.44992672203224227
0.39098277800076175 0.44699560332193444 0.4479726428920372
0.3911702939985844 0.4460185637518319 0.44699560332193444
0.39135795699985465 0.44894968246213973 0.4509037616023448
0.3915446940009133 0.4528578407425501 0.4557889594528579
0.3917353200013167 0.4587200781631655 0.45676599902296044
0.3919363909990352 0.45969711773326827 0.45969711773326827
0.39212331299859216 0.46262823644357587 0.45969711773326827
0.3923441799997818 0.4665363947239862 0.46165119687347334
0.3925386390001222 0.4733756717147044 0.46165119687347334
0.3927269689993409 0.4763067904250122 0.4606741573033708
0.39291598400086514 0.4831460674157304 0.457743038593063
0.3931035370005702 0.486077186126038 0.44992672203224227
0.393293237000762 0.4880312652662433 0.4528578407425501
0.3934917519982264 0.4909623839765511 0.44894968246213973
0.39392561400018167 0.49975574010747437 0.44211040547142155
0.39421868299905327 0.49975574010747437 0.441133365901319
0.39444042000104673 0.49975574010747437 0.4382022471910112
0.3946447870002885 0.4978016609672691 0.4401563263312165
0.3948421530003543 0.4948705422569615 0.43917928676111373
0.39503364999836776 0.4938935026868587 0.43917928676111373
0.39522211000075913 0.4909623839765511 0.4450415241817294
0.39541031000044313 0.4880312652662433 0.4450415241817294
0.39559728799940785 0.4880312652662433 0.44406448461162684
0.39578398799858405 0.4811919882755251 0.44894968246213973
0.3959719660015253 0.47728382999511476 0.44894968246213973
0.3961586849982268 0.47923790913532005 0.4509037616023448
0.39637840399882407 0.4636052760136786 0.45676599902296044
0.3965688450007292 0.45676599902296044 0.4557889594528579
0.3967561190002016 0.44992672203224227 0.4509037616023448
0.39694354200037196 0.4401563263312165 0.4528578407425501
0.3971303530015575 0.43722520762090866 0.44894968246213973
0.3973170899989782 0.4323400097703958 0.44211040547142155
0.3975047909989371 0.42745481191988266 0.4460185637518319
0.3976927319999959 0.4255007327796776 0.44406448461162684
0.39788145100101246 0.4206155349291647 0.44699560332193444
0.3980703919987718 0.4176844162188569 0.44699560332193444
0.398258443998202 0.41182217879824123 0.4479726428920372
0.39844832900053007 0.4108451392281387 0.44699560332193444
0.39863536299890256 0.4049829018075233 0.4460185637518319
0.39882304500133614 0.4040058622374205 0.4382022471910112
0.3990118010005972 0.4010747435271129 0.43624816805080613
0.39919970499977353 0.40009770395701016 0.4284318514899854
0.3993869980004092 0.4010747435271129 0.42159257449926724
0.3995731610011717 0.4010747435271129 0.42256961406936977
0.39975982399846544 0.4010747435271129 0.41963849535906195
0.39994641299927025 0.3952125061064973 0.41963849535906195
0.4001342429983197 0.39912066438690763 0.4235466536394723
0.4003310359985335 0.39716658524670256 0.42940889106008795
0.4005221810002695 0.39423546653639474 0.4333170493404983
0.4007092889987689 0.39912066438690763 0.43917928676111373
0.40089558199906605 0.4010747435271129 0.43917928676111373
0.4010827819984115 0.3981436248168051 0.43624816805080613
0.4012706489993434 0.403028822667318 0.43429408891060084
0.40145721999942907 0.4049829018075233 0.43624816805080613
0.401644141998986 0.40693698094772834 0.44211040547142155
0.4018309169987333 0.40693698094772834 0.44894968246213973
0.40201850599987665 0.40986809965803617 0.44699560332193444
0.4022258350014454 0.4079140205178309 0.4509037616023448
0.40241261000119266 0.4108451392281387 0.45481191988275516
0.4025988100001996 0.4157303370786516 0.4636052760136786
0.40278554799806443 0.4137762579384465 0.467513434294089
0.40297254400138627 0.41963849535906195 0.47142159257449934
0.4031584109980031 0.4186614557889594 0.4763067904250122
0.40334633399834274 0.4235466536394723 0.47923790913532005
0.40353259000039543 0.431362970200293 0.4782608695652173
0.40371928999957163 0.43624816805080613 0.4811919882755251
0.40390580500024953 0.43624816805080613 0.4811919882755251
0.40409202400041977 0.4460185637518319 0.4831460674157304
0.4042789279992576 0.4460185637518319 0.4811919882755251
0.40446986900133197 0.4509037616023448 0.4753297508549097
0.4046564579984988 0.4509037616023448 0.4684904738641915
0.4048430289985845 0.44992672203224227 0.4665363947239862
0.4050293399996008 0.457743038593063 0.4704445530043966
0.4052165219982271 0.45676599902296044 0.46458231558378116
0.40540379699814366 0.457743038593063 0.4665363947239862
0.4055906079993292 0.4606741573033708 0.47142159257449934
0.40577965999909793 0.46165119687347334 0.4733756717147044
0.4059773420012789 0.46262823644357587 0.47435271128480694
0.406164430998615 0.45969711773326827 0.47142159257449934
0.40635081700020237 0.46458231558378116 0.47142159257449934
0.40653762800138793 0.4606741573033708 0.467513434294089
0.40672501399967587 0.4606741573033708 0.46165119687347334
0.4069120099993597 0.45969711773326827 0.4528578407425501
0.40709887699995306 0.4587200781631655 0.4538348803126526
0.40728505899824086 0.46262823644357587 0.44894968246213973
0.40747159300008207 0.4655593551538837 0.44894968246213973
0.4076580520013522 0.4636052760136786 0.44992672203224227
0.4078444010010571 0.46262823644357587 0.4528578407425501
0.40803098999822396 0.4655593551538837 0.457743038593063
0.4082174869981827 0.46458231558378116 0.4528578407425501
0.40842626100129564 0.4606741573033708 0.46165119687347334
0.4089676399999007 0.4587200781631655 0.45969711773326827
0.40918174699982046 0.45969711773326827 0.457743038593063
0.40941948399995454 0.4587200781631655 0.45481191988275516
0.40961707300084527 0.457743038593063 0.45481191988275516
0.40984341999865137 0.4557889594528579 0.45188080117244755
0.4100664159996086 0.4557889594528579 0.45188080117244755
0.4102650239983632 0.4509037616023448 0.4479726428920372
0.4104863899992779 0.4557889594528579 0.44211040547142155
0.4108967899992422 0.4557889594528579 0.42940889106008795
0.4121347309992416 0.4636052760136786 0.43722520762090866
0.41245066999908886 0.46262823644357587 0.4450415241817294
0.4126656289990933 0.46165119687347334 0.4509037616023448
0.4128636440000264 0.457743038593063 0.4587200781631655
0.4145859089985606 0.44894968246213973 0.46262823644357587
0.41500654999981634 0.4460185637518319 0.46458231558378116
0.4152408230002038 0.44894968246213973 0.4684904738641915
0.41543646799982525 0.4460185637518319 0.4665363947239862
0.41562500199870556 0.4450415241817294 0.46262823644357587
0.4158130910000182 0.44211040547142155 0.46262823644357587
0.416000402001373 0.44406448461162684 0.4606741573033708
0.41618778799966094 0.44211040547142155 0.45481191988275516
0.4163817469998321 0.44699560332193444 0.4538348803126526
0.4165702620011871 0.4450415241817294 0.4450415241817294
0.4167577590014844 0.44894968246213973 0.44699560332193444
0.4169442929996876 0.4479726428920372 0.43917928676111373
0.4171336039980815 0.44894968246213973 0.4352711284807034
0.41732078600034583 0.44992672203224227 0.4352711284807034
0.41750874599892995 0.44894968246213973 0.4303859306301905
0.4176969270010886 0.45188080117244755 0.431362970200293
0.41788410899971495 0.44992672203224227 0.42940889106008795
0.41807073499876424 0.4528578407425501 0.4323400097703958
0.41825737999897683 0.4509037616023448 0.43624816805080613
0.4184443209996971 0.44699560332193444 0.4284318514899854
0.418630355001369 0.4479726428920372 0.4284318514899854
0.4188168330001645 0.45188080117244755 0.4303859306301905
0.4190030149984523 0.44894968246213973 0.43429408891060084
0.41918901199824177 0.4479726428920372 0.4352711284807034
0.41937473000143655 0.4479726428920372 0.4382022471910112
0.4196041340001102 0.44992672203224227 0.441133365901319
0.41979703800097923 0.44992672203224227 0.4430874450415241
0.4199845160001132 0.4557889594528579 0.441133365901319
0.4201714750015526 0.45969711773326827 0.4382022471910112
0.42035997199855046 0.457743038593063 0.4430874450415241
0.4205476169991016 0.45969711773326827 0.4382022471910112
0.4207348730014928 0.45969711773326827 0.43624816805080613
0.4209214990005421 0.4636052760136786 0.43722520762090866
0.42110844000126235 0.46458231558378116 0.44406448461162684
0.42129547399963485 0.46458231558378116 0.44992672203224227
0.42148185900077806 0.4665363947239862 0.4538348803126526
0.42166926299978513 0.467513434294089 0.4665363947239862
0.4218882780005515 0.4655593551538837 0.47435271128480694
0.4220764230012719 0.4636052760136786 0.47923790913532005
0.4222767709979962 0.4665363947239862 0.48705422569614076
0.42246495300059905 0.4606741573033708 0.48216902784562765
0.422652189998189 0.4636052760136786 0.4831460674157304
0.4228407980008342 0.4606741573033708 0.486077186126038
0.4230299609989743 0.4606741573033708 0.4831460674157304
0.423216623999906 0.4587200781631655 0.48216902784562765
0.4234035839981516 0.45969711773326827 0.47923790913532005
0.42358993200105033 0.4557889594528579 0.4763067904250122
0.4237766879996343 0.45676599902296044 0.47923790913532005
0.4239627399983874 0.45481191988275516 0.4782608695652173
0.424150255999848 0.4557889594528579 0.4753297508549097
0.4243421409992152 0.4528578407425501 0.47142159257449934
0.42453130400099326 0.4528578407425501 0.47435271128480694
0.42471824499807553 0.4538348803126526 0.4684904738641915
0.4249044460011646 0.44992672203224227 0.46262823644357587
0.42509566499938956 0.4538348803126526 0.45969711773326827
0.42528195699924254 0.4587200781631655 0.45188080117244755
0.42546893599865143 0.45969711773326827 0.43917928676111373
0.42565552499945625 0.4655593551538837 0.4284318514899854
0.42584281800009194 0.46165119687347334 0.4176844162188569
0.42602985099802027 0.4636052760136786 0.4108451392281387
0.42621701499956544 0.46262823644357587 0.412799218368344
0.4264039369991224 0.4587200781631655 0.4176844162188569
0.426590581999335 0.4557889594528579 0.4206155349291647
0.4267775230000552 0.4557889594528579 0.4264777723497801
0.4269646860011562 0.4509037616023448 0.431362970200293
0.42715192399919033 0.457743038593063 0.43429408891060084
0.42734056900008 0.44992672203224227 0.4333170493404983
0.42753147300027194 0.44894968246213973 0.4323400097703958
0.42773370999930194 0.44992672203224227 0.431362970200293
0.42793681699913577 0.45188080117244755 0.4284318514899854
0.4281487019979977 0.45481191988275516 0.42452369320957506
0.4283550690015545 0.44992672203224227 0.4264777723497801
0.42854454700136557 0.45481191988275516 0.42940889106008795
0.42873252500066883 0.4479726428920372 0.431362970200293
0.4289202990003105 0.44894968246213973 0.4352711284807034
0.42910699999993085 0.4479726428920372 0.43624816805080613
0.4292941819985572 0.4460185637518319 0.4401563263312165
0.4294812340012868 0.44406448461162684 0.44406448461162684
0.4296683789980307 0.44699560332193444 0.4460185637518319
0.4298546339996392 0.44406448461162684 0.4509037616023448
0.43004315000143833 0.44699560332193444 0.4509037616023448
0.4302588309983548 0.44211040547142155 0.4528578407425501
0.43044704999920214 0.44406448461162684 0.4528578407425501
0.43067445300039253 0.4430874450415241 0.4528578407425501
0.43086876400047913 0.44406448461162684 0.4528578407425501
0.43105827899853466 0.44894968246213973 0.4479726428920372
0.431244423998578 0.44699560332193444 0.44894968246213973
0.43143092099853675 0.4528578407425501 0.44406448461162684
0.4316181210015202 0.44992672203224227 0.4450415241817294
0.4318046549997234 0.44894968246213973 0.44992672203224227
0.43199155899856123 0.4460185637518319 0.4479726428920372
0.4321775370008254 0.4460185637518319 0.4509037616023448
0.43236805199921946 0.44211040547142155 0.45676599902296044
0.43255547499938984 0.441133365901319 0.45969711773326827
0.43274258200108306 0.44406448461162684 0.46458231558378116
0.4329343200006406 0.441133365901319 0.46165119687347334
0.4331226680005784 0.44211040547142155 0.46458231558378116
0.43330875700121396 0.44211040547142155 0.4655593551538837
0.433495754001342 0.4460185637518319 0.46165119687347334
0.43368217700117384 0.44211040547142155 0.4636052760136786
0.4338686549999693 0.4430874450415241 0.45676599902296044
0.4340712439989147 0.4382022471910112 0.4587200781631655
0.4342582220015174 0.43917928676111373 0.45969711773326827
0.4344445149981766 0.4382022471910112 0.4606741573033708
0.43463080799847376 0.43429408891060084 0.46165119687347334
0.43481745299868635 0.441133365901319 0.4528578407425501
0.4350040050012467 0.4382022471910112 0.4538348803126526
0.4351917419990059 0.4430874450415241 0.4528578407425501
0.4353800909993879 0.4401563263312165 0.45188080117244755
0.4355671980010811 0.4430874450415241 0.44894968246213973
0.43575478799903067 0.44992672203224227 0.4509037616023448
0.4359417289997509 0.4479726428920372 0.44699560332193444
0.43612774400025955 0.45188080117244755 0.4450415241817294
0.43633318499996676 0.44894968246213973 0.4460185637518319
0.4365230330004124 0.45676599902296044 0.441133365901319
0.43670984399796 0.45481191988275516 0.441133365901319
0.436918858998979 0.4538348803126526 0.43624816805080613
0.4371094300004188 0.45481191988275516 0.43722520762090866
0.43729731499843183 0.4557889594528579 0.4401563263312165
0.4374847379986022 0.4538348803126526 0.4430874450415241
0.43767290100004175 0.45188080117244755 0.4430874450415241
0.43785963900154456 0.4557889594528579 0.44406448461162684
0.4380476170008478 0.45188080117244755 0.4509037616023448
0.4382458170002792 0.4509037616023448 0.45188080117244755
0.4384411649989488 0.4509037616023448 0.4538348803126526
0.43862860599983833 0.45188080117244755 0.45969711773326827
0.4388158250003471 0.4509037616023448 0.46262823644357587
0.4390408020008181 0.44894968246213973 0.4655593551538837
0.43923009499849286 0.44894968246213973 0.4684904738641915
0.4394173510008841 0.44406448461162684 0.4587200781631655
0.4396042740008852 0.4479726428920372 0.457743038593063
