0 0.44406448461162684 0.45188080117244755
0.000330735001625726 0.4479726428920372 0.45188080117244755
0.0005384899995988235 0.44894968246213973 0.4509037616023448
0.0007353940018219873 0.4460185637518319 0.4538348803126526
0.0009502419998170808 0.44699560332193444 0.44699560332193444
0.0011520350017235614 0.44406448461162684 0.44894968246213973
0.0013432910018309485 0.4430874450415241 0.4479726428920372
0.0015308239999285433 0.44406448461162684 0.4460185637518319
0.0017179880014737137 0.43917928676111373 0.4401563263312165
0.001906410001538461 0.43722520762090866 0.4333170493404983
0.0020956660009687766 0.44211040547142155 0.4352711284807034
0.002281569999468047 0.43624816805080613 0.4333170493404983
0.0024672889994690195 0.43624816805080613 0.43917928676111373
0.0026532480005698744 0.43722520762090866 0.43917928676111373
0.002839226999640232 0.43722520762090866 0.44699560332193444
0.003024649002327351 0.43624816805080613 0.4509037616023448
0.0032107379993249197 0.4333170493404983 0.45481191988275516
0.003398734999791486 0.43429408891060084 0.45676599902296044
0.0035836570023093373 0.43624816805080613 0.4606741573033708
0.003769432001718087 0.4401563263312165 0.4606741573033708
0.003954725001676707 0.4382022471910112 0.4606741573033708
0.0041405360025237314 0.4450415241817294 0.46165119687347334
0.0043271440008538775 0.4479726428920372 0.4655593551538837
0.004512121999141527 0.4479726428920372 0.45969711773326827
0.004697119002230465 0.44992672203224227 0.4587200781631655
0.004882097000518115 0.4450415241817294 0.45969711773326827
0.0050665570015553385 0.4460185637518319 0.457743038593063
0.005251201000646688 0.4430874450415241 0.4538348803126526
0.005437161002191715 0.4382022471910112 0.4528578407425501
0.005621713000437012 0.4333170493404983 0.45188080117244755
0.005807025001558941 0.42745481191988266 0.44894968246213973
0.005992910002532881 0.42159257449926724 0.45188080117244755
0.006177850998938084 0.4186614557889594 0.4460185637518319
0.0063662180000392254 0.41963849535906195 0.44699560332193444
0.006551844002387952 0.42159257449926724 0.4450415241817294
0.006737989002431277 0.4284318514899854 0.4538348803126526
0.006923226999788312 0.4303859306301905 0.44699560332193444
0.007108279001840856 0.43429408891060084 0.4509037616023448
0.007293368002137868 0.43624816805080613 0.4587200781631655
0.007478439001715742 0.4401563263312165 0.46165119687347334
0.007662750002054963 0.441133365901319 0.4636052760136786
0.007854913001210662 0.441133365901319 0.4587200781631655
0.008056688002398005 0.44211040547142155 0.45676599902296044
0.008259610000095563 0.4450415241817294 0.4538348803126526
0.008474623999063624 0.4479726428920372 0.44699560332193444
0.008675658002175624 0.45188080117244755 0.44699560332193444
0.008876210002199514 0.45188080117244755 0.45188080117244755
0.009070873002201552 0.4538348803126526 0.4528578407425501
0.009322182999312645 0.45676599902296044 0.457743038593063
0.009522254000330577 0.4636052760136786 0.45676599902296044
0.009720620000734925 0.46262823644357587 0.46262823644357587
0.00991550600156188 0.4655593551538837 0.457743038593063
0.01010731700080214 0.4665363947239862 0.45676599902296044
0.010305146999598946 0.467513434294089 0.457743038593063
0.010529513001529267 0.47239863214460187 0.45481191988275516
0.010726232001616154 0.4733756717147044 0.4538348803126526
0.010918173000391107 0.47435271128480694 0.4557889594528579
0.011109095001302194 0.4763067904250122 0.45481191988275516
0.011300461999780964 0.4733756717147044 0.4587200781631655
0.011491810000734404 0.4753297508549097 0.457743038593063
0.01170149199970183 0.47435271128480694 0.4587200781631655
0.011898247001226991 0.47142159257449934 0.4636052760136786
0.012094985002477188 0.46458231558378116 0.46458231558378116
0.012312999002460856 0.457743038593063 0.4655593551538837
0.012514533002104145 0.45676599902296044 0.46165119687347334
0.012747565000609029 0.4450415241817294 0.46165119687347334
0.012981505999050569 0.4382022471910112 0.46165119687347334
0.013198112999816658 0.43624816805080613 0.4587200781631655
0.013393201999861049 0.43722520762090866 0.4557889594528579
0.013600476002466166 0.43429408891060084 0.45481191988275516
0.013832841999828815 0.441133365901319 0.45188080117244755
0.014048523000383284 0.44699560332193444 0.4538348803126526
0.01426550100222812 0.4538348803126526 0.45481191988275516
0.014524107002216624 0.46165119687347334 0.4557889594528579
0.014804787002503872 0.467513434294089 0.4538348803126526
0.015021191000414547 0.46946751343429405 0.457743038593063
0.01521466900157975 0.46165119687347334 0.46458231558378116
0.015422369000589242 0.4557889594528579 0.46946751343429405
0.015617680001014378 0.44992672203224227 0.48216902784562765
0.015804251001100056 0.44211040547142155 0.47239863214460187
0.015990192001481773 0.43624816805080613 0.4763067904250122
0.016180151000298792 0.4284318514899854 0.4831460674157304
0.01636783299909439 0.42940889106008795 0.47923790913532005
0.016554903999349335 0.4284318514899854 0.47923790913532005
0.016739734001021134 0.42745481191988266 0.47142159257449934
0.016926711999985855 0.4333170493404983 0.4684904738641915
0.01712498599954415 0.43624816805080613 0.4636052760136786
0.017339390000415733 0.43917928676111373 0.45969711773326827
0.01754312699995353 0.4528578407425501 0.457743038593063
0.01791363799929968 0.4557889594528579 0.45969711773326827
0.018117135001375573 0.4538348803126526 0.4606741573033708
0.0183100940012082 0.46165119687347334 0.45969711773326827
0.01849881300222478 0.45676599902296044 0.457743038593063
0.018689291002374375 0.4528578407425501 0.4557889594528579
0.018875640002079308 0.4528578407425501 0.4528578407425501
0.0190616729996691 0.44992672203224227 0.4538348803126526
0.019249003002187237 0.44992672203224227 0.4538348803126526
0.01943533300072886 0.45188080117244755 0.4509037616023448
0.019621162999101216 0.44699560332193444 0.4538348803126526
0.01980747400011751 0.4509037616023448 0.44992672203224227
0.019994860002043424 0.44894968246213973 0.4479726428920372
0.020224096999299945 0.45188080117244755 0.4430874450415241
0.020415482002135832 0.44992672203224227 0.43917928676111373
0.020602534001227468 0.45481191988275516 0.43624816805080613
0.020788383000763133 0.45676599902296044 0.43429408891060084
0.02097482400131412 0.4528578407425501 0.431362970200293
0.021164580000913702 0.4528578407425501 0.43722520762090866
0.02139290900231572 0.4538348803126526 0.4401563263312165
0.021579201998974895 0.4528578407425501 0.441133365901319
0.021765568999398965 0.4538348803126526 0.44211040547142155
0.021950399001070764 0.45188080117244755 0.44211040547142155
0.02213622899944312 0.44894968246213973 0.44894968246213973
0.022322762000840157 0.44992672203224227 0.4557889594528579
0.022509148002427537 0.44699560332193444 0.45481191988275516
0.022695996001857566 0.4538348803126526 0.4606741573033708
0.0228815480004414 0.4460185637518319 0.46458231558378116
0.023067341000569286 0.4479726428920372 0.46165119687347334
0.023253060000570258 0.44211040547142155 0.45676599902296044
0.02343987200219999 0.4460185637518319 0.4538348803126526
0.023625387002539355 0.441133365901319 0.44406448461162684
0.023810161001165397 0.43917928676111373 0.43624816805080613
0.023996158000954892 0.4401563263312165 0.42159257449926724
0.024200691001169616 0.4430874450415241 0.40986809965803617
0.024387558001762955 0.44211040547142155 0.4079140205178309
0.024573665999923833 0.4450415241817294 0.4108451392281387
0.02475931099979789 0.4460185637518319 0.41670737664875435
0.024944622000475647 0.4460185637518319 0.42452369320957506
0.02513050800189376 0.43917928676111373 0.42940889106008795
0.02532276300189551 0.43429408891060084 0.441133365901319
0.025509222999971826 0.42940889106008795 0.4479726428920372
0.025699923000502167 0.42940889106008795 0.4509037616023448
0.025886309002089547 0.42745481191988266 0.45969711773326827
0.026072193999425508 0.4303859306301905 0.4587200781631655
0.026269783000316238 0.4284318514899854 0.46165119687347334
0.026455372000782518 0.43429408891060084 0.46165119687347334
0.026641036001819884 0.4333170493404983 0.46165119687347334
0.026826920999155845 0.4352711284807034 0.46458231558378116
0.027012548001948744 0.43917928676111373 0.46262823644357587
0.027197637002245756 0.4460185637518319 0.45969711773326827
0.02738298500116798 0.4509037616023448 0.45676599902296044
0.027568000001338078 0.45481191988275516 0.45188080117244755
0.027752775000408292 0.4528578407425501 0.44894968246213973
0.027938920000451617 0.457743038593063 0.4430874450415241
0.028135767999629024 0.45969711773326827 0.43722520762090866
0.028322876001766417 0.4655593551538837 0.4352711284807034
0.02850874300202122 0.467513434294089 0.431362970200293
0.02869370199914556 0.47142159257449934 0.4323400097703958
0.028886717002023943 0.47239863214460187 0.4303859306301905
0.029073380999761866 0.4704445530043966 0.4333170493404983
0.029261766001582146 0.4733756717147044 0.4382022471910112
0.029448170000250684 0.4684904738641915 0.44406448461162684
0.029633907000970794 0.4636052760136786 0.44699560332193444
0.02981971900226199 0.45969711773326827 0.45188080117244755
0.030005603999597952 0.44894968246213973 0.4557889594528579
0.030191526999260532 0.4450415241817294 0.457743038593063
0.030377375001990004 0.44699560332193444 0.45676599902296044
0.03056379800182185 0.44406448461162684 0.457743038593063
0.030749479999940377 0.44406448461162684 0.457743038593063
0.03093545800220454 0.4430874450415241 0.4509037616023448
0.031121140000323066 0.4450415241817294 0.4450415241817294
0.031309377001889516 0.4450415241817294 0.44211040547142155
0.03149572600159445 0.44699560332193444 0.43624816805080613
0.03168092600026284 0.4509037616023448 0.4333170493404983
0.031866347999311984 0.44699560332193444 0.431362970200293
0.03205180800068774 0.4430874450415241 0.4333170493404983
0.03223749000244425 0.4430874450415241 0.43624816805080613
0.03242272699935711 0.441133365901319 0.441133365901319
0.032608519999485 0.4382022471910112 0.44211040547142155
0.03279721999933827 0.43917928676111373 0.4460185637518319
0.032996087000356056 0.441133365901319 0.45188080117244755
0.03320173199972487 0.4450415241817294 0.4587200781631655
0.03343072700226912 0.44894968246213973 0.45969711773326827
0.03363379800066468 0.45676599902296044 0.46165119687347334
0.03383233100248617 0.46165119687347334 0.4655593551538837
0.034019735001493245 0.4684904738641915 0.46458231558378116
0.03422102799959248 0.47239863214460187 0.46458231558378116
0.03440859900001669 0.4753297508549097 0.46165119687347334
0.03459481800018693 0.4763067904250122 0.4655593551538837
0.03478046199961682 0.47923790913532005 0.4587200781631655
0.03496616300253663 0.4763067904250122 0.46165119687347334
0.03515151100145886 0.4763067904250122 0.45969711773326827
0.03533704499932355 0.47435271128480694 0.45969711773326827
0.03552226399915526 0.47239863214460187 0.45969711773326827
0.03570766800112324 0.4733756717147044 0.457743038593063
0.03589412700239336 0.467513434294089 0.457743038593063
0.036079531000723364 0.4636052760136786 0.45969711773326827
0.036341951999929734 0.46165119687347334 0.45676599902296044
0.03653841200139141 0.46262823644357587 0.4528578407425501
0.0367335010014358 0.4606741573033708 0.45481191988275516
0.03692910899917479 0.45969711773326827 0.4528578407425501
0.037128734998987056 0.4606741573033708 0.4538348803126526
0.03731562000029953 0.45676599902296044 0.4509037616023448
0.03750243100148509 0.45676599902296044 0.45481191988275516
0.03768826099985745 0.45188080117244755 0.4557889594528579
0.037874387999181636 0.44894968246213973 0.45676599902296044
0.03806031000203802 0.44211040547142155 0.457743038593063
0.03824647399960668 0.44211040547142155 0.457743038593063
0.03843215500091901 0.43917928676111373 0.4528578407425501
0.038619410999672255 0.43722520762090866 0.4557889594528579
0.03880535200005397 0.441133365901319 0.4538348803126526
0.038991386001725914 0.4450415241817294 0.4528578407425501
0.03918123400217155 0.44894968246213973 0.4509037616023448
0.03936682399944402 0.44699560332193444 0.4528578407425501
0.039583820002008 0.4509037616023448 0.45188080117244755
0.03977338999902713 0.4509037616023448 0.44894968246213973
0.03995964600107982 0.4528578407425501 0.44894968246213973
0.04014866099896608 0.44699560332193444 0.44699560332193444
0.040335417001188034 0.4450415241817294 0.4430874450415241
0.04052041400063899 0.44211040547142155 0.43722520762090866
0.040705670002353145 0.4352711284807034 0.4401563263312165
0.04089105499951984 0.43624816805080613 0.431362970200293
0.0410765150008956 0.43429408891060084 0.43722520762090866
0.041262437000114005 0.4382022471910112 0.43429408891060084
0.041447749001235934 0.4479726428920372 0.43917928676111373
0.041633782002463704 0.4460185637518319 0.4382022471910112
0.041819501002464676 0.4538348803126526 0.43624816805080613
0.04200488700007554 0.457743038593063 0.4352711284807034
0.042190902000584174 0.46165119687347334 0.43722520762090866
0.04239497200251208 0.46458231558378116 0.43624816805080613
0.042580912999255816 0.45969711773326827 0.43917928676111373
0.04276642900003935 0.457743038593063 0.44211040547142155
0.04296544400131097 0.4509037616023448 0.44699560332193444
0.04316714400192723 0.4479726428920372 0.4538348803126526
0.04335641800207668 0.44699560332193444 0.4538348803126526
0.043543489002331626 0.44211040547142155 0.45969711773326827
0.04373102200042922 0.44211040547142155 0.4636052760136786
0.04391799999939394 0.43917928676111373 0.4587200781631655
0.04415036600039457 0.44211040547142155 0.46165119687347334
0.0443408070022997 0.43917928676111373 0.46262823644357587
0.044528971000545425 0.43917928676111373 0.46262823644357587
0.0447157269991294 0.4401563263312165 0.46165119687347334
0.044901593999384204 0.43722520762090866 0.4636052760136786
0.045087924001563806 0.4352711284807034 0.4684904738641915
0.04527490200052853 0.43917928676111373 0.47142159257449934
0.04546100900188321 0.4382022471910112 0.47239863214460187
0.04567752400180325 0.4382022471910112 0.4733756717147044
0.04586420600026031 0.43917928676111373 0.47239863214460187
0.04605066500153043 0.44211040547142155 0.4665363947239862
0.04623682899909909 0.44406448461162684 0.47239863214460187
0.04642286200032686 0.4479726428920372 0.4665363947239862
0.04660935900028562 0.4479726428920372 0.4665363947239862
0.046794930000032764 0.44699560332193444 0.47142159257449934
0.046980667000752874 0.44894968246213973 0.47239863214460187
0.04716610800096532 0.4479726428920372 0.47435271128480694
0.04735178999908385 0.44992672203224227 0.4763067904250122
0.047540861000015866 0.4479726428920372 0.4763067904250122
0.04772778299957281 0.4460185637518319 0.4782608695652173
0.04791972400198574 0.4430874450415241 0.4802149487054226
0.04811910900025396 0.4401563263312165 0.4802149487054226
0.048306754000805086 0.4323400097703958 0.4763067904250122
0.04849243600256159 0.42745481191988266 0.47728382999511476
0.04867806200127234 0.42452369320957506 0.4733756717147044
0.04886330000226735 0.41963849535906195 0.47239863214460187
0.04904879600144341 0.4206155349291647 0.467513434294089
0.04923603399947751 0.42159257449926724 0.46165119687347334
0.04942895600106567 0.42452369320957506 0.45969711773326827
0.04961569300212432 0.4323400097703958 0.44992672203224227
0.04980185699969297 0.4333170493404983 0.44699560332193444
0.04998829800024396 0.43917928676111373 0.4460185637518319
0.05017433100147173 0.4450415241817294 0.4430874450415241
0.05036147600185359 0.4460185637518319 0.4382022471910112
0.050564732002385426 0.4479726428920372 0.43624816805080613
0.05075124699942535 0.457743038593063 0.4333170493404983
0.050937355001224205 0.46458231558378116 0.431362970200293
0.05112390700014657 0.4763067904250122 0.42940889106008795
0.05130994000137434 0.4831460674157304 0.43429408891060084
0.051496103998943 0.48998534440644836 0.42256961406936977
0.05168354499983252 0.5046409379579873 0.4264777723497801
0.05187098600072204 0.512457254518808 0.4264777723497801
0.05205840800044825 0.5095261358085001 0.4323400097703958
0.05226073800076847 0.5095261358085001 0.43429408891060084
0.05244790100186947 0.5007327796775769 0.431362970200293
0.05263469400233589 0.4938935026868587 0.4352711284807034
0.052821172001131345 0.4802149487054226 0.43722520762090866
0.05300714999975753 0.4655593551538837 0.4352711284807034
0.05319338800109108 0.45188080117244755 0.43917928676111373
0.05337988400060567 0.4479726428920372 0.441133365901319
0.05356613999902038 0.4382022471910112 0.44406448461162684
0.05375126600119984 0.43624816805080613 0.4460185637518319
0.05393637399902218 0.4303859306301905 0.4509037616023448
0.05412177800099016 0.42940889106008795 0.4557889594528579
0.05431149700234528 0.4303859306301905 0.45969711773326827
0.05449747500097146 0.431362970200293 0.4636052760136786
0.05468330499934382 0.43917928676111373 0.4606741573033708
0.0548688939998101 0.44699560332193444 0.46165119687347334
0.055054224001651164 0.4557889594528579 0.46165119687347334
0.05523924000226543 0.4538348803126526 0.45481191988275516
0.055425088001356926 0.457743038593063 0.44699560332193444
0.05561141799989855 0.4538348803126526 0.4401563263312165
0.055797192002501106 0.4528578407425501 0.431362970200293
0.0559827260003658 0.4538348803126526 0.4303859306301905
0.05616898200241849 0.4636052760136786 0.42940889106008795
0.05635483000150998 0.4538348803126526 0.42940889106008795
0.056539753000834025 0.4557889594528579 0.4303859306301905
0.056725490001554135 0.45481191988275516 0.4323400097703958
0.05691108000246459 0.4528578407425501 0.43429408891060084
0.057097298002190655 0.4509037616023448 0.43722520762090866
0.05728298000030918 0.4509037616023448 0.43917928676111373
0.05746910699963337 0.4557889594528579 0.43917928676111373
0.05766380700151785 0.4538348803126526 0.4430874450415241
0.05785295100213261 0.4509037616023448 0.44211040547142155
0.05803998500050511 0.457743038593063 0.4479726428920372
0.05822687100226176 0.45676599902296044 0.44894968246213973
0.058419218999915756 0.457743038593063 0.45188080117244755
0.05860540100184153 0.45676599902296044 0.45188080117244755
0.058791175000806106 0.45676599902296044 0.4606741573033708
0.05897704200106091 0.4528578407425501 0.4606741573033708
0.059162983001442626 0.4479726428920372 0.4606741573033708
0.05934931299998425 0.44211040547142155 0.45969711773326827
0.05953640200095833 0.44406448461162684 0.45969711773326827
0.05999072700069519 0.43722520762090866 0.46165119687347334
0.060195871999894734 0.43429408891060084 0.457743038593063
0.06038386799991713 0.43722520762090866 0.4606741573033708
0.06056916099987575 0.43722520762090866 0.4636052760136786
0.06075499100188608 0.4352711284807034 0.4655593551538837
0.060941173000173876 0.4333170493404983 0.47142159257449934
0.06113087300036568 0.43624816805080613 0.4704445530043966
0.06133287000193377 0.431362970200293 0.47923790913532005
0.06152543999996851 0.43722520762090866 0.47923790913532005
0.0617215109996323 0.4303859306301905 0.4763067904250122
0.06191874800060759 0.4264777723497801 0.47435271128480694
0.062115225999150425 0.4284318514899854 0.47142159257449934
0.06231083400052739 0.4255007327796776 0.4655593551538837
0.06251468200207455 0.4235466536394723 0.4606741573033708
0.06272947400066187 0.42159257449926724 0.4528578407425501
0.06294469199929154 0.42256961406936977 0.44894968246213973
0.06316354000227875 0.42256961406936977 0.44992672203224227
0.06336442600149894 0.41963849535906195 0.44699560332193444
0.06355990299925907 0.41963849535906195 0.4479726428920372
0.06375562199900742 0.42159257449926724 0.4450415241817294
0.0639502670019283 0.4206155349291647 0.44211040547142155
0.06417015199986054 0.42940889106008795 0.43722520762090866
0.06437448100041365 0.42745481191988266 0.4401563263312165
0.064587755001412 0.43722520762090866 0.4382022471910112
0.06481245500253863 0.4430874450415241 0.44406448461162684
0.06502928400004748 0.4538348803126526 0.44992672203224227
0.06522494700038806 0.46262823644357587 0.45481191988275516
0.06541773999924771 0.4733756717147044 0.457743038593063
0.06560838500081445 0.47142159257449934 0.4587200781631655
0.06580965900138835 0.4684904738641915 0.4587200781631655
0.06601326600139146 0.4665363947239862 0.44992672203224227
0.0662240589990688 0.4753297508549097 0.4479726428920372
0.06641844399928232 0.4684904738641915 0.44406448461162684
0.06661290400006692 0.4704445530043966 0.43624816805080613
0.06681749299968942 0.47142159257449934 0.4430874450415241
0.06704259999969508 0.4763067904250122 0.43429408891060084
0.06724002199916868 0.47728382999511476 0.4333170493404983
0.0674319440004183 0.47923790913532005 0.4333170493404983
0.06762171900118119 0.4811919882755251 0.4382022471910112
0.0678118079995329 0.4831460674157304 0.4401563263312165
0.06800408200069796 0.48705422569614076 0.4401563263312165
0.0682298739993712 0.48216902784562765 0.44406448461162684
0.06842759299979662 0.47728382999511476 0.4479726428920372
0.06864099700032966 0.47435271128480694 0.4479726428920372
0.06885940000211122 0.467513434294089 0.44894968246213973
0.06908083999951486 0.4684904738641915 0.44699560332193444
0.06929831800152897 0.4665363947239862 0.45188080117244755
0.06949670299945865 0.4655593551538837 0.4528578407425501
0.06969199599916465 0.4606741573033708 0.4587200781631655
0.06988502999956836 0.45969711773326827 0.4528578407425501
0.0700785260014527 0.4557889594528579 0.4538348803126526
0.07027141100115841 0.44992672203224227 0.45188080117244755
0.07047048200183781 0.44406448461162684 0.44699560332193444
0.07065725600114092 0.441133365901319 0.4450415241817294
0.0708431790008035 0.4382022471910112 0.4382022471910112
0.07103298999936669 0.4382022471910112 0.4303859306301905
0.07122585700199124 0.4401563263312165 0.4255007327796776
0.07141748299909523 0.44406448461162684 0.4206155349291647
0.07162584999969113 0.44894968246213973 0.4186614557889594
0.07184275300096488 0.4606741573033708 0.42452369320957506
0.0720383240004594 0.47142159257449934 0.4264777723497801
0.07225600500169094 0.4802149487054226 0.431362970200293
0.07244831600110047 0.48412310698583294 0.441133365901319
0.07266201600214117 0.4929164631167562 0.44406448461162684
0.07287769799950183 0.4909623839765511 0.4479726428920372
0.07307548999961 0.4948705422569615 0.44699560332193444
0.07326670900147292 0.4948705422569615 0.44992672203224227
0.07346196499929647 0.4929164631167562 0.4509037616023448
0.07368618300097296 0.48412310698583294 0.457743038593063
0.07389501199941151 0.4802149487054226 0.45676599902296044
0.07409080499928677 0.47435271128480694 0.4606741573033708
0.0742854130003252 0.467513434294089 0.4655593551538837
0.0744980570016196 0.4587200781631655 0.46458231558378116
0.07471620100113796 0.4557889594528579 0.467513434294089
0.07491149400084396 0.4479726428920372 0.46458231558378116
0.07510847199955606 0.441133365901319 0.45969711773326827
0.075301450000552 0.4401563263312165 0.45481191988275516
0.07549387200197089 0.4401563263312165 0.45188080117244755
0.07570909100104473 0.43624816805080613 0.441133365901319
0.07589984600053867 0.43429408891060084 0.43624816805080613
0.07611871300105122 0.4284318514899854 0.431362970200293
0.07634968999991543 0.42159257449926724 0.4382022471910112
0.07654590899983305 0.4206155349291647 0.4323400097703958
0.07674123900142149 0.4176844162188569 0.431362970200293
0.07693714199922397 0.41670737664875435 0.43722520762090866
0.07713234300172189 0.41475329750854906 0.43917928676111373
0.07732585800113156 0.4176844162188569 0.4450415241817294
0.07752089100176818 0.42159257449926724 0.44699560332193444
0.07771464699908393 0.42159257449926724 0.4528578407425501
0.07793969799968181 0.42159257449926724 0.4528578407425501
0.07814732400220237 0.42452369320957506 0.4557889594528579
0.07836767200205941 0.42745481191988266 0.4587200781631655
0.0785854460009432 0.43429408891060084 0.46262823644357587
0.07878284999969765 0.431362970200293 0.46458231558378116
0.07897416100240662 0.4382022471910112 0.4655593551538837
0.07916302800003905 0.44699560332193444 0.4655593551538837
0.07935408000048483 0.45188080117244755 0.46458231558378116
0.07954520600105752 0.4538348803126526 0.4636052760136786
0.07974109200222301 0.44894968246213973 0.46262823644357587
0.0799357180003426 0.43917928676111373 0.457743038593063
0.08016954699996859 0.4303859306301905 0.4479726428920372
0.08038033900083974 0.42745481191988266 0.44406448461162684
0.08059292799953255 0.42256961406936977 0.44992672203224227
0.08082818299953942 0.41963849535906195 0.44894968246213973
0.08101956800237531 0.4264777723497801 0.4538348803126526
0.08120958400104428 0.43917928676111373 0.457743038593063
0.08142337599929306 0.441133365901319 0.4606741573033708
0.081610446999548 0.44894968246213973 0.4684904738641915
0.08179838800060679 0.4538348803126526 0.467513434294089
0.08199303199944552 0.4509037616023448 0.4684904738641915
0.08219265799925779 0.4430874450415241 0.4753297508549097
0.08239230300023337 0.4323400097703958 0.47728382999511476
0.08261377999951947 0.4264777723497801 0.4782608695652173
0.08285870200052159 0.4108451392281387 0.48216902784562765
0.08309208599894191 0.4040058622374205 0.48412310698583294
0.08331745300165494 0.40693698094772834 0.4811919882755251
0.08356104099948425 0.40889106008793363 0.4831460674157304
0.08378351799910888 0.41182217879824123 0.4802149487054226
0.08400299600180006 0.42745481191988266 0.47923790913532005
0.08426269499977934 0.4382022471910112 0.4753297508549097
0.08449228300014511 0.4528578407425501 0.4665363947239862
0.08474216800095746 0.46458231558378116 0.467513434294089
0.08497008899939829 0.4665363947239862 0.4655593551538837
0.08520184400185826 0.4831460674157304 0.4636052760136786
0.08541889600019203 0.48998534440644836 0.457743038593063
0.08563250299994252 0.4929164631167562 0.457743038593063
0.08583723999981885 0.49193942354665365 0.4538348803126526
0.08603581100032898 0.48216902784562765 0.44894968246213973
0.08623514099963359 0.4665363947239862 0.44211040547142155
0.08643506299995352 0.457743038593063 0.4352711284807034
0.08663383699968108 0.4636052760136786 0.4323400097703958
0.08683338899936643 0.45188080117244755 0.42159257449926724
0.08703294099905179 0.45481191988275516 0.41670737664875435
0.08723080799973104 0.45676599902296044 0.4137762579384465
0.08742921200246201 0.4509037616023448 0.4137762579384465
0.08763063399965176 0.45676599902296044 0.4176844162188569
0.08783227800086024 0.45969711773326827 0.42256961406936977
0.08804183000029298 0.46262823644357587 0.4255007327796776
0.08826569600205403 0.467513434294089 0.43624816805080613
0.08846465600072406 0.467513434294089 0.4333170493404983
0.08872365100251045 0.4665363947239862 0.43624816805080613
0.08899435000057565 0.46458231558378116 0.4382022471910112
0.08922112300206209 0.46262823644357587 0.441133365901319
0.08943517499938025 0.46458231558378116 0.4479726428920372
0.08965972700025304 0.46458231558378116 0.44992672203224227
0.08995949900054256 0.4665363947239862 0.4528578407425501
0.09021062399915536 0.46946751343429405 0.4557889594528579
0.09041797200188739 0.46946751343429405 0.44699560332193444
0.09061719099918264 0.4704445530043966 0.4479726428920372
0.09081346500170184 0.47239863214460187 0.4401563263312165
0.09102735000124085 0.47435271128480694 0.431362970200293
0.09132921499985969 0.4753297508549097 0.4303859306301905
0.09155478500179015 0.47239863214460187 0.4323400097703958
0.09177252200242947 0.47142159257449934 0.43429408891060084
0.09197459200004232 0.4655593551538837 0.4382022471910112
0.0921770330023719 0.45676599902296044 0.4460185637518319
0.09238154800186749 0.4557889594528579 0.4538348803126526
0.09261974699984421 0.4557889594528579 0.4655593551538837
0.09284837300219806 0.4528578407425501 0.4636052760136786
0.09304657300162944 0.4528578407425501 0.4665363947239862
0.09326962400155026 0.45676599902296044 0.4665363947239862
0.09348687899910146 0.4587200781631655 0.4704445530043966
0.09370015300009982 0.46262823644357587 0.47239863214460187
0.09394412999972701 0.4636052760136786 0.4733756717147044
0.09415273800186696 0.45969711773326827 0.4684904738641915
0.09436053000172251 0.457743038593063 0.4606741573033708
0.09456871200018213 0.457743038593063 0.45676599902296044
0.09475652300170623 0.4557889594528579 0.4528578407425501
0.0949449639992963 0.4557889594528579 0.44894968246213973
0.09513099800096825 0.4557889594528579 0.44699560332193444
0.09531703100219602 0.4557889594528579 0.4430874450415241
0.09550262099946849 0.4557889594528579 0.44699560332193444
0.09568871000010404 0.4557889594528579 0.4509037616023448
0.0958748180019029 0.4538348803126526 0.4538348803126526
0.09606025900211534 0.45676599902296044 0.4636052760136786
0.09625216299900785 0.4538348803126526 0.4704445530043966
0.09648089899928891 0.44894968246213973 0.4753297508549097
0.09667369200178655 0.4460185637518319 0.47435271128480694
0.09686005900221062 0.43917928676111373 0.4763067904250122
0.09704607399908127 0.441133365901319 0.47142159257449934
0.09726666300048237 0.43722520762090866 0.4733756717147044
0.09745175200077938 0.43429408891060084 0.47435271128480694
0.09763924900107668 0.43624816805080613 0.47239863214460187
0.0978406520007411 0.441133365901319 0.47435271128480694
0.09803363000173704 0.44406448461162684 0.4763067904250122
0.0982209600006172 0.4430874450415241 0.4763067904250122
0.09840649400211987 0.44894968246213973 0.4763067904250122
0.09859376800159225 0.44992672203224227 0.47435271128480694
0.09877970900197397 0.4460185637518319 0.4733756717147044
0.09896513200146728 0.44406448461162684 0.47239863214460187
0.09915070300121442 0.43722520762090866 0.4763067904250122
0.09933594000176527 0.43429408891060084 0.4782608695652173
0.09952193700155476 0.4206155349291647 0.4763067904250122
0.09970824800257105 0.4108451392281387 0.4704445530043966
0.0999161149993597 0.4059599413776258 0.46262823644357587
0.10017503600101918 0.4040058622374205 0.4460185637518319
0.10042003200214822 0.4059599413776258 0.42745481191988266
0.10064321300160373 0.41182217879824123 0.4176844162188569
0.10089996700116899 0.41475329750854906 0.4157303370786516
0.10113820400147233 0.4206155349291647 0.41963849535906195
0.1013664960009919 0.4176844162188569 0.42452369320957506
0.10159536200080765 0.41670737664875435 0.4333170493404983
0.10181189500144683 0.41963849535906195 0.43722520762090866
0.1020367429991893 0.4235466536394723 0.44406448461162684
0.10229599800004507 0.42940889106008795 0.44699560332193444
0.10263762099930318 0.43722520762090866 0.4509037616023448
0.10292146800202318 0.4401563263312165 0.4538348803126526
0.1032121480020578 0.44894968246213973 0.4479726428920372
0.10349462399972253 0.4636052760136786 0.43917928676111373
0.10373452700150665 0.4636052760136786 0.4303859306301905
0.10400511500120047 0.4665363947239862 0.4157303370786516
0.10433729400028824 0.4763067904250122 0.40986809965803617
0.10459247399921878 0.4733756717147044 0.4137762579384465
0.10485161800170317 0.4684904738641915 0.4235466536394723
0.10528420300033758 0.4684904738641915 0.4333170493404983
0.1055766230019799 0.467513434294089 0.43722520762090866
0.10583128500002204 0.46458231558378116 0.441133365901319
0.10607776200049557 0.46165119687347334 0.45188080117244755
0.10631509100130643 0.45969711773326827 0.44406448461162684
0.10655488300108118 0.4557889594528579 0.4509037616023448
0.10679519400218851 0.4509037616023448 0.44992672203224227
0.10705624500042177 0.44699560332193444 0.44992672203224227
0.10731612900053733 0.44406448461162684 0.44894968246213973
0.1076900480002223 0.44894968246213973 0.44992672203224227
0.10801644900129759 0.44894968246213973 0.44992672203224227
0.1084313489991473 0.44894968246213973 0.4538348803126526
0.10867982600029791 0.45188080117244755 0.45676599902296044
0.10897571000168682 0.4557889594528579 0.45676599902296044
0.10919520600145916 0.4587200781631655 0.45481191988275516
0.10938859100133413 0.4655593551538837 0.45676599902296044
0.10958858800222515 0.46946751343429405 0.4528578407425501
0.1097848060016986 0.47142159257449934 0.45188080117244755
0.10998252500212402 0.4704445530043966 0.44699560332193444
0.11021429800166516 0.4733756717147044 0.44211040547142155
0.11042690600152127 0.47923790913532005 0.441133365901319
0.11061882799913292 0.47435271128480694 0.45481191988275516
0.11080695400232798 0.4704445530043966 0.45188080117244755
0.11099493200163124 0.4665363947239862 0.45969711773326827
0.11118829900078708 0.46262823644357587 0.46262823644357587
0.11137624000184587 0.45676599902296044 0.467513434294089
0.11156610699981684 0.4460185637518319 0.4665363947239862
0.11176064100072836 0.43917928676111373 0.467513434294089
0.11195791499994812 0.43917928676111373 0.4655593551538837
0.11217291100183502 0.441133365901319 0.467513434294089
0.11243059200205607 0.44992672203224227 0.4636052760136786
0.1126499390011304 0.4557889594528579 0.45969711773326827
0.11285952800244559 0.46262823644357587 0.45481191988275516
0.11305330300092464 0.4655593551538837 0.4450415241817294
0.11327100199923734 0.4655593551538837 0.4333170493404983
0.11347896100051003 0.4587200781631655 0.4255007327796776
0.1136996610002825 0.45188080117244755 0.4206155349291647
0.11390621300233761 0.44211040547142155 0.4186614557889594
0.11410506100219209 0.4450415241817294 0.4157303370786516
0.1143000949996349 0.44406448461162684 0.4186614557889594
0.11450599800082273 0.44699560332193444 0.4264777723497801
0.11471147600241238 0.4450415241817294 0.4264777723497801
0.1149179540007026 0.44406448461162684 0.43722520762090866
0.11510898699998506 0.4509037616023448 0.44406448461162684
0.11529490999964764 0.45481191988275516 0.4450415241817294
0.11548246200254653 0.4538348803126526 0.44894968246213973
0.11566823700195528 0.45676599902296044 0.4557889594528579
0.1158537150004122 0.45969711773326827 0.45676599902296044
0.1160401000015554 0.4636052760136786 0.45969711773326827
0.11626689200056717 0.46262823644357587 0.46165119687347334
0.11646227800156339 0.457743038593063 0.4655593551538837
0.11681271600173204 0.4606741573033708 0.4665363947239862
0.1170401560011669 0.4636052760136786 0.467513434294089
0.1172793180012377 0.4655593551538837 0.47142159257449934
0.11749179600155912 0.46946751343429405 0.4665363947239862
0.11770434800200746 0.46946751343429405 0.4655593551538837
0.1179283250021399 0.46458231558378116 0.46262823644357587
0.11826224499964155 0.4538348803126526 0.4665363947239862
0.11853268499908154 0.441133365901319 0.4636052760136786
0.11881990199981374 0.4284318514899854 0.47142159257449934
0.11921545000222977 0.41475329750854906 0.46458231558378116
0.11949348200141685 0.4108451392281387 0.4636052760136786
0.1198248649998277 0.4049829018075233 0.46458231558378116
0.12009582300015609 0.4108451392281387 0.457743038593063
0.12054883300152142 0.412799218368344 0.4528578407425501
0.12085466099961195 0.41182217879824123 0.45188080117244755
0.12112787799924263 0.4206155349291647 0.44992672203224227
0.12141259499912849 0.4333170493404983 0.44211040547142155
0.1216564800015476 0.43624816805080613 0.44406448461162684
0.12189449400102603 0.4460185637518319 0.43429408891060084
0.12219832200207748 0.4557889594528579 0.4303859306301905
0.12249968700052705 0.467513434294089 0.4255007327796776
0.12280033000206458 0.4831460674157304 0.4186614557889594
0.12306173199976911 0.49193942354665365 0.41182217879824123
0.12330702400140581 0.49193942354665365 0.4059599413776258
0.12355955599923618 0.48900830483634583 0.40986809965803617
0.1237661820014182 0.4880312652662433 0.4137762579384465
0.12401110400242032 0.47239863214460187 0.4176844162188569
0.12426804400092806 0.45969711773326827 0.4255007327796776
0.1244660219999787 0.4557889594528579 0.43624816805080613
0.1246625359999598 0.44992672203224227 0.44211040547142155
0.12485675499920035 0.4450415241817294 0.44894968246213973
0.1250689369990141 0.43917928676111373 0.4557889594528579
0.12530104300094536 0.43429408891060084 0.457743038593063
0.12558000100034405 0.4323400097703958 0.46262823644357587
0.12599534599939943 0.42940889106008795 0.4665363947239862
0.12633465399994748 0.43429408891060084 0.4684904738641915
0.12661131600179942 0.4401563263312165 0.47142159257449934
0.1268506630003685 0.43917928676111373 0.47435271128480694
0.1270854930007772 0.44211040547142155 0.47435271128480694
0.127299841002241 0.441133365901319 0.47728382999511476
0.12750552199941012 0.4430874450415241 0.4763067904250122
0.12770338900008937 0.4382022471910112 0.47239863214460187
0.1279672170021513 0.4450415241817294 0.47142159257449934
0.12821967600029893 0.4450415241817294 0.4655593551538837
0.1284395789989503 0.44406448461162684 0.457743038593063
0.1286576310012606 0.4450415241817294 0.4538348803126526
0.1288715709997632 0.4460185637518319 0.44894968246213973
0.1290999750017363 0.4509037616023448 0.4460185637518319
0.1293191740005568 0.4557889594528579 0.4450415241817294
0.12953068900242215 0.45969711773326827 0.4450415241817294
0.12976901799993357 0.4684904738641915 0.44894968246213973
0.1300130320014432 0.47728382999511476 0.4528578407425501
0.13026810200244654 0.4831460674157304 0.45481191988275516
0.1305689290020382 0.4909623839765511 0.46262823644357587
0.13085103499906836 0.49193942354665365 0.45676599902296044
0.13114938199942117 0.4948705422569615 0.4636052760136786
0.13149541299935663 0.47923790913532005 0.45969711773326827
0.13181085100222845 0.4753297508549097 0.4509037616023448
0.13207305000105407 0.4655593551538837 0.4557889594528579
0.1323646929995448 0.4636052760136786 0.45481191988275516
0.13285042500137934 0.44211040547142155 0.45481191988275516
0.13338434099932783 0.44406448461162684 0.45969711773326827
0.13368755800183862 0.4509037616023448 0.4538348803126526
0.13392907200250193 0.4587200781631655 0.44894968246213973
0.13415038300081505 0.4636052760136786 0.44699560332193444
0.13438317500185804 0.467513434294089 0.44992672203224227
0.13461104100133525 0.4733756717147044 0.4528578407425501
0.13482490800015512 0.46946751343429405 0.45969711773326827
0.1351468280008703 0.46458231558378116 0.4636052760136786
0.1353904160023376 0.457743038593063 0.46458231558378116
0.13560035699993023 0.4509037616023448 0.46458231558378116
0.13583687100253883 0.4430874450415241 0.46165119687347334
0.13607114399928832 0.4401563263312165 0.46165119687347334
0.1363544730011199 0.4382022471910112 0.4538348803126526
0.13656633900245652 0.44406448461162684 0.4479726428920372
0.13677437200021814 0.4430874450415241 0.44406448461162684
0.13696914699903573 0.4460185637518319 0.43722520762090866
0.13716699500218965 0.44894968246213973 0.4430874450415241
0.13736337999944226 0.44894968246213973 0.4333170493404983
0.13756406199900084 0.45188080117244755 0.4323400097703958
0.13776002099984908 0.44992672203224227 0.4303859306301905
0.13796059200103628 0.45188080117244755 0.4255007327796776
0.13817477300108294 0.45188080117244755 0.4352711284807034
0.1383829730002617 0.44992672203224227 0.42940889106008795
0.1385942100023385 0.45188080117244755 0.431362970200293
0.13882255800126586 0.45676599902296044 0.431362970200293
0.1390191099999356 0.4587200781631655 0.43624816805080613
0.13921677300095325 0.46165119687347334 0.44406448461162684
0.1394129360014631 0.45969711773326827 0.4460185637518319
0.1396148580024601 0.45481191988275516 0.45969711773326827
0.1398160030003055 0.4538348803126526 0.45676599902296044
0.14000975800081505 0.44894968246213973 0.457743038593063
0.1402907529991353 0.4401563263312165 0.46262823644357587
0.14050621199930902 0.43429408891060084 0.46262823644357587
0.1406989679999242 0.4303859306301905 0.4606741573033708
0.14088555700072902 0.42940889106008795 0.4665363947239862
0.14107162800064543 0.42452369320957506 0.467513434294089
0.14125847600007546 0.4176844162188569 0.4684904738641915
0.14144882500113454 0.4108451392281387 0.47142159257449934
0.14163822900081868 0.40693698094772834 0.4684904738641915
0.14182446600170806 0.40009770395701016 0.46946751343429405
0.14201161100208992 0.40205178309721545 0.4665363947239862
0.14219729300020845 0.4059599413776258 0.4655593551538837
0.14238316000046325 0.4040058622374205 0.46262823644357587
0.1425764710002113 0.4137762579384465 0.46262823644357587
0.1427636900007201 0.4206155349291647 0.46165119687347334
0.14297535299920128 0.4284318514899854 0.45969711773326827
0.14316225700167706 0.42256961406936977 0.46458231558378116
0.14334799400239717 0.4303859306301905 0.45969711773326827
0.1435349910025252 0.43917928676111373 0.4655593551538837
0.14372978300161776 0.44992672203224227 0.4587200781631655
0.14391570600128034 0.45969711773326827 0.457743038593063
0.14412288699895726 0.46262823644357587 0.457743038593063
0.14431469900227967 0.4636052760136786 0.45481191988275516
0.14450058399961563 0.45676599902296044 0.45188080117244755
0.14468661800128757 0.457743038593063 0.4557889594528579
0.1448771140021563 0.45969711773326827 0.4450415241817294
0.14508581400150433 0.46262823644357587 0.4450415241817294
0.145311958000093 0.4665363947239862 0.4460185637518319
0.1455164920007519 0.46458231558378116 0.44406448461162684
0.14572458100155927 0.4538348803126526 0.4450415241817294
0.14593720600169036 0.4450415241817294 0.4450415241817294
0.14614859100038302 0.4430874450415241 0.44699560332193444
0.14636753200102248 0.4382022471910112 0.4401563263312165
0.1465905830009433 0.4401563263312165 0.43429408891060084
0.14680870899974252 0.4430874450415241 0.43624816805080613
0.14702261300044484 0.44211040547142155 0.42452369320957506
0.1472916080019786 0.44699560332193444 0.4235466536394723
0.14754036200247356 0.44992672203224227 0.43722520762090866
0.1477733210012957 0.44894968246213973 0.43429408891060084
0.14809161200173548 0.4538348803126526 0.4450415241817294
0.1484589200008486 0.4557889594528579 0.44894968246213973
0.14868547100195428 0.457743038593063 0.44699560332193444
0.14889028200195753 0.4606741573033708 0.44699560332193444
0.14911159300027066 0.46262823644357587 0.44406448461162684
0.14933977400141885 0.46262823644357587 0.44211040547142155
0.1495598629990127 0.4606741573033708 0.4450415241817294
0.14978382200206397 0.46165119687347334 0.4509037616023448
0.15007451999917976 0.4606741573033708 0.4587200781631655
0.1503157379993354 0.4636052760136786 0.46458231558378116
0.1505542519989831 0.45676599902296044 0.467513434294089
0.15081013700182666 0.457743038593063 0.4684904738641915
0.15103563199954806 0.4538348803126526 0.46458231558378116
0.1512725729990052 0.4538348803126526 0.4587200781631655
0.15151932700246107 0.457743038593063 0.45188080117244755
0.1517141200019978 0.45969711773326827 0.44406448461162684
0.15190880199952517 0.4587200781631655 0.4382022471910112
0.15221101900169742 0.4665363947239862 0.4255007327796776
0.15242516299986164 0.4606741573033708 0.4186614557889594
0.15261728900077287 0.4557889594528579 0.412799218368344
0.15281287800098653 0.44992672203224227 0.412799218368344
0.15302235600029235 0.44992672203224227 0.41670737664875435
0.15324325899928226 0.441133365901319 0.4186614557889594
0.15349688400237937 0.43722520762090866 0.4255007327796776
0.15369332499903976 0.43429408891060084 0.4382022471910112
0.15388954399895738 0.4401563263312165 0.441133365901319
0.15408578099959414 0.4479726428920372 0.44699560332193444
0.15429116599989356 0.45969711773326827 0.45676599902296044
0.15449118100150372 0.4606741573033708 0.46262823644357587
0.1546889179990103 0.46946751343429405 0.467513434294089
0.15488480299973162 0.47923790913532005 0.4684904738641915
0.15507800400155247 0.4880312652662433 0.4655593551538837
0.1552741670020623 0.4938935026868587 0.467513434294089
0.15547690400126157 0.495847581827064 0.47239863214460187
0.155674474000989 0.4948705422569615 0.47142159257449934
0.15587435999987065 0.486077186126038 0.4733756717147044
0.15606330100126797 0.486077186126038 0.47142159257449934
0.15625470400118502 0.4811919882755251 0.47239863214460187
0.15644120100114378 0.47923790913532005 0.4665363947239862
0.15662849400177947 0.4811919882755251 0.4636052760136786
0.1568336750024173 0.47435271128480694 0.4655593551538837
0.15701917200203752 0.4704445530043966 0.45969711773326827
0.15720542800045223 0.467513434294089 0.45969711773326827
0.15739136900083395 0.4636052760136786 0.45969711773326827
0.1575770689996716 0.45676599902296044 0.4606741573033708
0.15776180700049736 0.4528578407425501 0.46262823644357587
0.15794780299984268 0.44699560332193444 0.4557889594528579
0.1581334299989976 0.4430874450415241 0.4538348803126526
0.15831861200058484 0.441133365901319 0.4509037616023448
0.15850407100151642 0.4382022471910112 0.4479726428920372
0.1586896600019827 0.43722520762090866 0.44406448461162684
0.15887561999988975 0.4352711284807034 0.4479726428920372
0.159061524002027 0.43429408891060084 0.4479726428920372
0.15924750200065318 0.4352711284807034 0.45676599902296044
0.15943322100065416 0.43429408891060084 0.4509037616023448
0.1596195140009513 0.43429408891060084 0.4509037616023448
0.15980676999970456 0.44211040547142155 0.4528578407425501
0.16000117400108138 0.43917928676111373 0.45676599902296044
0.16021672500210116 0.4401563263312165 0.4587200781631655
0.16040405500098132 0.43917928676111373 0.46262823644357587
0.16058962600072846 0.44406448461162684 0.4636052760136786
0.16077514100106782 0.4401563263312165 0.4665363947239862
0.16096121200098423 0.43624816805080613 0.467513434294089
0.16114718999961042 0.4352711284807034 0.46262823644357587
0.16133390899994993 0.4333170493404983 0.46458231558378116
0.1615288499997405 0.43624816805080613 0.4606741573033708
0.1617809560011665 0.431362970200293 0.45676599902296044
0.16199471200161497 0.4352711284807034 0.4528578407425501
0.1622038560017245 0.43917928676111373 0.4509037616023448
0.1623992230015574 0.43917928676111373 0.4460185637518319
0.16260603400223772 0.441133365901319 0.44699560332193444
0.1628258820019255 0.4450415241817294 0.4460185637518319
0.16303123000034248 0.44894968246213973 0.4460185637518319
0.1632494299992686 0.4528578407425501 0.4450415241817294
0.16347211100219283 0.45676599902296044 0.4460185637518319
0.1636827180009277 0.4587200781631655 0.441133365901319
0.1639065470008063 0.46165119687347334 0.43917928676111373
0.16425263400014956 0.4636052760136786 0.4352711284807034
0.16456677600217517 0.45676599902296044 0.4333170493404983
0.16487023300214787 0.44992672203224227 0.4284318514899854
0.16508550700018532 0.4479726428920372 0.43429408891060084
0.16528959599963855 0.441133365901319 0.4382022471910112
0.16548594499909086 0.4430874450415241 0.43917928676111373
0.1656824970013986 0.43917928676111373 0.44406448461162684
0.1658868260019517 0.4284318514899854 0.44699560332193444
0.16619065399936517 0.4284318514899854 0.46165119687347334
0.16649396299908403 0.4235466536394723 0.4684904738641915
0.16673538500253926 0.42159257449926724 0.4733756717147044
0.16694273300163331 0.42256961406936977 0.4753297508549097
0.1671411370007263 0.4255007327796776 0.4733756717147044
0.16733715200098231 0.4323400097703958 0.4704445530043966
0.16753059300026507 0.4323400097703958 0.467513434294089
0.16772683000090183 0.4303859306301905 0.467513434294089
0.1679288080013066 0.43429408891060084 0.4636052760136786
0.16816722899966408 0.43917928676111373 0.4606741573033708
0.16839883600187022 0.441133365901319 0.4587200781631655
0.16860038800223265 0.4450415241817294 0.4557889594528579
0.16879127400170546 0.44992672203224227 0.45481191988275516
0.16897762200096622 0.4557889594528579 0.4538348803126526
0.16916302599929622 0.4606741573033708 0.4538348803126526
0.16934922600194113 0.46165119687347334 0.4538348803126526
0.16953459300202667 0.4665363947239862 0.44406448461162684
0.16972014600105467 0.4684904738641915 0.44211040547142155
0.16990677200010396 0.467513434294089 0.43917928676111373
0.1701244530013355 0.4704445530043966 0.44211040547142155
0.17031395000230987 0.47239863214460187 0.44406448461162684
0.17049915000097826 0.4684904738641915 0.44406448461162684
0.17068549800023902 0.46946751343429405 0.4479726428920372
0.1708899389996077 0.4684904738641915 0.44699560332193444
0.171080954001809 0.4655593551538837 0.44699560332193444
0.17126691399971605 0.4733756717147044 0.44699560332193444
0.17145296600210713 0.4753297508549097 0.441133365901319
0.1716384259998449 0.4782608695652173 0.44406448461162684
0.17182334800236276 0.4851001465559355 0.43917928676111373
0.17200971499914885 0.4782608695652173 0.4382022471910112
0.17224498900031904 0.4802149487054226 0.44211040547142155
0.17243072600103915 0.47923790913532005 0.441133365901319
0.1726157039993268 0.4763067904250122 0.4401563263312165
0.1728009229991585 0.46946751343429405 0.43917928676111373
0.17298617900087265 0.4655593551538837 0.4333170493404983
0.1731711569991603 0.4587200781631655 0.4333170493404983
0.17335661700053606 0.4528578407425501 0.42940889106008795
0.1735419840006216 0.44699560332193444 0.431362970200293
0.1737282399990363 0.44406448461162684 0.4255007327796776
0.17391484700056026 0.43722520762090866 0.4255007327796776
0.17410134400051902 0.431362970200293 0.4255007327796776
0.17429021100178943 0.4303859306301905 0.4264777723497801
0.174478059001558 0.4382022471910112 0.42745481191988266
0.1746634080009244 0.4333170493404983 0.4303859306301905
0.17484931199942366 0.43917928676111373 0.4333170493404983
0.17503510499955155 0.441133365901319 0.43722520762090866
0.17522169400035636 0.4460185637518319 0.44699560332193444
0.17540663500039955 0.44992672203224227 0.44699560332193444
0.17559194700152148 0.44894968246213973 0.45969711773326827
0.175777314001607 0.4509037616023448 0.4606741573033708
0.17596214299919666 0.45188080117244755 0.4636052760136786
0.17614878799940925 0.45481191988275516 0.46262823644357587
0.17633452600057353 0.44992672203224227 0.467513434294089
0.17651996700078598 0.45188080117244755 0.46946751343429405
0.17670550000184448 0.4509037616023448 0.47239863214460187
0.1768909230013378 0.4557889594528579 0.47728382999511476
0.1770763269996678 0.45188080117244755 0.4733756717147044
0.1772619350012974 0.4557889594528579 0.47239863214460187
0.17744822800159454 0.45188080117244755 0.4704445530043966
0.17763261300206068 0.45188080117244755 0.4704445530043966
0.1778179060020193 0.4528578407425501 0.46946751343429405
0.17800338400047622 0.44992672203224227 0.4684904738641915
0.17818978799914476 0.44894968246213973 0.46458231558378116
0.17837587800022447 0.44992672203224227 0.4587200781631655
0.1785644850024255 0.4450415241817294 0.4587200781631655
0.17878135200226097 0.4450415241817294 0.457743038593063
0.17897155199898407 0.4460185637518319 0.457743038593063
0.17916293700181996 0.4460185637518319 0.45676599902296044
0.17934906400114414 0.4450415241817294 0.45481191988275516
0.17953439399934723 0.4479726428920372 0.4528578407425501
0.1797199829998135 0.44894968246213973 0.44894968246213973
0.17990925699996296 0.44894968246213973 0.44699560332193444
0.1800946240000485 0.4479726428920372 0.4460185637518319
0.18029065800146782 0.44699560332193444 0.44699560332193444
0.18047691299943835 0.4479726428920372 0.4460185637518319
0.18066207700030645 0.4479726428920372 0.441133365901319
0.1808761840002262 0.44992672203224227 0.4382022471910112
0.18106245799936005 0.44406448461162684 0.43917928676111373
0.18126180699982797 0.4450415241817294 0.4352711284807034
0.1814482850022614 0.4450415241817294 0.44406448461162684
0.18163429999913205 0.44406448461162684 0.4430874450415241
0.18181998200088856 0.4479726428920372 0.44211040547142155
0.1820167740006582 0.4450415241817294 0.44211040547142155
0.18220293800186482 0.4401563263312165 0.44406448461162684
0.18238800800099852 0.441133365901319 0.4450415241817294
0.18257361599899014 0.44211040547142155 0.4430874450415241
0.18275870499928715 0.4401563263312165 0.45188080117244755
0.18294992400115007 0.441133365901319 0.4509037616023448
0.1831356250004319 0.44406448461162684 0.4509037616023448
0.18332052900223061 0.4401563263312165 0.45676599902296044
0.18350563599960878 0.4450415241817294 0.457743038593063
0.18369115200039232 0.4450415241817294 0.45969711773326827
0.18387644399990677 0.43917928676111373 0.4606741573033708
0.18406264499935787 0.4352711284807034 0.46458231558378116
0.18425566000223625 0.43429408891060084 0.46262823644357587
0.18444150800132775 0.4323400097703958 0.46458231558378116
0.18462913500115974 0.43624816805080613 0.467513434294089
0.18481602000247221 0.43624816805080613 0.467513434294089
0.1850015540003369 0.43917928676111373 0.467513434294089
0.18518706900067627 0.441133365901319 0.4655593551538837
0.18538639899998088 0.43722520762090866 0.467513434294089
0.18557269099983387 0.4352711284807034 0.4655593551538837
0.18575829900146346 0.43429408891060084 0.457743038593063
0.18594518499958212 0.42745481191988266 0.4587200781631655
0.18613108900171937 0.4255007327796776 0.44992672203224227
0.18631704799918225 0.4235466536394723 0.44894968246213973
0.18650267500197515 0.42452369320957506 0.44992672203224227
0.18668885599981877 0.4235466536394723 0.44699560332193444
0.18689376000111224 0.4255007327796776 0.44992672203224227
0.18707996000011917 0.4284318514899854 0.4528578407425501
0.18726616099957027 0.42940889106008795 0.45188080117244755
0.18745219400079804 0.43917928676111373 0.4528578407425501
0.1876380239991704 0.4450415241817294 0.4557889594528579
0.18782502099929843 0.44894968246213973 0.4538348803126526
0.18801114700181643 0.4557889594528579 0.44894968246213973
0.18823310600055265 0.46458231558378116 0.44699560332193444
0.18841858399900957 0.46262823644357587 0.44699560332193444
0.18860354400021606 0.467513434294089 0.4460185637518319
0.18878928100093617 0.47239863214460187 0.4430874450415241
0.18897409300188883 0.47435271128480694 0.4450415241817294
0.18915953400210128 0.4831460674157304 0.4430874450415241
0.1893459749990143 0.4851001465559355 0.4430874450415241
0.18953319399952306 0.48900830483634583 0.44406448461162684
0.1897186349997355 0.48900830483634583 0.4450415241817294
0.18990379800015944 0.48412310698583294 0.4450415241817294
0.19008922099965275 0.47923790913532005 0.44699560332193444
0.19027468000058434 0.4733756717147044 0.4450415241817294
0.1904599360022985 0.467513434294089 0.44211040547142155
0.1906452290022571 0.45969711773326827 0.4382022471910112
0.19085737299974426 0.4528578407425501 0.431362970200293
0.19104381500073941 0.457743038593063 0.42745481191988266
0.19122844099911163 0.46165119687347334 0.4255007327796776
0.19141356700129109 0.4655593551538837 0.4255007327796776
0.19159823000154574 0.46946751343429405 0.431362970200293
0.19178326399924117 0.47142159257449934 0.4333170493404983
0.1919689640017168 0.4753297508549097 0.4401563263312165
0.19215577599970857 0.4753297508549097 0.44699560332193444
0.1923419209997519 0.4763067904250122 0.4538348803126526
0.1925276389993087 0.4733756717147044 0.4606741573033708
0.19271322900021914 0.4733756717147044 0.4587200781631655
0.19289852200017776 0.47728382999511476 0.4587200781631655
0.193083555001067 0.47142159257449934 0.4587200781631655
0.1932687740008987 0.47142159257449934 0.4587200781631655
0.1934537890010688 0.46946751343429405 0.4587200781631655
0.1936388230024022 0.467513434294089 0.457743038593063
0.19382361600219156 0.4655593551538837 0.4606741573033708
0.19401905700215138 0.46165119687347334 0.4606741573033708
0.1942045350006083 0.457743038593063 0.45676599902296044
0.19438988299953053 0.457743038593063 0.46165119687347334
0.1945756019995315 0.46262823644357587 0.4528578407425501
0.19476171000133036 0.45969711773326827 0.4538348803126526
0.19495809500222094 0.45676599902296044 0.4538348803126526
0.19514399900072021 0.4636052760136786 0.4450415241817294
0.195328829002392 0.4587200781631655 0.44211040547142155
0.1955134370000451 0.46165119687347334 0.441133365901319
0.19570361899968702 0.45969711773326827 0.4382022471910112
0.19589619000180392 0.4587200781631655 0.4479726428920372
0.1960837789993093 0.4606741573033708 0.4538348803126526
0.19629729300140752 0.45676599902296044 0.44894968246213973
0.1964833460006048 0.457743038593063 0.45676599902296044
0.19666886100094416 0.457743038593063 0.4587200781631655
0.19685369099897798 0.457743038593063 0.46262823644357587
0.19703881700115744 0.4557889594528579 0.4655593551538837
0.19722383200132754 0.4557889594528579 0.47142159257449934
0.19740932900094776 0.4450415241817294 0.46946751343429405
0.1975952140019217 0.4323400097703958 0.4704445530043966
0.1977803590016265 0.4284318514899854 0.46946751343429405
0.1979670040018391 0.41670737664875435 0.4665363947239862
0.1981979810007033 0.4108451392281387 0.46165119687347334
0.19840547700005118 0.4049829018075233 0.45676599902296044
0.1985989740023797 0.40205178309721545 0.45188080117244755
0.198808896002447 0.4079140205178309 0.4460185637518319
0.19900837400200544 0.4079140205178309 0.4430874450415241
0.1992018700002518 0.41182217879824123 0.44406448461162684
0.1993938670020725 0.4157303370786516 0.441133365901319
0.1995836230016721 0.412799218368344 0.44406448461162684
0.1997858600007021 0.41670737664875435 0.4450415241817294
0.1999865600009798 0.41670737664875435 0.4460185637518319
0.2002280000015162 0.4186614557889594 0.44992672203224227
0.2004284960021323 0.4186614557889594 0.4528578407425501
0.20063591800135328 0.41670737664875435 0.4538348803126526
0.20083017400247627 0.41475329750854906 0.45676599902296044
0.20102426300218212 0.41475329750854906 0.45969711773326827
0.20122664800146595 0.42159257449926724 0.45969711773326827
0.20143175600242103 0.4264777723497801 0.45676599902296044
0.2016485480016854 0.43917928676111373 0.4557889594528579
0.20184967400200549 0.4509037616023448 0.44699560332193444
0.20208791100230883 0.4655593551538837 0.441133365901319
0.20229159200243885 0.4733756717147044 0.43917928676111373
0.20248871800140478 0.4831460674157304 0.4352711284807034
0.20268751100229565 0.4831460674157304 0.4333170493404983
0.20288678500219248 0.4802149487054226 0.4382022471910112
0.20308830000067246 0.4831460674157304 0.43917928676111373
0.20332001800125 0.4831460674157304 0.4382022471910112
0.20351412500167498 0.4811919882755251 0.43917928676111373
0.2037067700002808 0.4763067904250122 0.441133365901319
0.20390678500189097 0.4665363947239862 0.441133365901319
0.20415342900014366 0.45676599902296044 0.44406448461162684
0.2043874990013137 0.4479726428920372 0.4460185637518319
0.20461716100180638 0.4401563263312165 0.4479726428920372
0.2048186940010055 0.4333170493404983 0.4460185637518319
0.20501480200255173 0.4284318514899854 0.4509037616023448
0.20520996499908506 0.4284318514899854 0.4460185637518319
0.20540161000099033 0.43429408891060084 0.44406448461162684
0.20559879100255785 0.4284318514899854 0.44406448461162684
0.20581760200002464 0.43429408891060084 0.4430874450415241
0.20604691300104605 0.441133365901319 0.4450415241817294
0.206271482999 0.441133365901319 0.4479726428920372
0.2064892750022409 0.44211040547142155 0.44992672203224227
0.20669921599983354 0.4460185637518319 0.44992672203224227
0.20705672800249886 0.4538348803126526 0.45188080117244755
0.20733764900069218 0.46165119687347334 0.4509037616023448
0.20756395900025382 0.46946751343429405 0.44894968246213973
0.20778493699981482 0.4733756717147044 0.4460185637518319
0.20799721100047464 0.48412310698583294 0.44406448461162684
0.20828676100063603 0.48900830483634583 0.43917928676111373
0.2085301459992479 0.4938935026868587 0.43917928676111373
0.20897900799900526 0.48412310698583294 0.441133365901319
0.20918894900023588 0.4831460674157304 0.44699560332193444
0.20939948200248182 0.47923790913532005 0.4460185637518319
0.20959753400165937 0.4763067904250122 0.44992672203224227
0.20979319700199994 0.4763067904250122 0.4528578407425501
0.20999223000035272 0.47923790913532005 0.45676599902296044
0.21018715299942414 0.4782608695652173 0.46458231558378116
0.21038298200073768 0.48216902784562765 0.46262823644357587
0.21063436700205784 0.47728382999511476 0.467513434294089
0.21084988100119517 0.467513434294089 0.46946751343429405
0.21105224799975986 0.4655593551538837 0.47142159257449934
0.2112519850015815 0.4587200781631655 0.47239863214460187
0.21145603699915227 0.4538348803126526 0.47142159257449934
0.21165014500002144 0.4557889594528579 0.46946751343429405
0.2118519190007646 0.457743038593063 0.46946751343429405
0.21206730400081142 0.457743038593063 0.4665363947239862
0.21234948400160647 0.457743038593063 0.4684904738641915
0.21262744200066663 0.4557889594528579 0.4704445530043966
0.212908454999706 0.4479726428920372 0.47239863214460187
0.2131163590020151 0.4450415241817294 0.47142159257449934
0.21333807699920726 0.44211040547142155 0.467513434294089
0.21354272100143135 0.43722520762090866 0.4636052760136786
0.21373462500196183 0.4430874450415241 0.4557889594528579
0.2139284740005678 0.44211040547142155 0.44699560332193444
0.21412176699959673 0.4430874450415241 0.4450415241817294
0.21431048500016914 0.45188080117244755 0.441133365901319
0.21455174000220723 0.44992672203224227 0.4430874450415241
0.21479371700115735 0.44894968246213973 0.4479726428920372
0.2149896949995309 0.44699560332193444 0.45676599902296044
0.21518337700035772 0.44406448461162684 0.46262823644357587
0.21538511399921845 0.441133365901319 0.46165119687347334
0.2155893510025635 0.4382022471910112 0.46262823644357587
0.21580588399956468 0.42940889106008795 0.45969711773326827
0.21600376900096308 0.4264777723497801 0.457743038593063
0.21628148700256133 0.4235466536394723 0.4557889594528579
0.21648077899953933 0.42256961406936977 0.4587200781631655
0.21668957200017758 0.4264777723497801 0.44992672203224227
0.2168853460025275 0.4264777723497801 0.44894968246213973
0.2170780279993778 0.4284318514899854 0.44406448461162684
0.21728152400100953 0.43429408891060084 0.43917928676111373
0.2176167030011129 0.441133365901319 0.44211040547142155
0.21787258699987433 0.4450415241817294 0.44894968246213973
0.218136064002465 0.44699560332193444 0.4430874450415241
0.21836557799906586 0.45969711773326827 0.43917928676111373
0.2185830000016722 0.4538348803126526 0.4382022471910112
0.21878731200195034 0.45969711773326827 0.43917928676111373
0.2189856229997531 0.46262823644357587 0.4479726428920372
0.21919948900176678 0.4655593551538837 0.4382022471910112
0.21940244900179096 0.46946751343429405 0.44406448461162684
0.21962172200073837 0.4733756717147044 0.4479726428920372
0.21984757000245736 0.47239863214460187 0.4479726428920372
0.2200588260020595 0.467513434294089 0.44992672203224227
0.22031267300189938 0.46458231558378116 0.4401563263312165
0.22053172400046606 0.44992672203224227 0.43624816805080613
0.22076675700009218 0.441133365901319 0.431362970200293
0.22098645699952613 0.4333170493404983 0.431362970200293
0.2212003230015398 0.4264777723497801 0.4333170493404983
0.22147894800218637 0.42452369320957506 0.43917928676111373
0.22169207399929292 0.4255007327796776 0.4450415241817294
0.22190040300120017 0.42745481191988266 0.45188080117244755
0.22215202799998224 0.42940889106008795 0.4557889594528579
0.22251642899936996 0.42745481191988266 0.46165119687347334
0.22274566600026446 0.4264777723497801 0.46458231558378116
0.22293423600058304 0.42745481191988266 0.467513434294089
0.22311962200183189 0.431362970200293 0.4655593551538837
0.22330684100234066 0.42745481191988266 0.4655593551538837
0.22349344800022664 0.4323400097703958 0.4665363947239862
0.22367966700039688 0.42940889106008795 0.46262823644357587
0.22386538600039785 0.4323400097703958 0.4636052760136786
0.22405106800215435 0.43624816805080613 0.45969711773326827
0.22427139700084808 0.4382022471910112 0.46262823644357587
0.22445900499951676 0.43917928676111373 0.467513434294089
0.2246450940001523 0.44894968246213973 0.45969711773326827
0.22483348000241676 0.45188080117244755 0.4606741573033708
0.22501851299966802 0.4509037616023448 0.4606741573033708
0.22520376900138217 0.4557889594528579 0.4587200781631655
0.2253891360014677 0.4606741573033708 0.45969711773326827
0.22557561400026316 0.46262823644357587 0.4538348803126526
0.22576135200142744 0.46262823644357587 0.45969711773326827
0.22594708900214755 0.4665363947239862 0.45676599902296044
0.22613262300001225 0.46262823644357587 0.45969711773326827
0.22631906400056323 0.4655593551538837 0.46458231558378116
0.22650494900153717 0.4606741573033708 0.46165119687347334
0.22669061299893656 0.45676599902296044 0.4606741573033708
0.22687633199893753 0.457743038593063 0.46262823644357587
0.2270617360009055 0.45481191988275516 0.4587200781631655
0.22724682500120252 0.457743038593063 0.45481191988275516
0.22743258099944796 0.46458231558378116 0.457743038593063
0.2276182070017967 0.46458231558378116 0.457743038593063
0.22780477800188237 0.4684904738641915 0.4538348803126526
0.22800831100175856 0.46946751343429405 0.45188080117244755
0.22822067800007062 0.467513434294089 0.45188080117244755
0.2284070450004947 0.4655593551538837 0.4557889594528579
0.22859320800125715 0.46262823644357587 0.4430874450415241
0.22878461200161837 0.4636052760136786 0.43917928676111373
0.22897175700200023 0.46262823644357587 0.43624816805080613
0.22915760500109172 0.4636052760136786 0.431362970200293
0.2293428609991679 0.45969711773326827 0.4323400097703958
0.22952887599967653 0.4606741573033708 0.4323400097703958
0.22971468800096773 0.45969711773326827 0.431362970200293
0.22990042500168784 0.457743038593063 0.4352711284807034
0.2300867920021119 0.457743038593063 0.43722520762090866
0.23027241800082265 0.45676599902296044 0.43624816805080613
0.2304590259991528 0.4557889594528579 0.4323400097703958
0.230665355000383 0.457743038593063 0.431362970200293
0.23085255600017263 0.45969711773326827 0.4284318514899854
0.23103799700038508 0.46262823644357587 0.4255007327796776
0.23122545600199373 0.46262823644357587 0.431362970200293
0.2314563410000119 0.46458231558378116 0.4323400097703958
0.23165102300117724 0.4665363947239862 0.43429408891060084
0.2318468710000161 0.46946751343429405 0.43722520762090866
0.2320367009997426 0.47239863214460187 0.4430874450415241
0.2322496790002333 0.4733756717147044 0.4509037616023448
0.23244869400150492 0.46946751343429405 0.457743038593063
0.2326403940023738 0.4655593551538837 0.46165119687347334
0.2328422419996059 0.4557889594528579 0.46165119687347334
0.23305851600161986 0.44894968246213973 0.467513434294089
0.23327343799974187 0.44211040547142155 0.467513434294089
0.23350865600150428 0.42940889106008795 0.46262823644357587
0.23374070700083394 0.4235466536394723 0.46165119687347334
0.2340150910022203 0.412799218368344 0.4587200781631655
0.23425255000256584 0.40205178309721545 0.4557889594528579
0.23447076800221112 0.3952125061064973 0.45676599902296044
0.23466945000109263 0.403028822667318 0.4557889594528579
0.2348851120004838 0.40009770395701016 0.4606741573033708
0.23508816400135402 0.40986809965803617 0.4509037616023448
0.2353000309994968 0.42159257449926724 0.4460185637518319
0.2355199529993115 0.4430874450415241 0.4460185637518319
0.23572276400227565 0.4655593551538837 0.441133365901319
0.23603779499899247 0.4909623839765511 0.4479726428920372
0.2363234200020088 0.49877870053737183 0.4460185637518319
0.2365489149997302 0.5046409379579873 0.45188080117244755
0.23678857800041442 0.5017098192476794 0.4557889594528579
0.23701137000171002 0.5056179775280898 0.4636052760136786
0.2372390880009334 0.5026868588177822 0.467513434294089
0.23748643599901698 0.49975574010747437 0.47142159257449934
0.23773433799942723 0.495847581827064 0.4665363947239862
0.23798864900163608 0.4938935026868587 0.4636052760136786
0.2382451810008206 0.4831460674157304 0.45481191988275516
0.23851404699962586 0.467513434294089 0.4528578407425501
0.238763375000417 0.44992672203224227 0.4528578407425501
0.23901376000139862 0.4333170493404983 0.4538348803126526
0.23928097699899809 0.4235466536394723 0.45481191988275516
0.23954186099945218 0.42159257449926724 0.45188080117244755
0.2398782439995557 0.4333170493404983 0.4479726428920372
0.2400827589990513 0.44211040547142155 0.441133365901319
0.24038816100073745 0.4509037616023448 0.43917928676111373
0.24060741599896573 0.4538348803126526 0.43429408891060084
0.2408138009996037 0.4509037616023448 0.4333170493404983
0.2410164460015949 0.44992672203224227 0.4333170493404983
0.241214146000857 0.4479726428920372 0.4323400097703958
0.2414107350014092 0.441133365901319 0.4284318514899854
0.24160313900210895 0.4382022471910112 0.431362970200293
0.24179906100107473 0.4323400097703958 0.4303859306301905
0.2420045389990264 0.42452369320957506 0.4323400097703958
0.24220742400211748 0.4186614557889594 0.43429408891060084
0.24240847600231064 0.412799218368344 0.44406448461162684
0.2426019170015934 0.4079140205178309 0.4401563263312165
0.2427890250000928 0.4079140205178309 0.43917928676111373
0.24297485500210314 0.4108451392281387 0.43917928676111373
0.24316238800020074 0.4186614557889594 0.4401563263312165
0.24334744000225328 0.41963849535906195 0.44211040547142155
0.24353321500166203 0.4264777723497801 0.4450415241817294
0.24371900800178992 0.4333170493404983 0.44992672203224227
0.24390443000083906 0.43624816805080613 0.4528578407425501
0.24409203799950774 0.44406448461162684 0.45969711773326827
0.24434514400127227 0.44992672203224227 0.46262823644357587
0.24453586299932795 0.45481191988275516 0.46946751343429405
0.24472169300133828 0.46458231558378116 0.4704445530043966
0.24490702299954137 0.4665363947239862 0.4763067904250122
0.24509226100053638 0.47142159257449934 0.4782608695652173
0.2452787200018065 0.46946751343429405 0.4851001465559355
0.245464717001596 0.4684904738641915 0.48216902784562765
0.2456523990003916 0.467513434294089 0.47923790913532005
0.24583950600208482 0.46946751343429405 0.4753297508549097
0.2460249659998226 0.4636052760136786 0.47239863214460187
0.2462112770008389 0.45969711773326827 0.4684904738641915
0.2463969039999938 0.45481191988275516 0.46458231558378116
0.24658310399900074 0.4509037616023448 0.4606741573033708
0.24676874900251278 0.44894968246213973 0.46165119687347334
0.24695417100156192 0.4460185637518319 0.45969711773326827
0.2471398900015629 0.4430874450415241 0.457743038593063
0.2473261650011409 0.44699560332193444 0.4557889594528579
0.24751347600249574 0.44699560332193444 0.45676599902296044
0.24774963800155092 0.4430874450415241 0.4606741573033708
0.24796480100121698 0.4450415241817294 0.46262823644357587
0.24821346300086589 0.44992672203224227 0.46165119687347334
0.24841199699949357 0.45188080117244755 0.4636052760136786
0.24863699300112785 0.4557889594528579 0.4606741573033708
0.24883604500064394 0.457743038593063 0.4587200781631655
0.249036299999716 0.46165119687347334 0.44992672203224227
0.24924542599910637 0.4636052760136786 0.441133365901319
0.2495156990007672 0.4655593551538837 0.43429408891060084
0.2497101949993521 0.457743038593063 0.42940889106008795
0.2499012850021245 0.45676599902296044 0.42159257449926724
0.2501023549993988 0.45969711773326827 0.42256961406936977
0.2503183139997418 0.4557889594528579 0.4186614557889594
0.2505150880024303 0.4528578407425501 0.42452369320957506
0.2507250100024976 0.4557889594528579 0.4303859306301905
0.25093202499920153 0.44992672203224227 0.43722520762090866
0.25115313200149103 0.44406448461162684 0.4460185637518319
0.25135603600210743 0.441133365901319 0.45481191988275516
0.25154853200001526 0.4450415241817294 0.457743038593063
0.2517351400019834 0.441133365901319 0.4606741573033708
0.25192280299961567 0.4382022471910112 0.46262823644357587
0.25218363200110616 0.43722520762090866 0.4636052760136786
0.2523834800012992 0.4401563263312165 0.46458231558378116
0.2525695690019347 0.43917928676111373 0.4636052760136786
0.2527565849995881 0.43917928676111373 0.4655593551538837
0.25294243300231756 0.4401563263312165 0.46458231558378116
0.253129782002361 0.4382022471910112 0.4636052760136786
0.2533154080010718 0.43722520762090866 0.4587200781631655
0.2535001079995709 0.43722520762090866 0.4557889594528579
0.2536879380022583 0.43722520762090866 0.45188080117244755
0.2538743049990444 0.43917928676111373 0.44406448461162684
0.25406052399921464 0.4460185637518319 0.43917928676111373
0.25424633500006166 0.45188080117244755 0.43722520762090866
0.2544316280000203 0.457743038593063 0.4333170493404983
0.2546296059990709 0.457743038593063 0.4333170493404983
0.2548186580024776 0.46262823644357587 0.4333170493404983
0.2550048590019287 0.46458231558378116 0.4323400097703958
0.2551908000023104 0.4655593551538837 0.4323400097703958
0.2553760000009788 0.46165119687347334 0.43722520762090866
0.25556155199956265 0.4655593551538837 0.4401563263312165
0.255747066999902 0.4665363947239862 0.44211040547142155
0.25593263799964916 0.47239863214460187 0.4430874450415241
0.25612987500062445 0.47728382999511476 0.4430874450415241
0.2563169269997161 0.48705422569614076 0.44406448461162684
0.25650264599971706 0.48998534440644836 0.44992672203224227
0.25669592100166483 0.4929164631167562 0.44894968246213973
0.25688313900172943 0.495847581827064 0.4538348803126526
0.2570936360025371 0.4929164631167562 0.45676599902296044
0.2572792989994923 0.4909623839765511 0.45969711773326827
0.25746492500184104 0.4831460674157304 0.46165119687347334
0.257649922001292 0.4753297508549097 0.45676599902296044
0.25783575199966435 0.46946751343429405 0.4587200781631655
0.2580209340012516 0.46165119687347334 0.45188080117244755
0.258206541002437 0.45676599902296044 0.4460185637518319
0.25839485300093656 0.4509037616023448 0.4450415241817294
0.25858649700239766 0.44406448461162684 0.44211040547142155
0.2587773830018705 0.4460185637518319 0.441133365901319
0.25896945299973595 0.4382022471910112 0.4401563263312165
0.2591921720013488 0.43429408891060084 0.4401563263312165
0.25938137200137135 0.43429408891060084 0.441133365901319
0.2595670170012454 0.43429408891060084 0.4450415241817294
0.2597522910000407 0.4352711284807034 0.4538348803126526
0.2599373060002108 0.43722520762090866 0.457743038593063
0.260153672999877 0.44211040547142155 0.46165119687347334
0.26037337200250477 0.4479726428920372 0.46165119687347334
0.26056799900106853 0.44992672203224227 0.46262823644357587
0.2607680690016423 0.45188080117244755 0.4655593551538837
0.26096695399974124 0.4509037616023448 0.467513434294089
0.26119543200184125 0.4509037616023448 0.467513434294089
0.261414094002248 0.44992672203224227 0.46458231558378116
0.2616063130008115 0.45188080117244755 0.4606741573033708
0.26179786500142654 0.44894968246213973 0.4557889594528579
0.2619918990021688 0.4479726428920372 0.4538348803126526
0.26219441300054314 0.4450415241817294 0.4479726428920372
0.26239291000092635 0.4450415241817294 0.4460185637518319
0.262590887999977 0.44699560332193444 0.4430874450415241
0.2627800879999995 0.43917928676111373 0.441133365901319
0.2629664180021791 0.43917928676111373 0.4450415241817294
0.26315198900192627 0.43624816805080613 0.4430874450415241
0.2633382080020965 0.4323400097703958 0.44699560332193444
0.26352344499900937 0.43429408891060084 0.4557889594528579
0.26370859000235214 0.4303859306301905 0.44992672203224227
0.2638969569998153 0.42745481191988266 0.4460185637518319
0.2640824900008738 0.4206155349291647 0.441133365901319
0.26427346800119267 0.4186614557889594 0.4382022471910112
0.26446063199909986 0.4137762579384465 0.4323400097703958
0.26468014599959133 0.40889106008793363 0.4303859306301905
0.2648771240019414 0.40205178309721545 0.4303859306301905
0.2651207119997707 0.4059599413776258 0.4323400097703958
0.26532130100167706 0.412799218368344 0.441133365901319
0.26555922300030943 0.42159257449926724 0.44894968246213973
0.2657554600009462 0.4264777723497801 0.44992672203224227
0.2659481600021536 0.43624816805080613 0.45481191988275516
0.26614217500173254 0.441133365901319 0.45676599902296044
0.266346522999811 0.4460185637518319 0.45676599902296044
0.2665420199991786 0.44894968246213973 0.45676599902296044
0.2667434420000063 0.45188080117244755 0.4587200781631655
0.2669376609992469 0.4528578407425501 0.45969711773326827
0.26712878699981957 0.457743038593063 0.45969711773326827
0.2673308020021068 0.45969711773326827 0.4587200781631655
0.2675185949992738 0.46262823644357587 0.45969711773326827
0.2677043510011572 0.4684904738641915 0.4606741573033708
0.26788986600149656 0.467513434294089 0.4636052760136786
0.26807573300175136 0.4684904738641915 0.4587200781631655
0.2682682289996592 0.4665363947239862 0.45481191988275516
0.268466780999006 0.46165119687347334 0.44992672203224227
0.2686655370016524 0.45676599902296044 0.44699560332193444
0.26887332900150795 0.4528578407425501 0.4479726428920372
0.2690677520004101 0.45481191988275516 0.44406448461162684
0.2692706560010265 0.4509037616023448 0.44699560332193444
0.2694693930025096 0.45188080117244755 0.4528578407425501
0.2696624820018769 0.44992672203224227 0.45676599902296044
0.26985958899967954 0.44699560332193444 0.46262823644357587
0.2700522710001678 0.4479726428920372 0.4684904738641915
0.27024217500002123 0.44894968246213973 0.4733756717147044
0.27043013500224333 0.44894968246213973 0.4753297508549097
0.2706173900005524 0.4450415241817294 0.4753297508549097
0.2708039060016745 0.4430874450415241 0.4753297508549097
0.27099071699922206 0.441133365901319 0.47435271128480694
0.2711767319997307 0.4382022471910112 0.47239863214460187
0.27136311800131807 0.4430874450415241 0.4655593551538837
0.2715478919999441 0.44211040547142155 0.4684904738641915
0.27173314800165826 0.4430874450415241 0.4557889594528579
0.2719186450012785 0.4401563263312165 0.44699560332193444
0.27212878900172655 0.43917928676111373 0.43722520762090866
0.2723182480003743 0.44211040547142155 0.43429408891060084
0.2725040040022577 0.4430874450415241 0.4264777723497801
0.27269022300242796 0.4479726428920372 0.4264777723497801
0.2730311800005438 0.4528578407425501 0.4333170493404983
0.27328798999951687 0.44992672203224227 0.44211040547142155
0.27348582000195165 0.4557889594528579 0.4430874450415241
0.27368552000189084 0.46165119687347334 0.4460185637518319
0.27398034799989546 0.4733756717147044 0.44699560332193444
0.27418962199953967 0.47728382999511476 0.45188080117244755
0.274386378001509 0.4831460674157304 0.44699560332193444
0.2746016700002656 0.4880312652662433 0.45188080117244755
0.2748010739996971 0.48900830483634583 0.45481191988275516
0.2750297730017337 0.4811919882755251 0.457743038593063
0.2752655100011907 0.4763067904250122 0.46262823644357587
0.2754650060014683 0.47142159257449934 0.467513434294089
0.27566792799916584 0.4665363947239862 0.47239863214460187
0.27588568400096847 0.46165119687347334 0.4753297508549097
0.27616449400011334 0.4587200781631655 0.47239863214460187
0.27644417400006205 0.45481191988275516 0.46946751343429405
0.27669037300074706 0.4606741573033708 0.4684904738641915
0.27699464500256 0.4665363947239862 0.45676599902296044
0.2773404910003592 0.4636052760136786 0.4528578407425501
0.2776255780008796 0.4557889594528579 0.44992672203224227
0.2778646110018599 0.44992672203224227 0.4509037616023448
0.2780716810011654 0.44992672203224227 0.4509037616023448
0.2782943250022072 0.4450415241817294 0.44894968246213973
0.2785132290009642 0.4352711284807034 0.4528578407425501
0.2787238550008624 0.4333170493404983 0.4538348803126526
0.2789190729999973 0.42940889106008795 0.45676599902296044
0.2791080700008024 0.42745481191988266 0.457743038593063
0.27929775200027507 0.42940889106008795 0.45676599902296044
0.2794834330015874 0.43624816805080613 0.4557889594528579
0.27967148600146174 0.4460185637518319 0.4557889594528579
0.27985892700235127 0.4538348803126526 0.4528578407425501
0.2800449230016966 0.4587200781631655 0.44992672203224227
0.28025578999950085 0.4655593551538837 0.44699560332193444
0.2804428599993116 0.46262823644357587 0.44406448461162684
0.2806293569992704 0.4655593551538837 0.44211040547142155
0.28081768700212706 0.4665363947239862 0.43722520762090866
0.2810029239990399 0.4587200781631655 0.4323400097703958
0.2811957359990629 0.45969711773326827 0.4323400097703958
0.2814131949999137 0.4587200781631655 0.4284318514899854
0.28159945100196637 0.46165119687347334 0.4284318514899854
0.28181616900110384 0.4587200781631655 0.4284318514899854
0.28200372100036475 0.4587200781631655 0.42940889106008795
0.28219168099894887 0.457743038593063 0.4284318514899854
0.28237760300180526 0.4538348803126526 0.431362970200293
0.2825635070003045 0.4460185637518319 0.4352711284807034
0.28275009600110934 0.4401563263312165 0.4401563263312165
0.2829840000013064 0.42940889106008795 0.44211040547142155
0.28318653300084407 0.42256961406936977 0.4460185637518319
0.28339843600042514 0.4137762579384465 0.44699560332193444
0.28359954400002607 0.40986809965803617 0.4460185637518319
0.28378844799954095 0.40986809965803617 0.4430874450415241
0.2839769630008959 0.4079140205178309 0.44699560332193444
0.2841710150023573 0.40693698094772834 0.4430874450415241
0.28435977100161836 0.40693698094772834 0.4528578407425501
0.28454647100079455 0.4137762579384465 0.45188080117244755
0.2847343200010073 0.41670737664875435 0.44992672203224227
0.28492152000035276 0.42159257449926724 0.4538348803126526
0.28512864599906607 0.4323400097703958 0.44992672203224227
0.2853175130003365 0.4401563263312165 0.45188080117244755
0.28550347200143733 0.441133365901319 0.4509037616023448
0.2856906170018192 0.4479726428920372 0.45481191988275516
0.2858779100024549 0.44699560332193444 0.45969711773326827
0.28606342499915627 0.44992672203224227 0.457743038593063
0.2863007910018496 0.44992672203224227 0.4606741573033708
0.2864863989998412 0.4430874450415241 0.4587200781631655
0.2866720990023168 0.43722520762090866 0.46262823644357587
0.28685796600257163 0.4333170493404983 0.46262823644357587
0.28704320399992866 0.4352711284807034 0.4636052760136786
0.28722868200202356 0.431362970200293 0.4636052760136786
0.28741841900045983 0.4352711284807034 0.4636052760136786
0.28760430500187795 0.431362970200293 0.4665363947239862
0.28779109800234437 0.431362970200293 0.4684904738641915
0.2879766309997649 0.43917928676111373 0.47435271128480694
0.2881650540002738 0.4401563263312165 0.47239863214460187
0.2883535870023479 0.44211040547142155 0.47239863214460187
0.2885388430004241 0.4557889594528579 0.4704445530043966
0.2887277840018214 0.4557889594528579 0.467513434294089
0.2889130590010609 0.4665363947239862 0.4636052760136786
0.28909816600207705 0.48216902784562765 0.45676599902296044
0.2892840519998572 0.4811919882755251 0.4557889594528579
0.2894693449998158 0.486077186126038 0.44992672203224227
0.2896551930025453 0.486077186126038 0.44699560332193444
0.2898405050000292 0.486077186126038 0.4460185637518319
0.29002587200011476 0.47923790913532005 0.44699560332193444
0.2902112390002003 0.4733756717147044 0.44894968246213973
0.2903966430021683 0.4684904738641915 0.45188080117244755
0.29058545400039293 0.4665363947239862 0.45188080117244755
0.2907709880018956 0.46458231558378116 0.4557889594528579
0.29095661400060635 0.467513434294089 0.45969711773326827
0.29115125899988925 0.467513434294089 0.4636052760136786
0.2913690880013746 0.4684904738641915 0.4636052760136786
0.2915560290020949 0.467513434294089 0.4636052760136786
0.29174137800146127 0.4665363947239862 0.4636052760136786
0.2919275040003413 0.46262823644357587 0.467513434294089
0.29213187099958304 0.4655593551538837 0.4636052760136786
0.29231877500205883 0.4636052760136786 0.46165119687347334
0.29250347500055796 0.4606741573033708 0.45676599902296044
0.29268939800022054 0.45969711773326827 0.4528578407425501
0.2928750979990582 0.45969711773326827 0.4509037616023448
0.29306094700223184 0.45969711773326827 0.44699560332193444
0.29324620199986384 0.4587200781631655 0.44406448461162684
0.2934370690018113 0.457743038593063 0.4401563263312165
0.29362236200176994 0.4587200781631655 0.4382022471910112
0.293806969999423 0.4557889594528579 0.43917928676111373
0.2939918190022581 0.44992672203224227 0.44211040547142155
0.2941766479998478 0.4509037616023448 0.4450415241817294
0.29436225600147736 0.45481191988275516 0.44894968246213973
0.2945480119997228 0.4587200781631655 0.4538348803126526
0.2947333609990892 0.45969711773326827 0.4528578407425501
0.294918913001311 0.4636052760136786 0.46165119687347334
0.2951037240018195 0.4665363947239862 0.45969711773326827
0.29528910999943037 0.4704445530043966 0.4509037616023448
0.2954833290023089 0.4733756717147044 0.44699560332193444
0.29567656600193004 0.47435271128480694 0.44211040547142155
0.2959183210004994 0.4733756717147044 0.4352711284807034
0.2961318170018785 0.4684904738641915 0.4323400097703958
0.29632340600073803 0.4655593551538837 0.431362970200293
0.29650947700065444 0.45969711773326827 0.42940889106008795
0.29669528800150147 0.457743038593063 0.4235466536394723
0.29688178500146023 0.4557889594528579 0.4206155349291647
0.2970675590004248 0.45676599902296044 0.4206155349291647
0.2972528329992201 0.44894968246213973 0.4157303370786516
0.2974381820022245 0.44699560332193444 0.41963849535906195
0.29762323400063906 0.441133365901319 0.4255007327796776
0.29780897200180334 0.4352711284807034 0.43429408891060084
0.298036874999525 0.4264777723497801 0.43722520762090866
0.2982503519997408 0.41963849535906195 0.44406448461162684
0.29848060800213716 0.4186614557889594 0.45188080117244755
0.2986737710016314 0.41670737664875435 0.44992672203224227
0.29886773000180256 0.4176844162188569 0.4557889594528579
0.2990609120024601 0.40889106008793363 0.44894968246213973
0.2992537970021658 0.4010747435271129 0.44992672203224227
0.2994949040003121 0.3932584269662922 0.44894968246213973
0.2996923999999126 0.38739618954567656 0.45188080117244755
0.29988780400162796 0.38446507083536874 0.4557889594528579
0.3001005600017379 0.3903273082559844 0.4557889594528579
0.3003390550002223 0.40009770395701016 0.4587200781631655
0.3005487920017913 0.40889106008793363 0.46165119687347334
0.3007753620004223 0.42256961406936977 0.45481191988275516
0.30100021000180277 0.441133365901319 0.4509037616023448
0.3012509090003732 0.4557889594528579 0.4528578407425501
0.3014777749995119 0.47728382999511476 0.4528578407425501
0.3016900490001717 0.48900830483634583 0.45481191988275516
0.30188795299909543 0.4909623839765511 0.44699560332193444
0.3020963750022929 0.4978016609672691 0.4479726428920372
0.3023092050025298 0.5026868588177822 0.44406448461162684
0.30251097899963497 0.512457254518808 0.44211040547142155
0.30270721600027173 0.5114802149487054 0.4401563263312165
0.30290706400046474 0.5046409379579873 0.43917928676111373
0.30312500500076567 0.48900830483634583 0.4382022471910112
0.30337435199908214 0.4665363947239862 0.43722520762090866
0.30362142200101516 0.44992672203224227 0.44406448461162684
0.30390608300149324 0.43624816805080613 0.43722520762090866
0.3042466879996937 0.4333170493404983 0.4401563263312165
0.3045882000005804 0.43429408891060084 0.441133365901319
0.3048296039996785 0.4430874450415241 0.44211040547142155
0.3050307849989622 0.44406448461162684 0.4450415241817294
0.30521702199985157 0.4430874450415241 0.44406448461162684
0.30540268600088893 0.44992672203224227 0.44699560332193444
0.30559029299911344 0.44992672203224227 0.45188080117244755
0.3057772899992415 0.45676599902296044 0.4479726428920372
0.30596399000205565 0.4606741573033708 0.44894968246213973
0.3061493759996665 0.4684904738641915 0.4509037616023448
0.30633526100064046 0.47435271128480694 0.4538348803126526
0.3065223510020587 0.4782608695652173 0.45188080117244755
0.3067076619990985 0.4831460674157304 0.45676599902296044
0.30689343600170105 0.4782608695652173 0.4557889594528579
0.3070790259989735 0.4763067904250122 0.4606741573033708
0.3072651520014915 0.47435271128480694 0.45969711773326827
0.30745083399961004 0.47142159257449934 0.4587200781631655
0.3076365340020857 0.46946751343429405 0.4655593551538837
0.30782314200041583 0.4665363947239862 0.4606741573033708
0.3080087679991266 0.467513434294089 0.46262823644357587
0.3082187830004841 0.4665363947239862 0.46262823644357587
0.30842924199896515 0.4636052760136786 0.46458231558378116
0.3086152569994738 0.46262823644357587 0.46946751343429405
0.30880123500173795 0.45969711773326827 0.4684904738641915
0.30898723200152745 0.457743038593063 0.4665363947239862
0.30917224700169754 0.4538348803126526 0.4665363947239862
0.30935772500015446 0.4460185637518319 0.4684904738641915
0.30954353700144566 0.4430874450415241 0.47142159257449934
0.3097292919992469 0.4401563263312165 0.47435271128480694
0.30994443700183183 0.43429408891060084 0.47239863214460187
0.31013123000229825 0.4303859306301905 0.4733756717147044
0.3103165970023838 0.43722520762090866 0.4704445530043966
0.310502667001856 0.42940889106008795 0.4684904738641915
0.3106879229999322 0.4303859306301905 0.467513434294089
0.31087358700096956 0.4382022471910112 0.46458231558378116
0.31106002800152055 0.441133365901319 0.4636052760136786
0.31124515400006203 0.4460185637518319 0.4606741573033708
0.31143070600228384 0.4479726428920372 0.4587200781631655
0.3116242030009744 0.44992672203224227 0.46458231558378116
0.31180990299981204 0.4538348803126526 0.4636052760136786
0.31199532500249916 0.45676599902296044 0.4636052760136786
0.31219874800081016 0.4636052760136786 0.4655593551538837
0.312386374000198 0.46946751343429405 0.4655593551538837
0.3125722410004528 0.4811919882755251 0.4655593551538837
0.31275871899924823 0.4763067904250122 0.46458231558378116
0.31294447500113165 0.4811919882755251 0.46458231558378116
0.31314482300149393 0.48412310698583294 0.4655593551538837
0.31333076400187565 0.4880312652662433 0.4636052760136786
0.31351635300234193 0.48998534440644836 0.46458231558378116
0.31370260900075664 0.4929164631167562 0.467513434294089
0.3138885869993828 0.4909623839765511 0.4665363947239862
0.31407447300080094 0.48900830483634583 0.4655593551538837
0.3142610809991311 0.4880312652662433 0.4665363947239862
0.3144458550013951 0.4851001465559355 0.467513434294089
0.3146582400004263 0.48216902784562765 0.4606741573033708
0.31484621799972956 0.4811919882755251 0.45481191988275516
0.31503254800190916 0.4753297508549097 0.44699560332193444
0.31521860000066226 0.467513434294089 0.43722520762090866
0.3154035970001132 0.46165119687347334 0.4284318514899854
0.3155889270019543 0.4528578407425501 0.42256961406936977
0.31577481199929025 0.4460185637518319 0.42256961406936977
0.31596030900254846 0.4382022471910112 0.42452369320957506
0.3161536200022965 0.4352711284807034 0.42940889106008795
0.3163845420021971 0.41963849535906195 0.43917928676111373
0.3166040569994948 0.41475329750854906 0.44406448461162684
0.3168094419997942 0.41475329750854906 0.4450415241817294
0.31700962300237734 0.41670737664875435 0.44894968246213973
0.31720473099994706 0.42256961406936977 0.4509037616023448
0.3173903759998211 0.42452369320957506 0.4509037616023448
0.31762905700088595 0.4284318514899854 0.4557889594528579
0.31783020100192516 0.431362970200293 0.45969711773326827
0.3180173639993882 0.431362970200293 0.45969711773326827
0.31820576800237177 0.43722520762090866 0.457743038593063
0.3183913390021189 0.4323400097703958 0.45969711773326827
0.3185762800021621 0.4352711284807034 0.45969711773326827
0.3187626469989482 0.43722520762090866 0.457743038593063
0.3189482920024602 0.4479726428920372 0.4528578407425501
0.31913391800117097 0.4557889594528579 0.44894968246213973
0.3193194699997548 0.4655593551538837 0.44211040547142155
0.31950530000176514 0.4763067904250122 0.4382022471910112
0.31969090799975675 0.47923790913532005 0.431362970200293
0.31987618299899623 0.48216902784562765 0.4303859306301905
0.32006212399937795 0.4811919882755251 0.43429408891060084
0.32025221300136764 0.4782608695652173 0.4255007327796776
0.32043909799904213 0.47435271128480694 0.4264777723497801
0.32062465000126394 0.46458231558378116 0.4235466536394723
0.32081149900113815 0.4509037616023448 0.4235466536394723
0.3210164580013952 0.43917928676111373 0.4206155349291647
0.32120254700203077 0.4323400097703958 0.4186614557889594
0.32138948799911304 0.4255007327796776 0.4206155349291647
0.32157498500237125 0.42256961406936977 0.4255007327796776
0.3217611300024146 0.41963849535906195 0.431362970200293
0.3219477380007447 0.42159257449926724 0.4382022471910112
0.32213295600013225 0.42452369320957506 0.43429408891060084
0.32231915699958336 0.4255007327796776 0.431362970200293
0.3225040790021012 0.4235466536394723 0.43429408891060084
0.32268976100021973 0.4255007327796776 0.4382022471910112
0.32287507300134166 0.4255007327796776 0.441133365901319
0.3230617170011101 0.4235466536394723 0.4460185637518319
0.32324749200051883 0.4284318514899854 0.44992672203224227
0.3234326370002236 0.42745481191988266 0.4557889594528579
0.32361883699923055 0.43429408891060084 0.4587200781631655
0.3238505180015636 0.4333170493404983 0.46165119687347334
0.32403944000179763 0.4333170493404983 0.46458231558378116
0.3242350290020113 0.43624816805080613 0.46262823644357587
0.3244225449998339 0.43917928676111373 0.4665363947239862
0.32461876299930736 0.44406448461162684 0.4587200781631655
0.32480392700017546 0.44992672203224227 0.45676599902296044
0.3249894790023973 0.4557889594528579 0.45676599902296044
0.32517486399956397 0.46165119687347334 0.45676599902296044
0.32536047200119356 0.45969711773326827 0.45676599902296044
0.32554574599998887 0.4606741573033708 0.4587200781631655
0.3257318540017877 0.4655593551538837 0.4557889594528579
0.32592142499925103 0.4684904738641915 0.4557889594528579
0.3261071990018536 0.4704445530043966 0.4528578407425501
0.3262932140023622 0.4704445530043966 0.44992672203224227
0.3264784890016017 0.47239863214460187 0.44992672203224227
0.32666391100065084 0.47239863214460187 0.44992672203224227
0.32684979700206895 0.47142159257449934 0.44992672203224227
0.3270346450008219 0.467513434294089 0.44992672203224227
0.327220123999723 0.4655593551538837 0.4538348803126526
0.3274050649997662 0.46262823644357587 0.4587200781631655
0.32761963500161073 0.46262823644357587 0.46165119687347334
0.3278053350004484 0.46458231558378116 0.46262823644357587
0.3279907579999417 0.4655593551538837 0.4636052760136786
0.32817666200207896 0.4606741573033708 0.4606741573033708
0.32836271400083206 0.4557889594528579 0.45676599902296044
0.3285482659994159 0.44992672203224227 0.45481191988275516
0.32873396600189153 0.4479726428920372 0.4528578407425501
0.32891977799954475 0.4460185637518319 0.44406448461162684
0.32911258899912355 0.44406448461162684 0.43624816805080613
0.32930212300198036 0.44211040547142155 0.4333170493404983
0.3294878599990625 0.44211040547142155 0.43624816805080613
0.329682393999974 0.44406448461162684 0.431362970200293
0.32986827900094795 0.4450415241817294 0.4382022471910112
0.33005375699940487 0.4450415241817294 0.4450415241817294
0.3302390499993635 0.44406448461162684 0.4538348803126526
0.3304248429994914 0.4430874450415241 0.45969711773326827
0.3306100990012055 0.43917928676111373 0.4606741573033708
0.330795374000445 0.4382022471910112 0.4636052760136786
0.3309822779992828 0.43624816805080613 0.46262823644357587
0.33119149599951925 0.43429408891060084 0.45676599902296044
0.33140973300032783 0.4303859306301905 0.4538348803126526
0.33160556300208555 0.42159257449926724 0.44992672203224227
0.33179804099927424 0.41963849535906195 0.44699560332193444
0.33199598099963623 0.41670737664875435 0.4430874450415241
0.33229438299895264 0.42159257449926724 0.44406448461162684
0.33251095400191844 0.42745481191988266 0.4460185637518319
0.3327065430021321 0.4323400097703958 0.44406448461162684
0.33295092700063833 0.4382022471910112 0.44699560332193444
0.333143405001465 0.44211040547142155 0.44894968246213973
0.33335932699992554 0.44699560332193444 0.4538348803126526
0.3335671380009444 0.457743038593063 0.4509037616023448
0.3338024670010782 0.46458231558378116 0.4528578407425501
0.33402303700131597 0.46946751343429405 0.44992672203224227
0.3342374040003051 0.47435271128480694 0.4509037616023448
0.3344452890014509 0.4811919882755251 0.4479726428920372
0.3346401560011145 0.486077186126038 0.44894968246213973
0.33483709700158215 0.49877870053737183 0.4479726428920372
0.33504694500152254 0.5056179775280898 0.4450415241817294
0.3352431080020324 0.5114802149487054 0.45481191988275516
0.33544271500068135 0.5065950170981925 0.45969711773326827
0.3356463780000922 0.495847581827064 0.46458231558378116
0.3358500409995031 0.4802149487054226 0.4733756717147044
0.33605016699948465 0.4655593551538837 0.47435271128480694
0.33631573599996045 0.44992672203224227 0.47239863214460187
0.33650952899915865 0.441133365901319 0.4684904738641915
0.33669767399987904 0.4382022471910112 0.4636052760136786
0.33689057800074806 0.4401563263312165 0.45481191988275516
0.33707662999950117 0.43917928676111373 0.45188080117244755
0.33726384900000994 0.441133365901319 0.44992672203224227
0.33745062299931305 0.4430874450415241 0.45188080117244755
0.33763721200011787 0.4450415241817294 0.44992672203224227
0.3378228569999919 0.4450415241817294 0.44894968246213973
0.33801005799978157 0.4509037616023448 0.44992672203224227
0.338195184001961 0.44992672203224227 0.45188080117244755
0.3383806990023004 0.4528578407425501 0.44699560332193444
0.33860988000014913 0.4538348803126526 0.4479726428920372
0.33881298699998297 0.45676599902296044 0.4479726428920372
0.33901187300216407 0.4538348803126526 0.4460185637518319
0.3392287579990807 0.4528578407425501 0.44211040547142155
0.339466124001774 0.4479726428920372 0.43917928676111373
0.3397335820009175 0.441133365901319 0.44211040547142155
0.3400209659994289 0.4382022471910112 0.44406448461162684
0.3403172190010082 0.4333170493404983 0.44699560332193444
0.34060304800004815 0.4333170493404983 0.4509037616023448
0.34085502400193946 0.4333170493404983 0.4538348803126526
0.3410717240003578 0.42940889106008795 0.45969711773326827
0.3412598499999149 0.42940889106008795 0.46458231558378116
0.3414453660006984 0.42745481191988266 0.46165119687347334
0.3416328250023071 0.4303859306301905 0.4655593551538837
0.3418456729996251 0.4333170493404983 0.4655593551538837
0.3420317250020162 0.4323400097703958 0.4684904738641915
0.34221738899941556 0.4323400097703958 0.4665363947239862
0.3424026259999664 0.4382022471910112 0.467513434294089
0.3425878260022728 0.4382022471910112 0.46458231558378116
0.3427766380009416 0.43722520762090866 0.45969711773326827
0.3429627830009849 0.4401563263312165 0.45676599902296044
0.3431487609996111 0.441133365901319 0.4557889594528579
0.3433341650015791 0.44406448461162684 0.45481191988275516
0.3435204020024685 0.4401563263312165 0.4538348803126526
0.3437053800007561 0.441133365901319 0.45676599902296044
0.3438906360024703 0.43722520762090866 0.46165119687347334
0.3440760030025558 0.43429408891060084 0.4606741573033708
0.34426714800065383 0.4284318514899854 0.4636052760136786
0.3444530330016278 0.4255007327796776 0.4636052760136786
0.3446384000017133 0.42452369320957506 0.46262823644357587
0.3448237299999164 0.4255007327796776 0.4636052760136786
0.34500917100012884 0.42940889106008795 0.46458231558378116
0.3451935750017583 0.4333170493404983 0.4636052760136786
0.34538007200171705 0.4352711284807034 0.4606741573033708
0.34556601300209877 0.43722520762090866 0.4655593551538837
0.3457528060025652 0.43624816805080613 0.46165119687347334
0.3459391729993513 0.4323400097703958 0.46165119687347334
0.34612489199935226 0.4303859306301905 0.46165119687347334
0.3463276100010262 0.4333170493404983 0.4636052760136786
0.3465146070011542 0.43429408891060084 0.46458231558378116
0.34670036299939966 0.43624816805080613 0.46946751343429405
0.3468863039997814 0.43722520762090866 0.46946751343429405
0.3470717449999938 0.44992672203224227 0.46946751343429405
0.34725731599974097 0.4509037616023448 0.4753297508549097
0.3474426829998265 0.4587200781631655 0.47239863214460187
0.3476284759999544 0.4704445530043966 0.47142159257449934
0.3478271019994281 0.47923790913532005 0.46458231558378116
0.348016727999493 0.4851001465559355 0.4606741573033708
0.34822883500237367 0.4851001465559355 0.45676599902296044
0.3484150360018248 0.48216902784562765 0.45188080117244755
0.34860068000125466 0.4753297508549097 0.44894968246213973
0.34878688100070576 0.47239863214460187 0.4430874450415241
0.3489851180020196 0.4655593551538837 0.43917928676111373
0.34917089200098417 0.46165119687347334 0.43624816805080613
0.34935679599948344 0.45481191988275516 0.4323400097703958
0.3496829390023777 0.44894968246213973 0.4401563263312165
0.3498993419998442 0.4528578407425501 0.4255007327796776
0.35008532000210835 0.44699560332193444 0.4264777723497801
0.35027535400149645 0.4460185637518319 0.4284318514899854
0.35047270200084313 0.4460185637518319 0.4284318514899854
0.35068308699919726 0.44699560332193444 0.4303859306301905
0.350886416999856 0.4460185637518319 0.42940889106008795
0.35107315400091466 0.44992672203224227 0.4284318514899854
0.35125913199954084 0.457743038593063 0.4255007327796776
0.3514444620013819 0.4655593551538837 0.42452369320957506
0.3516300699993735 0.4782608695652173 0.4264777723497801
0.35181502900013584 0.47923790913532005 0.42452369320957506
0.352000599999883 0.4831460674157304 0.4235466536394723
0.3522262260012212 0.48900830483634583 0.42745481191988266
0.3524139080000168 0.49877870053737183 0.42745481191988266
0.35259896000206936 0.49975574010747437 0.431362970200293
0.35278553000171087 0.49877870053737183 0.4382022471910112
0.3529710270013311 0.4938935026868587 0.43917928676111373
0.3531559870025376 0.4851001465559355 0.44406448461162684
0.353341594000085 0.4763067904250122 0.44699560332193444
0.3535274610003398 0.46946751343429405 0.44894968246213973
0.353712717002054 0.4655593551538837 0.44894968246213973
0.353899306999665 0.46165119687347334 0.45481191988275516
0.35412633899977664 0.45481191988275516 0.457743038593063
0.3543138919994817 0.4509037616023448 0.4636052760136786
0.3544998140023381 0.44699560332193444 0.4655593551538837
0.3546853110019583 0.4479726428920372 0.4665363947239862
0.35487130700130365 0.4538348803126526 0.4684904738641915
0.3550570080005855 0.45969711773326827 0.4684904738641915
0.35524291199908475 0.4733756717147044 0.4665363947239862
0.35542852000071434 0.48412310698583294 0.47239863214460187
0.3556148870011384 0.4929164631167562 0.4665363947239862
0.35580084600223927 0.4978016609672691 0.46458231558378116
0.35598682400086545 0.5046409379579873 0.4606741573033708
0.3561738950011204 0.5056179775280898 0.45969711773326827
0.35636089200124843 0.5056179775280898 0.45676599902296044
0.35654846200122847 0.49975574010747437 0.4587200781631655
0.35673425500135636 0.4938935026868587 0.46262823644357587
0.35691991800194955 0.48705422569614076 0.4606741573033708
0.35710545199981425 0.4782608695652173 0.46458231558378116
0.35729333800190943 0.4733756717147044 0.4636052760136786
0.3574804449999647 0.4684904738641915 0.467513434294089
0.3576671830014675 0.46458231558378116 0.4636052760136786
0.3578550130005169 0.46262823644357587 0.4655593551538837
0.35807497200221405 0.4528578407425501 0.4636052760136786
0.3582601900016016 0.44406448461162684 0.4655593551538837
0.3584459279991279 0.4352711284807034 0.4665363947239862
0.3586326469994674 0.42745481191988266 0.46946751343429405
0.35881971699927817 0.4235466536394723 0.47142159257449934
0.3590052690015 0.41475329750854906 0.467513434294089
0.35919028500211425 0.41182217879824123 0.46458231558378116
0.35937592900154414 0.40693698094772834 0.4606741573033708
0.35956163000082597 0.4040058622374205 0.4557889594528579
0.3597468120024132 0.4040058622374205 0.44894968246213973
0.35993145600150456 0.4010747435271129 0.44211040547142155
0.36013082299905363 0.40205178309721545 0.43722520762090866
0.36031724600252346 0.39912066438690763 0.431362970200293
0.3605032609993941 0.403028822667318 0.42745481191988266
0.3606886460001988 0.4108451392281387 0.4235466536394723
0.3608743469994806 0.42256961406936977 0.42452369320957506
0.3610599919993547 0.4323400097703958 0.42940889106008795
0.36127722799938056 0.43722520762090866 0.4333170493404983
0.3614636509992124 0.43429408891060084 0.43722520762090866
0.36164909199942485 0.4323400097703958 0.4382022471910112
0.3618419960002939 0.4255007327796776 0.43917928676111373
0.36202815900105634 0.4157303370786516 0.43722520762090866
0.36221417400156497 0.412799218368344 0.43917928676111373
0.36241268899902934 0.4079140205178309 0.43722520762090866
0.3626064630007022 0.40693698094772834 0.44211040547142155
0.36279562699928647 0.412799218368344 0.4479726428920372
0.3629816970023967 0.41670737664875435 0.44992672203224227
0.36316786099996534 0.41670737664875435 0.4509037616023448
0.3633554309999454 0.4186614557889594 0.45481191988275516
0.3635514650013647 0.42159257449926724 0.4538348803126526
0.3637430349990609 0.4264777723497801 0.4557889594528579
0.36392888400223455 0.4333170493404983 0.45676599902296044
0.36414680600137217 0.43917928676111373 0.457743038593063
0.3643346169992583 0.4479726428920372 0.45676599902296044
0.36452631800057134 0.45676599902296044 0.4557889594528579
0.3647125550014607 0.46262823644357587 0.4538348803126526
0.3648982920021808 0.4665363947239862 0.457743038593063
0.36508410399983404 0.4684904738641915 0.4538348803126526
0.36526986000171746 0.47239863214460187 0.4557889594528579
0.36545572700197226 0.4753297508549097 0.4557889594528579
0.36564639000062016 0.48216902784562765 0.45676599902296044
0.3658358489992679 0.47728382999511476 0.4509037616023448
0.36602245700123603 0.4782608695652173 0.44992672203224227
0.36623265700109187 0.47728382999511476 0.4460185637518319
0.3664188760012621 0.4811919882755251 0.44406448461162684
0.36660463199950755 0.46946751343429405 0.4382022471910112
0.3667928130016662 0.4636052760136786 0.4382022471910112
0.3669794400011597 0.457743038593063 0.4450415241817294
0.3671649179996166 0.45188080117244755 0.43917928676111373
0.36735045200111927 0.4479726428920372 0.4401563263312165
0.3675355410014163 0.4382022471910112 0.43917928676111373
0.36772133400154416 0.43429408891060084 0.43917928676111373
0.36790710800050874 0.431362970200293 0.43624816805080613
0.36814856700220844 0.4323400097703958 0.44406448461162684
0.3683386740012793 0.431362970200293 0.43722520762090866
0.36852463399918634 0.43917928676111373 0.441133365901319
0.36870955700214836 0.4460185637518319 0.4479726428920372
0.36889399800202227 0.44699560332193444 0.4479726428920372
0.369079624000733 0.4460185637518319 0.44894968246213973
0.36926497199965524 0.44699560332193444 0.4509037616023448
0.3694513390000793 0.44406448461162684 0.4538348803126526
0.36963716900208965 0.441133365901319 0.45676599902296044
0.36982314700071584 0.43917928676111373 0.4606741573033708
0.3700087370016263 0.4352711284807034 0.46946751343429405
0.37019469599908916 0.4382022471910112 0.4684904738641915
0.37038030400071875 0.4323400097703958 0.47435271128480694
0.37056578199917567 0.4303859306301905 0.4782608695652173
0.3707507600011013 0.4284318514899854 0.4782608695652173
0.37093596100021387 0.4284318514899854 0.4802149487054226
0.3711216420015262 0.4323400097703958 0.48216902784562765
0.37130723200243665 0.43722520762090866 0.486077186126038
0.3714923949992226 0.4450415241817294 0.4851001465559355
0.37167770599990035 0.45188080117244755 0.4831460674157304
0.3718630729999859 0.46262823644357587 0.47728382999511476
0.3720484400000714 0.467513434294089 0.47142159257449934
0.3722347520015319 0.46946751343429405 0.4684904738641915
0.3724203599995235 0.47435271128480694 0.45969711773326827
0.3726057820022106 0.4782608695652173 0.44992672203224227
0.37279074199977913 0.4811919882755251 0.44406448461162684
0.3729756829998223 0.486077186126038 0.43624816805080613
0.37316060500234016 0.486077186126038 0.431362970200293
0.37335999100105255 0.48900830483634583 0.42940889106008795
0.3735748760009301 0.4938935026868587 0.4303859306301905
0.3737624829991546 0.486077186126038 0.42940889106008795
0.37394859100095346 0.486077186126038 0.4352711284807034
0.37414127300144173 0.48412310698583294 0.43624816805080613
0.37432675099989865 0.47923790913532005 0.44894968246213973
0.37451176600006875 0.4753297508549097 0.43917928676111373
0.3746981149997737 0.46946751343429405 0.4430874450415241
0.3748836480008322 0.46262823644357587 0.43624816805080613
0.3750689410007908 0.45969711773326827 0.4352711284807034
0.3752538270018704 0.4538348803126526 0.4352711284807034
0.375439285999164 0.4509037616023448 0.44406448461162684
0.37562482000066666 0.45188080117244755 0.44992672203224227
0.37581024300015997 0.44992672203224227 0.45676599902296044
0.37599498000054155 0.45188080117244755 0.46165119687347334
0.37619645800077706 0.44894968246213973 0.467513434294089
0.37638212100137025 0.44894968246213973 0.467513434294089
0.3765685250000388 0.44894968246213973 0.46458231558378116
0.37675396600025124 0.44992672203224227 0.4606741573033708
0.376938555000379 0.4538348803126526 0.457743038593063
0.37712368199936463 0.4528578407425501 0.4528578407425501
0.37730995600213646 0.45481191988275516 0.44894968246213973
0.3774958970025182 0.45188080117244755 0.4460185637518319
0.37768187500114436 0.44992672203224227 0.4401563263312165
0.3778677049995167 0.4479726428920372 0.4430874450415241
0.37805325700173853 0.44894968246213973 0.441133365901319
0.3782395500020357 0.44211040547142155 0.43722520762090866
0.3784248800002388 0.4382022471910112 0.4382022471910112
0.37860956200165674 0.4401563263312165 0.4382022471910112
0.3787950219993945 0.43722520762090866 0.43917928676111373
0.37898031499935314 0.4382022471910112 0.4382022471910112
0.37916897800096194 0.4401563263312165 0.43917928676111373
0.3793593449991022 0.44406448461162684 0.441133365901319
0.3795447859993146 0.4460185637518319 0.4460185637518319
0.3797302640014095 0.44992672203224227 0.45481191988275516
0.3799164459996973 0.44992672203224227 0.4509037616023448
0.3801175900007365 0.45188080117244755 0.44992672203224227
0.3803063090017531 0.4479726428920372 0.44992672203224227
0.38049076899915235 0.4450415241817294 0.4479726428920372
0.38067606199911097 0.44211040547142155 0.44699560332193444
0.3808612809989427 0.43917928676111373 0.44211040547142155
0.38104914799987455 0.43624816805080613 0.4430874450415241
0.3812402920011664 0.4333170493404983 0.44211040547142155
0.3814609360015311 0.431362970200293 0.44406448461162684
0.3816561740022735 0.4303859306301905 0.4460185637518319
0.3818473179999273 0.43429408891060084 0.4460185637518319
0.38207642500128713 0.43917928676111373 0.44699560332193444
0.3822709029991529 0.44406448461162684 0.44992672203224227
0.38246540000181994 0.44992672203224227 0.44894968246213973
0.38266400700013037 0.44992672203224227 0.45188080117244755
0.38286404099926585 0.467513434294089 0.4509037616023448
0.3830677959995228 0.4684904738641915 0.44894968246213973
0.38328016300147283 0.4909623839765511 0.4528578407425501
0.38351875100124744 0.48900830483634583 0.4538348803126526
0.3837478019995615 0.4851001465559355 0.4528578407425501
0.3839730950021476 0.4753297508549097 0.4557889594528579
0.38424446000135504 0.4655593551538837 0.4528578407425501
0.3844426790019497 0.45969711773326827 0.4538348803126526
0.38463823100028094 0.45481191988275516 0.4509037616023448
0.3848924480007554 0.45676599902296044 0.4479726428920372
0.3851233330024115 0.45188080117244755 0.4528578407425501
0.38532025500171585 0.4528578407425501 0.4557889594528579
0.3855216410011053 0.457743038593063 0.45676599902296044
0.38575804400170455 0.45676599902296044 0.4606741573033708
0.38595417000033194 0.45481191988275516 0.4636052760136786
0.3861547590022383 0.45188080117244755 0.4655593551538837
0.38635770000109915 0.4450415241817294 0.467513434294089
0.38657606600099825 0.43722520762090866 0.46946751343429405
0.386823839002318 0.4303859306301905 0.467513434294089
0.38709835299960105 0.4284318514899854 0.46165119687347334
0.3874051810016681 0.42940889106008795 0.46262823644357587
0.3876721020023979 0.43429408891060084 0.46262823644357587
0.3879110599991691 0.44406448461162684 0.46262823644357587
0.38867660200048704 0.4333170493404983 0.46165119687347334
0.3891061870017438 0.43429408891060084 0.46262823644357587
0.38936336700135143 0.43429408891060084 0.45969711773326827
0.3895660300004238 0.4352711284807034 0.45969711773326827
0.3897682490023726 0.4430874450415241 0.457743038593063
0.39002780000009807 0.4528578407425501 0.457743038593063
0.3902532770007383 0.4528578407425501 0.45481191988275516
0.3904541070005507 0.4587200781631655 0.45188080117244755
0.3906464550018427 0.457743038593063 0.44992672203224227
0.39083930299966596 0.4587200781631655 0.44699560332193444
0.39103881800110685 0.4528578407425501 0.4479726428920372
0.3912389440010884 0.44211040547142155 0.44894968246213973
0.39145208899935824 0.4382022471910112 0.44992672203224227
0.3916561959995306 0.431362970200293 0.4479726428920372
0.3918518220016267 0.4303859306301905 0.4460185637518319
0.39204252200215706 0.4333170493404983 0.44211040547142155
0.39228911100144614 0.4401563263312165 0.441133365901319
0.39248277400110965 0.44699560332193444 0.43624816805080613
0.3926827700015565 0.4538348803126526 0.43624816805080613
0.39287613700071233 0.45969711773326827 0.43624816805080613
0.39306417099942337 0.46458231558378116 0.4333170493404983
0.3932511120001436 0.47142159257449934 0.4352711284807034
0.3934374050004408 0.4753297508549097 0.43722520762090866
0.39367940000011004 0.4763067904250122 0.43917928676111373
0.3938667299989902 0.4733756717147044 0.43917928676111373
0.39405243000146584 0.46946751343429405 0.44211040547142155
0.3942397230021015 0.467513434294089 0.4430874450415241
0.394425312999374 0.4655593551538837 0.4460185637518319
0.39461140200000955 0.457743038593063 0.44894968246213973
0.39479739799935487 0.45188080117244755 0.45188080117244755
0.39498295100202085 0.44894968246213973 0.45969711773326827
0.3951683180021064 0.44699560332193444 0.4636052760136786
0.3953552220009442 0.4509037616023448 0.467513434294089
0.3955410150010721 0.4450415241817294 0.4704445530043966
0.3957276780020038 0.44992672203224227 0.4704445530043966
0.3959132859999954 0.4528578407425501 0.46946751343429405
0.3960985970006732 0.4557889594528579 0.46262823644357587
0.3963140750020102 0.45969711773326827 0.4606741573033708
0.39649970100072096 0.45969711773326827 0.4509037616023448
0.39668536400131416 0.46165119687347334 0.4450415241817294
0.3968702870006382 0.46262823644357587 0.43722520762090866
0.3970558760011045 0.46458231558378116 0.43429408891060084
0.39724133600248024 0.46458231558378116 0.4303859306301905
0.3974278140012757 0.46458231558378116 0.4303859306301905
0.3976126990019111 0.4655593551538837 0.43429408891060084
0.39779821400225046 0.4655593551538837 0.43917928676111373
0.39803415500136907 0.46262823644357587 0.4430874450415241
0.39822220700079924 0.4557889594528579 0.44699560332193444
0.39840870300031384 0.44992672203224227 0.45676599902296044
0.3985964410021552 0.44406448461162684 0.45969711773326827
0.3987823820025369 0.43917928676111373 0.4636052760136786
0.3989678229991114 0.43917928676111373 0.4655593551538837
0.39915274500162923 0.43429408891060084 0.4704445530043966
0.39933863099940936 0.4382022471910112 0.4684904738641915
0.3995442939994973 0.43429408891060084 0.47435271128480694
0.39973017900047125 0.43624816805080613 0.47142159257449934
0.39991545399971073 0.4401563263312165 0.4655593551538837
0.40013935699971626 0.43917928676111373 0.45969711773326827
0.4003280569995695 0.441133365901319 0.4509037616023448
0.4005309060012223 0.4430874450415241 0.44211040547142155
0.40073341999959666 0.44406448461162684 0.42745481191988266
0.4009411570004886 0.441133365901319 0.4235466536394723
0.4011388389990316 0.4450415241817294 0.4206155349291647
0.401327076000598 0.4450415241817294 0.4235466536394723
0.4015126660015085 0.4430874450415241 0.4264777723497801
0.40169864400013466 0.43917928676111373 0.4303859306301905
0.4018852510016586 0.43917928676111373 0.4401563263312165
0.40207815500252764 0.43917928676111373 0.44406448461162684
0.4022723180023604 0.441133365901319 0.4479726428920372
0.402457611002319 0.43722520762090866 0.44992672203224227
0.4026434600018547 0.4401563263312165 0.4557889594528579
0.40282916000069235 0.4401563263312165 0.4479726428920372
0.40301497200198355 0.4401563263312165 0.4460185637518319
0.4032003940010327 0.441133365901319 0.4479726428920372
0.40338746500128764 0.441133365901319 0.44211040547142155
0.4035735729994485 0.441133365901319 0.441133365901319
0.40376051400016877 0.4382022471910112 0.4401563263312165
0.40394552900033887 0.441133365901319 0.4401563263312165
0.40414911799962283 0.44211040547142155 0.4430874450415241
0.4043368000020564 0.441133365901319 0.44699560332193444
0.404522888999054 0.441133365901319 0.4509037616023448
0.4047657180017268 0.44211040547142155 0.45188080117244755
0.4049532509998244 0.43917928676111373 0.45969711773326827
0.40513871100120014 0.4352711284807034 0.4636052760136786
0.40532478200111655 0.4323400097703958 0.46458231558378116
0.40551072300149826 0.431362970200293 0.46946751343429405
0.4056960710004205 0.43624816805080613 0.4733756717147044
0.4058825120009715 0.4303859306301905 0.46458231558378116
0.4060685270014801 0.43429408891060084 0.46458231558378116
0.4062538020007196 0.4352711284807034 0.46262823644357587
0.4064395390014397 0.4382022471910112 0.45481191988275516
0.4066258689999813 0.44406448461162684 0.44992672203224227
0.40681149500233005 0.4509037616023448 0.44406448461162684
0.4069975109996449 0.46165119687347334 0.4401563263312165
0.4071831180008303 0.4753297508549097 0.43624816805080613
0.40736950400241767 0.4851001465559355 0.4352711284807034
0.40755553700000746 0.486077186126038 0.4352711284807034
0.4077413859995431 0.48412310698583294 0.4352711284807034
0.4079284010003903 0.4831460674157304 0.43624816805080613
0.40812821200233884 0.4831460674157304 0.43917928676111373
0.4083163940013037 0.4782608695652173 0.441133365901319
0.40853529699961655 0.4811919882755251 0.4401563263312165
0.4087231459998293 0.4831460674157304 0.4382022471910112
0.40891236500101513 0.4831460674157304 0.43722520762090866
0.40909876899968367 0.4782608695652173 0.43624816805080613
0.4092841910023708 0.47239863214460187 0.441133365901319
0.4094704470007855 0.46262823644357587 0.44211040547142155
0.4096562400009134 0.457743038593063 0.44406448461162684
0.4098424590010836 0.45188080117244755 0.44699560332193444
0.41002938100064057 0.4479726428920372 0.44699560332193444
0.410225341001933 0.4509037616023448 0.4479726428920372
0.41041168900119374 0.4538348803126526 0.44406448461162684
0.4105974640006025 0.45969711773326827 0.4479726428920372
0.4107847570012382 0.46458231558378116 0.4450415241817294
0.41097071600233903 0.47142159257449934 0.4450415241817294
0.4111600649994216 0.4733756717147044 0.44211040547142155
0.41134682100164355 0.4763067904250122 0.4401563263312165
0.41153292799936025 0.47239863214460187 0.4401563263312165
0.41172548000031384 0.4704445530043966 0.4450415241817294
0.4119119030001457 0.467513434294089 0.44406448461162684
0.41209801100194454 0.4665363947239862 0.4460185637518319
0.4123355990013806 0.46946751343429405 0.45188080117244755
0.41255753899895353 0.47142159257449934 0.45188080117244755
0.4127571650024038 0.4684904738641915 0.4557889594528579
0.4129455690017494 0.4665363947239862 0.457743038593063
0.41313278800225817 0.4684904738641915 0.45969711773326827
0.4133187289990019 0.47239863214460187 0.46165119687347334
0.4135047260024294 0.47923790913532005 0.46262823644357587
0.4136908520013094 0.4763067904250122 0.46262823644357587
0.4138757930013526 0.47435271128480694 0.4636052760136786
0.4140634190007404 0.4753297508549097 0.4636052760136786
0.4142492860009952 0.47239863214460187 0.4636052760136786
0.41443446799894446 0.47239863214460187 0.46262823644357587
0.4146205760007433 0.4665363947239862 0.4606741573033708
0.414852146001067 0.46262823644357587 0.46262823644357587
0.415043457000138 0.4557889594528579 0.467513434294089
0.41523845399933634 0.4528578407425501 0.46458231558378116
0.4154371170006925 0.4450415241817294 0.46946751343429405
0.41564203899906715 0.441133365901319 0.46946751343429405
0.4158427020011004 0.43429408891060084 0.46946751343429405
0.41603671700067935 0.4323400097703958 0.4704445530043966
0.41628454600140685 0.4284318514899854 0.4684904738641915
0.4165164490004827 0.4255007327796776 0.4665363947239862
0.4168865720021131 0.4303859306301905 0.467513434294089
0.41717973300183075 0.431362970200293 0.46262823644357587
0.4173917670013907 0.4333170493404983 0.46165119687347334
0.4175853560009273 0.4303859306301905 0.4606741573033708
0.4177844450023258 0.42745481191988266 0.46165119687347334
0.41800855200199294 0.4264777723497801 0.4430874450415241
0.4182210290018702 0.42745481191988266 0.441133365901319
0.4184318400002667 0.4303859306301905 0.4382022471910112
