0 0.4352711284807034 0.44699560332193444
0.00032636399919283576 0.4352711284807034 0.4430874450415241
0.0005333420012902934 0.43722520762090866 0.431362970200293
0.0007311529989237897 0.4352711284807034 0.42452369320957506
0.0009470379991398659 0.4430874450415241 0.41670737664875435
0.0011477379994175863 0.4401563263312165 0.42452369320957506
0.0013384570011112373 0.43917928676111373 0.4264777723497801
0.0015481379996344913 0.4401563263312165 0.431362970200293
0.0017371159992762841 0.4352711284807034 0.4333170493404983
0.0019261130000813864 0.43917928676111373 0.4382022471910112
0.002115942999807885 0.43917928676111373 0.44406448461162684
0.0023033649995340966 0.43917928676111373 0.4557889594528579
0.002490139999281382 0.4401563263312165 0.4587200781631655
0.002677025000593858 0.44406448461162684 0.45969711773326827
0.002862984998500906 0.4460185637518319 0.4636052760136786
0.003048869999474846 0.4479726428920372 0.4684904738641915
0.0032349959983548615 0.4509037616023448 0.4782608695652173
0.00342249299865216 0.4509037616023448 0.4948705422569615
0.0036081010002817493 0.4538348803126526 0.5046409379579873
0.003794078998907935 0.457743038593063 0.5065950170981925
0.003979335000622086 0.44894968246213973 0.5095261358085001
0.004164590998698259 0.4509037616023448 0.49682462139716654
0.004350457998953061 0.45188080117244755 0.48216902784562765
0.004535601998213679 0.4528578407425501 0.45481191988275516
0.004720765999081777 0.44894968246213973 0.4303859306301905
0.004906170001049759 0.4528578407425501 0.4010747435271129
0.00509266600056435 0.4528578407425501 0.3776257938446508
0.005278459000692237 0.4557889594528579 0.3610161211529066
0.005464362999191508 0.457743038593063 0.3512457254518808
0.005652211999404244 0.45969711773326827 0.3531998045920859
0.005837968001287663 0.4587200781631655 0.36003908158280407
0.006023371999617666 0.45969711773326827 0.3707865168539326
0.0062086649995762855 0.4606741573033708 0.3903273082559844
0.006397271998139331 0.4587200781631655 0.4108451392281387
0.006583638998563401 0.45969711773326827 0.431362970200293
0.006769802999770036 0.45969711773326827 0.44894968246213973
0.006955466000363231 0.4587200781631655 0.45969711773326827
0.007140925001294818 0.45676599902296044 0.4636052760136786
0.0073265520004497375 0.457743038593063 0.46165119687347334
0.007511732997954823 0.46165119687347334 0.4538348803126526
0.007697082000959199 0.45969711773326827 0.43917928676111373
0.007888318999903277 0.4636052760136786 0.43624816805080613
0.008076594000158366 0.4606741573033708 0.43917928676111373
0.008269034999102587 0.4606741573033708 0.44992672203224227
0.008455864001007285 0.45969711773326827 0.4704445530043966
0.00864156500028912 0.46165119687347334 0.48998534440644836
0.008829006001178641 0.4606741573033708 0.5017098192476794
0.009038984000653727 0.4655593551538837 0.5046409379579873
0.009232517000782536 0.46458231558378116 0.5026868588177822
0.009421699000085937 0.4636052760136786 0.49975574010747437
0.009626676997868344 0.4636052760136786 0.4938935026868587
0.009812581000005594 0.46165119687347334 0.4880312652662433
0.009998114001064096 0.46458231558378116 0.48216902784562765
0.010183943999436451 0.4606741573033708 0.4763067904250122
0.010368756000389112 0.4636052760136786 0.4704445530043966
0.0105542150013207 0.46165119687347334 0.46946751343429405
0.010739564000687096 0.46165119687347334 0.46458231558378116
0.010924985999736236 0.45969711773326827 0.4606741573033708
0.011110650000773603 0.45969711773326827 0.46262823644357587
0.011296497999865096 0.46165119687347334 0.46165119687347334
0.011481958001240855 0.46165119687347334 0.4655593551538837
0.011667435999697773 0.45969711773326827 0.47142159257449934
0.011852673000248615 0.45676599902296044 0.47435271128480694
0.012037373999191914 0.46165119687347334 0.4782608695652173
0.012225925998791354 0.45676599902296044 0.4811919882755251
0.01241344099980779 0.4557889594528579 0.4811919882755251
0.012599288998899283 0.46262823644357587 0.4753297508549097
0.012784581998857902 0.4528578407425501 0.46946751343429405
0.012969152998266509 0.4538348803126526 0.4665363947239862
0.01315500100099598 0.4509037616023448 0.4636052760136786
0.013340904999495251 0.45481191988275516 0.4655593551538837
0.013540938998630736 0.44894968246213973 0.4636052760136786
0.013730768998357235 0.4538348803126526 0.467513434294089
0.013917153999500442 0.45188080117244755 0.4684904738641915
0.014102540000749286 0.4509037616023448 0.4733756717147044
0.014287555000919383 0.457743038593063 0.4587200781631655
0.014473217997874599 0.4509037616023448 0.4401563263312165
0.014660548000392737 0.44992672203224227 0.4176844162188569
0.014846803998807445 0.44894968246213973 0.3932584269662922
0.015032208000775427 0.4479726428920372 0.3805569125549584
0.0152174639988516 0.44699560332193444 0.3756717147044455
0.01540257200031192 0.4460185637518319 0.37957987298485585
0.015588365000439808 0.4430874450415241 0.38153395212506114
0.015773528000863735 0.44406448461162684 0.38641914997557403
0.015958821000822354 0.4430874450415241 0.39423546653639474
0.01614352099932148 0.43722520762090866 0.39912066438690763
0.016329035999660846 0.44211040547142155 0.4059599413776258
0.01651455100000021 0.44211040547142155 0.40986809965803617
0.01670080699841492 0.4460185637518319 0.4137762579384465
0.01688667399866972 0.44406448461162684 0.4079140205178309
0.01707276399974944 0.441133365901319 0.3952125061064973
0.017261092998523964 0.4430874450415241 0.3854421104054715
0.01744749700083048 0.44699560332193444 0.3776257938446508
0.017634660998737672 0.4460185637518319 0.37957987298485585
0.017820953999034828 0.44699560332193444 0.38935026868588185
0.018006932001298992 0.4479726428920372 0.4079140205178309
0.01819257700117305 0.4450415241817294 0.4401563263312165
0.018377869000687497 0.4450415241817294 0.46946751343429405
0.01856390299872146 0.4460185637518319 0.4938935026868587
0.018749251998087857 0.4460185637518319 0.5163654127992183
0.018935544998385012 0.4460185637518319 0.5319980459208598
0.019121559998893645 0.44406448461162684 0.5486077186126037
0.019306796999444487 0.44211040547142155 0.567171470444553
0.019492626997816842 0.43917928676111373 0.5847581827063997
0.01967934599815635 0.4401563263312165 0.5994137762579383
0.019865472000674345 0.43917928676111373 0.6199316072300929
0.020059839000168722 0.4382022471910112 0.6257938446507083
0.020246260999556398 0.4352711284807034 0.6257938446507083
0.0204321279998112 0.43624816805080613 0.6209086468001954
0.02061849500023527 0.43624816805080613 0.6082071323888618
0.020805398999073077 0.43624816805080613 0.5837811431362969
0.020991303001210326 0.43624816805080613 0.5583781143136297
0.021177244998398237 0.4352711284807034 0.5280898876404494
0.02136290799899143 0.4333170493404983 0.4938935026868587
0.021553292997850804 0.4382022471910112 0.4587200781631655
0.021744327001215424 0.4401563263312165 0.42452369320957506
0.021933674997853814 0.44211040547142155 0.3913043478260869
0.022122857000795193 0.4401563263312165 0.3659013190034197
0.02231240900073317 0.44406448461162684 0.34733756717147046
0.022501368999655824 0.44699560332193444 0.3287738153395212
0.022690475998388138 0.441133365901319 0.3082559843673669
0.022879416999785462 0.44406448461162684 0.29262335124572547
0.023068580998369725 0.4460185637518319 0.2857840742550073
0.023257169999851612 0.44699560332193444 0.2867611138251098
0.023445480997906998 0.4479726428920372 0.3063019052271616
0.023634273999050492 0.44992672203224227 0.32486565705911086
0.023823085000913125 0.4509037616023448 0.3434294088910601
0.02401221200125292 0.4538348803126526 0.35906204201270153
0.024204245000873925 0.45481191988275516 0.36492427943331696
0.024393611998675624 0.4557889594528579 0.3688324377137273
0.02458312700036913 0.4587200781631655 0.37957987298485585
0.024771476000751136 0.45481191988275516 0.39423546653639474
0.024959916998341214 0.4606741573033708 0.4284318514899854
0.025155097999231657 0.457743038593063 0.4655593551538837
0.025344020999909844 0.457743038593063 0.5065950170981925
0.025545739001245238 0.4557889594528579 0.5368832437713726
0.025737347001268063 0.45676599902296044 0.5593551538837322
0.025926991998858284 0.45676599902296044 0.5720566682950659
0.026116913999430835 0.4587200781631655 0.5749877870053737
0.02630616999886115 0.4587200781631655 0.5720566682950659
0.026495943999179872 0.45676599902296044 0.5544699560332194
0.02668499599894858 0.46165119687347334 0.5417684416218858
0.026874381997913588 0.45676599902296044 0.522227650219834
0.027063841000199318 0.457743038593063 0.5046409379579873
0.027253096999629634 0.46165119687347334 0.4909623839765511
0.02744220499880612 0.45481191988275516 0.48216902784562765
0.02763136800058419 0.45676599902296044 0.47239863214460187
0.027819975999591406 0.457743038593063 0.46946751343429405
0.028008582998154452 0.46262823644357587 0.46262823644357587
0.028198023999721045 0.4587200781631655 0.45676599902296044
0.028386779998982092 0.4636052760136786 0.4557889594528579
0.028575739997904748 0.467513434294089 0.45188080117244755
0.02876442200067686 0.4704445530043966 0.44211040547142155
0.02895388099932461 0.4684904738641915 0.4235466536394723
0.029143452000425896 0.4704445530043966 0.40205178309721545
0.02933228199981386 0.4704445530043966 0.376648754274548
0.02952266699867323 0.4665363947239862 0.3561309233023937
0.02971262699793442 0.4665363947239862 0.3424523693209576
0.02990193799996632 0.46165119687347334 0.3277967757694187
0.03009100900089834 0.46165119687347334 0.3277967757694187
0.03028061599979992 0.46262823644357587 0.33170493404982904
0.030469687000731938 0.45676599902296044 0.3385442110405472
0.030658923998998944 0.45969711773326827 0.3512457254518808
0.030848383998090867 0.457743038593063 0.37176355642403514
0.031037417000334244 0.457743038593063 0.3883732291157791
0.03122650599834742 0.46458231558378116 0.4059599413776258
0.03141528099877178 0.45676599902296044 0.4206155349291647
0.03160398099862505 0.457743038593063 0.42940889106008795
0.03179262599951471 0.45676599902296044 0.4401563263312165
0.03198119599983329 0.4557889594528579 0.4450415241817294
0.032177136999962386 0.45676599902296044 0.45676599902296044
0.032366466999519616 0.4557889594528579 0.4665363947239862
0.032555334000790026 0.4557889594528579 0.4811919882755251
0.03274434899867629 0.457743038593063 0.49877870053737183
0.03293364199998905 0.4587200781631655 0.5271128480703469
0.03312810200077365 0.45969711773326827 0.5427454811919883
0.0333175609994214 0.45676599902296044 0.5583781143136297
0.03351828000086243 0.46165119687347334 0.578895945285784
0.0337088499982201 0.45481191988275516 0.5749877870053737
0.033897680001246044 0.4538348803126526 0.5730337078651686
0.03408678800042253 0.45481191988275516 0.5710796287249633
0.034275433001312194 0.4557889594528579 0.550561797752809
0.03446461400017142 0.4538348803126526 0.5261358085002443
0.03465355499793077 0.4557889594528579 0.4948705422569615
0.03484255199873587 0.4557889594528579 0.46165119687347334
0.03503112299949862 0.4528578407425501 0.431362970200293
0.03521997099960572 0.4528578407425501 0.40889106008793363
0.03540917099962826 0.45188080117244755 0.39716658524670256
0.03559790899817017 0.44699560332193444 0.4010747435271129
0.03578646099776961 0.44699560332193444 0.40986809965803617
0.035975049999251496 0.44211040547142155 0.42159257449926724
0.036163435001071775 0.4430874450415241 0.42159257449926724
0.036352449998958036 0.441133365901319 0.4235466536394723
0.03654155799813452 0.441133365901319 0.4206155349291647
0.03672981400086428 0.4382022471910112 0.4235466536394723
0.036918772999342764 0.441133365901319 0.4264777723497801
0.037107658998138504 0.44211040547142155 0.441133365901319
0.03729656300129136 0.44211040547142155 0.4636052760136786
0.03748650399938924 0.4401563263312165 0.4938935026868587
0.037688574000640074 0.43917928676111373 0.524181729360039
0.03787831199952052 0.43917928676111373 0.5486077186126037
0.03806884499863372 0.43624816805080613 0.567171470444553
0.03825808200053871 0.4352711284807034 0.5779189057156815
0.038447300998086575 0.431362970200293 0.5876893014167073
0.03863640900090104 0.4323400097703958 0.578895945285784
0.038825665000331355 0.4323400097703958 0.5749877870053737
0.03901401300026919 0.4333170493404983 0.5632633121641426
0.039203101998282364 0.4352711284807034 0.5456765999022961
0.03939204299967969 0.43429408891060084 0.5319980459208598
0.039580669999850215 0.43624816805080613 0.5095261358085001
0.039769202998286346 0.43722520762090866 0.4831460674157304
0.03995805199883762 0.43917928676111373 0.44894968246213973
0.04014701100095408 0.44406448461162684 0.41670737664875435
0.04033558199807885 0.44699560332193444 0.3903273082559844
0.04052474499985692 0.44699560332193444 0.3629702002931119
0.040713667000090936 0.44992672203224227 0.35417684416218864
0.04090246000123443 0.44992672203224227 0.358085002442599
0.041091604998655384 0.4460185637518319 0.36980947728383007
0.041288063999672886 0.44406448461162684 0.3737176355642404
0.04147641300005489 0.4430874450415241 0.3834880312652662
0.04166694599916809 0.43917928676111373 0.3913043478260869
0.04185636900001555 0.4401563263312165 0.39716658524670256
0.0420451799982402 0.43917928676111373 0.40009770395701016
0.04223393600113923 0.4382022471910112 0.4049829018075233
0.04242278499805252 0.4401563263312165 0.40205178309721545
0.042612206998455804 0.44406448461162684 0.4059599413776258
0.04280172200014931 0.44211040547142155 0.40205178309721545
0.042990699999791104 0.44406448461162684 0.4010747435271129
0.04317969700059621 0.44406448461162684 0.3952125061064973
0.04336869300095714 0.44992672203224227 0.3903273082559844
0.043557152999710524 0.44894968246213973 0.3834880312652662
0.04374588999780826 0.45188080117244755 0.38153395212506114
0.043935182999121025 0.4528578407425501 0.3756717147044455
0.04412414299804368 0.44992672203224227 0.3786028334147533
0.044324750000669155 0.44992672203224227 0.38641914997557403
0.04451341299863998 0.4509037616023448 0.4049829018075233
0.04470179900090443 0.45481191988275516 0.4264777723497801
0.044890277000376955 0.44699560332193444 0.4450415241817294
0.045078513998305425 0.44699560332193444 0.45676599902296044
0.045267528999829665 0.44894968246213973 0.4704445530043966
0.04545713699917542 0.44699560332193444 0.467513434294089
0.045647762999578845 0.45188080117244755 0.4636052760136786
0.04583668600025703 0.45188080117244755 0.4587200781631655
0.04602575600074488 0.44992672203224227 0.457743038593063
0.046214808000513585 0.4528578407425501 0.4587200781631655
0.046403063999605365 0.4557889594528579 0.4684904738641915
0.04659235700091813 0.45676599902296044 0.4811919882755251
0.04678046499975608 0.45676599902296044 0.48216902784562765
0.046969220999017125 0.46262823644357587 0.4851001465559355
0.047157438999420265 0.4606741573033708 0.4831460674157304
0.047345990999019705 0.46262823644357587 0.4782608695652173
0.047534394998365315 0.46165119687347334 0.46946751343429405
0.04772302199853584 0.46165119687347334 0.4587200781631655
0.04791135199775454 0.4606741573033708 0.45676599902296044
0.048100069998326944 0.4606741573033708 0.4606741573033708
0.0482924739990267 0.4606741573033708 0.46458231558378116
0.048481859997991705 0.457743038593063 0.47435271128480694
0.04867007899883902 0.4606741573033708 0.4802149487054226
0.048858316000405466 0.457743038593063 0.4763067904250122
0.04904796099799569 0.4606741573033708 0.4753297508549097
0.04923690199939301 0.46262823644357587 0.4655593551538837
0.04943311999886646 0.4606741573033708 0.44894968246213973
0.049624209001194686 0.46165119687347334 0.4401563263312165
0.049813094999990426 0.46165119687347334 0.4186614557889594
0.05000201700022444 0.46262823644357587 0.40889106008793363
0.05019136600094498 0.46165119687347334 0.4108451392281387
0.050380028998915805 0.4587200781631655 0.41182217879824123
0.05056897000031313 0.45676599902296044 0.4206155349291647
0.0507576700001664 0.45969711773326827 0.43429408891060084
0.05094729600023129 0.45969711773326827 0.4479726428920372
0.05113631199856172 0.457743038593063 0.4606741573033708
0.0513248819988803 0.4587200781631655 0.4684904738641915
0.05151311900044675 0.45969711773326827 0.4811919882755251
0.05170137499953853 0.4587200781631655 0.48216902784562765
0.051889575999666704 0.45969711773326827 0.4802149487054226
0.052078220000112196 0.457743038593063 0.4704445530043966
0.052266791000874946 0.4684904738641915 0.45676599902296044
0.05245486199783045 0.4606741573033708 0.4479726428920372
0.052643283997895196 0.46262823644357587 0.4557889594528579
0.05283167000015965 0.45969711773326827 0.457743038593063
0.053019611001218436 0.4587200781631655 0.4704445530043966
0.053208328998152865 0.45676599902296044 0.486077186126038
0.05339754799933871 0.4538348803126526 0.5065950170981925
0.0536004329987918 0.4557889594528579 0.5202735710796287
0.05378981899775681 0.4538348803126526 0.5202735710796287
0.05397862999961944 0.4528578407425501 0.5212506106497312
0.05416727500050911 0.4509037616023448 0.5134342940889105
0.05435628999839537 0.44894968246213973 0.49975574010747437
0.05454508299953886 0.44992672203224227 0.4831460674157304
0.054733912998926826 0.4509037616023448 0.4636052760136786
0.05492189099823008 0.45188080117244755 0.44211040547142155
0.05511027600005036 0.44992672203224227 0.4206155349291647
0.05529838399888831 0.4479726428920372 0.40693698094772834
0.05548684400127968 0.4450415241817294 0.39716658524670256
0.05567521099874284 0.44992672203224227 0.4010747435271129
0.055863818000943866 0.44406448461162684 0.4040058622374205
0.05605261099844938 0.441133365901319 0.4108451392281387
0.05624112599980435 0.44406448461162684 0.4206155349291647
0.056437622999510495 0.44406448461162684 0.42745481191988266
0.0566281559986237 0.44211040547142155 0.43429408891060084
0.056817190001311246 0.43917928676111373 0.43624816805080613
0.05700583499856293 0.4401563263312165 0.43624816805080613
0.05719460899854312 0.4382022471910112 0.43624816805080613
0.057388328001252376 0.43917928676111373 0.4382022471910112
0.05758554600106436 0.43917928676111373 0.441133365901319
0.0577746169983584 0.44211040547142155 0.43722520762090866
0.057963150000432506 0.4401563263312165 0.44211040547142155
0.05815194299793802 0.43624816805080613 0.43722520762090866
0.058340143998066196 0.43917928676111373 0.43722520762090866
0.05852943599893479 0.43917928676111373 0.4460185637518319
0.05905585299842642 0.43917928676111373 0.4450415241817294
0.05925157199817477 0.4401563263312165 0.4450415241817294
0.059441086999868276 0.43722520762090866 0.4401563263312165
0.05963363900082186 0.43624816805080613 0.43722520762090866
0.0598228390008444 0.43917928676111373 0.4382022471910112
0.06001524299790617 0.43429408891060084 0.4323400097703958
0.060221461000764975 0.4352711284807034 0.431362970200293
0.060422346999985166 0.4382022471910112 0.4333170493404983
0.060621787000854965 0.43624816805080613 0.42940889106008795
0.06082506099846796 0.4352711284807034 0.431362970200293
0.06102972399821738 0.43624816805080613 0.4303859306301905
0.06123270199896069 0.43624816805080613 0.4303859306301905
0.061441810001269914 0.43624816805080613 0.4303859306301905
0.06169074900026317 0.4401563263312165 0.4255007327796776
0.06194659700122429 0.43917928676111373 0.4323400097703958
0.06217798099896754 0.43917928676111373 0.4352711284807034
0.06237714400049299 0.441133365901319 0.44406448461162684
0.06257323300087592 0.4430874450415241 0.45676599902296044
0.06277252599829808 0.4460185637518319 0.47728382999511476
0.06296935600039433 0.4479726428920372 0.4880312652662433
0.06316249999872525 0.4479726428920372 0.49682462139716654
0.0633535529996152 0.45188080117244755 0.5017098192476794
0.0635584560004645 0.44894968246213973 0.49682462139716654
0.06378421100089327 0.4460185637518319 0.48216902784562765
0.0639967630013416 0.44992672203224227 0.46946751343429405
0.0641968519994407 0.44992672203224227 0.4587200781631655
0.06439388600119855 0.44992672203224227 0.44992672203224227
0.06458708599893725 0.457743038593063 0.43722520762090866
0.0647848039989185 0.44894968246213973 0.4333170493404983
0.0649797080004646 0.44894968246213973 0.4303859306301905
0.06517627900029765 0.44894968246213973 0.43429408891060084
0.06537090499841725 0.45188080117244755 0.431362970200293
0.06557082699873718 0.45188080117244755 0.4333170493404983
0.06580667500020354 0.4509037616023448 0.43429408891060084
0.0660311339997861 0.4538348803126526 0.42745481191988266
0.06629309200070566 0.4538348803126526 0.42745481191988266
0.06651406899982248 0.4528578407425501 0.41475329750854906
0.06671289899895783 0.4528578407425501 0.3981436248168051
0.06690709900067304 0.4557889594528579 0.3834880312652662
0.06710126200050581 0.45481191988275516 0.36980947728383007
0.06729888799964101 0.4538348803126526 0.36980947728383007
0.0674917739997909 0.457743038593063 0.38251099169516367
0.06768314099826966 0.4528578407425501 0.4049829018075233
0.06787506299951929 0.45188080117244755 0.441133365901319
0.06806965199939441 0.4528578407425501 0.4782608695652173
0.06826340800034814 0.4538348803126526 0.49682462139716654
0.06845999700090033 0.45188080117244755 0.5007327796775769
0.06866908599840826 0.4538348803126526 0.5036638983878847
0.06889913700069883 0.45969711773326827 0.5085490962383976
0.06909937399905175 0.4636052760136786 0.5163654127992183
0.06929531499918085 0.4704445530043966 0.5280898876404494
0.06953923699984443 0.467513434294089 0.5359062042012701
0.06977421400006278 0.46946751343429405 0.5378602833414754
0.06998139500137768 0.47142159257449934 0.540791402051783
0.07017920599901117 0.4704445530043966 0.5388373229115779
0.07037338800000725 0.47142159257449934 0.5290669272105519
0.07057129199893097 0.4684904738641915 0.5134342940889105
0.07076680699901772 0.47239863214460187 0.4929164631167562
0.0709639699998661 0.46946751343429405 0.467513434294089
0.07115891099965665 0.46946751343429405 0.44211040547142155
0.07134861099984846 0.47239863214460187 0.41963849535906195
0.0715386629999557 0.46946751343429405 0.38935026868588185
0.07172943700061296 0.4733756717147044 0.3659013190034197
0.07192545200086897 0.46946751343429405 0.35906204201270153
0.07211946700044791 0.4665363947239862 0.35906204201270153
0.07232422299784957 0.467513434294089 0.3678553981436248
0.07255162599903997 0.46458231558378116 0.3805569125549584
0.0727525299989793 0.46262823644357587 0.3961895456765998
0.07295339700067416 0.45969711773326827 0.4079140205178309
0.07315111500065541 0.45481191988275516 0.4206155349291647
0.0733542039997701 0.4538348803126526 0.4333170493404983
0.07363060699935886 0.4509037616023448 0.4509037616023448
0.07383499199931975 0.45188080117244755 0.4636052760136786
0.07403408100071829 0.44992672203224227 0.4831460674157304
0.07423622499845806 0.4479726428920372 0.5017098192476794
0.07447151700034738 0.4479726428920372 0.5192965315095261
0.07467505100066774 0.44992672203224227 0.533952125061065
0.07487845400100923 0.4479726428920372 0.5476306790425012
0.07510126499983016 0.44406448461162684 0.5378602833414754
0.07529826199970557 0.4460185637518319 0.524181729360039
0.07550099899890483 0.4430874450415241 0.5065950170981925
0.0756991249982093 0.4430874450415241 0.4802149487054226
0.07590502799939713 0.4401563263312165 0.45481191988275516
0.07613576500079944 0.4401563263312165 0.44211040547142155
0.07633822400021018 0.4401563263312165 0.4235466536394723
0.07653949800078408 0.43917928676111373 0.4157303370786516
0.07673982800042722 0.43917928676111373 0.4137762579384465
0.0769411580004089 0.44211040547142155 0.41475329750854906
0.07714469100028509 0.4401563263312165 0.42159257449926724
0.07737383499988937 0.43917928676111373 0.43429408891060084
0.0776776439997775 0.43917928676111373 0.4430874450415241
0.07797934200061718 0.43722520762090866 0.4430874450415241
0.07821583799886866 0.44211040547142155 0.4430874450415241
0.07844629700048245 0.43722520762090866 0.43722520762090866
0.07865155299805338 0.43917928676111373 0.4303859306301905
0.07884891899811919 0.43624816805080613 0.4255007327796776
0.07904247099941131 0.4382022471910112 0.4264777723497801
0.07923950500116916 0.4382022471910112 0.4176844162188569
0.079458407999482 0.43722520762090866 0.41670737664875435
0.07968305200120085 0.43429408891060084 0.4186614557889594
0.07989578900014749 0.4352711284807034 0.4235466536394723
0.08009411899911356 0.43624816805080613 0.43624816805080613
0.08029302299837582 0.43429408891060084 0.4479726428920372
0.080492722998315 0.4401563263312165 0.457743038593063
0.08071425600064686 0.43429408891060084 0.4665363947239862
0.08090825199906249 0.4333170493404983 0.4684904738641915
0.08110187800048152 0.4333170493404983 0.4665363947239862
0.08129256000029272 0.4382022471910112 0.4655593551538837
0.08148224199976539 0.431362970200293 0.457743038593063
0.0817020530012087 0.43624816805080613 0.44992672203224227
0.08189765999850351 0.4333170493404983 0.45188080117244755
0.08209462000013446 0.43429408891060084 0.45969711773326827
0.08228704199791537 0.43917928676111373 0.47435271128480694
0.0824785199984035 0.43917928676111373 0.5056179775280898
0.08268990500073414 0.44211040547142155 0.5359062042012701
0.08290391999980784 0.44699560332193444 0.5632633121641426
0.08311236000008648 0.4479726428920372 0.6013678553981436
0.08333885599859059 0.44992672203224227 0.6257938446507083
0.08355814899914549 0.45188080117244755 0.6414264777723497
0.08377812599792378 0.44894968246213973 0.6394723986321447
0.08398856699932367 0.44894968246213973 0.6257938446507083
0.08425469099893235 0.44699560332193444 0.6082071323888618
0.08447714999783784 0.44699560332193444 0.5759648265754762
0.08470040599786444 0.45188080117244755 0.5398143624816805
0.08492719800051418 0.44992672203224227 0.4909623839765511
0.08513552699878346 0.45188080117244755 0.43429408891060084
0.08534094999777153 0.4538348803126526 0.3737176355642404
0.08560322300036205 0.45481191988275516 0.29946262823644365
0.08585518099789624 0.457743038593063 0.265266243282853
0.08610839899847633 0.4636052760136786 0.24181729360039084
0.08639333799874294 0.46165119687347334 0.23693209574987795
0.08666890699896612 0.46458231558378116 0.2515876893014166
0.08690342100089765 0.4665363947239862 0.27699071812408405
0.08717600900126854 0.46458231558378116 0.3229115779189058
0.08743350399890915 0.4655593551538837 0.3639472398632144
0.08768296299967915 0.4655593551538837 0.40693698094772834
0.08789097699991544 0.467513434294089 0.431362970200293
0.08810534399890457 0.46262823644357587 0.4557889594528579
0.08831298799850629 0.46458231558378116 0.47239863214460187
0.08851105899884715 0.46262823644357587 0.48216902784562765
0.08871138799804612 0.46165119687347334 0.4880312652662433
0.08890760699796374 0.4636052760136786 0.48705422569614076
0.08909964099802892 0.4636052760136786 0.47923790913532005
0.08928910000031465 0.4636052760136786 0.4733756717147044
0.08947820799949113 0.45969711773326827 0.4665363947239862
0.0896688520006137 0.46458231558378116 0.46458231558378116
0.08985745999962091 0.4655593551538837 0.4587200781631655
0.0900487159997283 0.4606741573033708 0.4528578407425501
0.0902382120002585 0.46165119687347334 0.4450415241817294
0.09042694999880041 0.46165119687347334 0.4382022471910112
0.09061522399861133 0.46165119687347334 0.43429408891060084
0.09080390599774546 0.4587200781631655 0.43429408891060084
0.09099751299800118 0.45676599902296044 0.43624816805080613
0.09124410200092825 0.45969711773326827 0.4450415241817294
0.0914453199984564 0.45676599902296044 0.4509037616023448
0.09167042699846206 0.4587200781631655 0.46458231558378116
0.09190029299861635 0.4587200781631655 0.4753297508549097
0.09209934499813244 0.457743038593063 0.47923790913532005
0.09229412000058801 0.457743038593063 0.4811919882755251
0.09250781900118454 0.4538348803126526 0.4938935026868587
0.09273279699846171 0.45481191988275516 0.49877870053737183
0.09295919999931357 0.45481191988275516 0.49877870053737183
0.09318582600099035 0.4557889594528579 0.4948705422569615
0.09344002500074566 0.44992672203224227 0.4811919882755251
0.0936550949991215 0.44699560332193444 0.46165119687347334
0.09385307299817214 0.44699560332193444 0.4430874450415241
0.09405055100069148 0.4479726428920372 0.42452369320957506
0.09426491699923645 0.44699560332193444 0.4108451392281387
0.09450072799882037 0.44894968246213973 0.412799218368344
0.0947316679994401 0.44894968246213973 0.41182217879824123
0.09494309000001522 0.44894968246213973 0.40205178309721545
0.09515460499824258 0.44894968246213973 0.3952125061064973
0.09537911900042673 0.44992672203224227 0.3903273082559844
0.09559404099854873 0.44699560332193444 0.38153395212506114
0.09581214799982263 0.44992672203224227 0.38446507083536874
0.09602590400027111 0.44699560332193444 0.3932584269662922
0.09624708499904955 0.4479726428920372 0.4108451392281387
0.09646887700000661 0.4479726428920372 0.441133365901319
0.09689070300009917 0.44699560332193444 0.4636052760136786
0.09718680799778667 0.4479726428920372 0.4831460674157304
0.09740767499897629 0.4460185637518319 0.5095261358085001
0.09776772400073241 0.44406448461162684 0.522227650219834
0.09804301500116708 0.4401563263312165 0.533952125061065
0.09829054799774894 0.4382022471910112 0.5398143624816805
0.09854844999790657 0.4382022471910112 0.5398143624816805
0.09878613099863287 0.4352711284807034 0.5319980459208598
0.09904121900035534 0.43722520762090866 0.5232046897899365
0.09932108399880235 0.43722520762090866 0.5017098192476794
0.09957870899961563 0.43722520762090866 0.4733756717147044
0.09982322399810073 0.4401563263312165 0.4401563263312165
0.10007005199804553 0.43917928676111373 0.39912066438690763
0.1003244370003813 0.4430874450415241 0.37469467513434296
0.10056909899867605 0.441133365901319 0.3737176355642404
0.1009024259983562 0.44211040547142155 0.3981436248168051
0.10114238499954809 0.44406448461162684 0.431362970200293
0.10141489799934789 0.4430874450415241 0.46262823644357587
0.101756355001271 0.43722520762090866 0.48216902784562765
0.10204459099986707 0.4382022471910112 0.4909623839765511
0.10235128899876145 0.44211040547142155 0.49682462139716654
0.10262826499820221 0.441133365901319 0.495847581827064
0.10296225899946876 0.4450415241817294 0.4978016609672691
0.10331815999961691 0.44992672203224227 0.5026868588177822
0.10366919100124505 0.44406448461162684 0.5075720566682951
0.10413894099838217 0.4450415241817294 0.5114802149487054
0.104463380001107 0.44699560332193444 0.5163654127992183
0.10477894799987553 0.44894968246213973 0.5114802149487054
0.10502379600075074 0.44992672203224227 0.5065950170981925
0.10523981000005733 0.45188080117244755 0.5017098192476794
0.10544080700128688 0.4528578407425501 0.5007327796775769
0.105693560999498 0.45481191988275516 0.48705422569614076
0.10624818100041011 0.45481191988275516 0.4665363947239862
0.10665085900109261 0.45969711773326827 0.457743038593063
0.10690289099875372 0.45969711773326827 0.4460185637518319
0.10714310899857082 0.46262823644357587 0.41670737664875435
0.10745925100127351 0.4665363947239862 0.38153395212506114
0.10770269199929317 0.4655593551538837 0.33463605276013686
0.10804779599857284 0.46458231558378116 0.2789447972642891
0.10831203199995798 0.46458231558378116 0.24670249145090373
0.10854776899941498 0.46262823644357587 0.24279433317049337
0.10884176299805404 0.4665363947239862 0.2613580850024426
0.10913751699990826 0.46458231558378116 0.3111871030776747
0.10945867799819098 0.4606741573033708 0.3786028334147533
0.10978900500049349 0.4655593551538837 0.4235466536394723
0.11006996300056926 0.46165119687347334 0.45969711773326827
0.11035882799842511 0.46165119687347334 0.47923790913532005
0.1106383789992833 0.4606741573033708 0.4851001465559355
0.11086618999979692 0.46165119687347334 0.4948705422569615
0.11110407399974065 0.46262823644357587 0.49877870053737183
0.111329310999281 0.4606741573033708 0.5085490962383976
0.11156588100129738 0.4636052760136786 0.522227650219834
0.11178695099806646 0.4587200781631655 0.5310210063507572
0.11206116799803567 0.457743038593063 0.533952125061065
0.11234866299855639 0.45969711773326827 0.5212506106497312
0.1126127319985244 0.45676599902296044 0.4978016609672691
0.11288102300022729 0.45481191988275516 0.47923790913532005
0.11311757499788655 0.457743038593063 0.46262823644357587
0.11333868200017605 0.4557889594528579 0.457743038593063
0.11357965899878764 0.44894968246213973 0.45481191988275516
0.11384470999837504 0.4538348803126526 0.45969711773326827
0.11405129799823044 0.44992672203224227 0.457743038593063
0.1142504800009192 0.4479726428920372 0.457743038593063
0.11451401199883549 0.4479726428920372 0.4450415241817294
0.11471986000105971 0.4509037616023448 0.43624816805080613
0.11494863400002941 0.4479726428920372 0.4323400097703958
0.11515140800111112 0.45481191988275516 0.4303859306301905
0.1153489600001194 0.4479726428920372 0.4333170493404983
0.11558410399811692 0.44699560332193444 0.45188080117244755
0.11585978400034946 0.4479726428920372 0.4636052760136786
0.11613918600050965 0.44406448461162684 0.4606741573033708
0.11636582999926759 0.4479726428920372 0.4528578407425501
0.11658275199806667 0.4450415241817294 0.4382022471910112
0.11679974900107482 0.4430874450415241 0.4079140205178309
0.11703309600125067 0.4479726428920372 0.38153395212506114
0.11724307400072576 0.44699560332193444 0.35906204201270153
0.11744149600053788 0.44894968246213973 0.34929164631167553
0.1176636399977724 0.4479726428920372 0.3551538837322912
0.11786224800016498 0.4479726428920372 0.3678553981436248
0.11806100299872924 0.44699560332193444 0.38641914997557403
0.11826546299926122 0.44699560332193444 0.40693698094772834
0.11847134799972991 0.4479726428920372 0.42159257449926724
0.11867075199916144 0.4460185637518319 0.4352711284807034
0.1188678409998829 0.44406448461162684 0.4450415241817294
0.11907011500079534 0.44406448461162684 0.45676599902296044
0.11927520400058711 0.4382022471910112 0.46458231558378116
0.11947929199959617 0.4401563263312165 0.47239863214460187
0.11967736299993703 0.441133365901319 0.4782608695652173
0.11986719299966353 0.4401563263312165 0.48216902784562765
0.12005391200000304 0.4430874450415241 0.4851001465559355
0.12023985300038476 0.44211040547142155 0.486077186126038
0.1204261269995186 0.43917928676111373 0.4880312652662433
0.12061156799973105 0.4460185637518319 0.48900830483634583
0.12079749099939363 0.44211040547142155 0.4851001465559355
0.12098283899831586 0.43917928676111373 0.4831460674157304
0.12116813199827448 0.4333170493404983 0.47728382999511476
0.12135464699895238 0.4352711284807034 0.46946751343429405
0.12154332899808651 0.4333170493404983 0.4587200781631655
0.1217297889998008 0.43624816805080613 0.4538348803126526
0.12191578499914613 0.43624816805080613 0.44894968246213973
0.12210076300107175 0.441133365901319 0.44699560332193444
0.12229355599993141 0.43624816805080613 0.4450415241817294
0.12250636699900497 0.43917928676111373 0.4450415241817294
0.12269351199938683 0.43722520762090866 0.43624816805080613
0.12288035999881686 0.43722520762090866 0.4255007327796776
0.12307007900017197 0.43722520762090866 0.41963849535906195
0.12325681600123062 0.4382022471910112 0.41670737664875435
0.12344220199884148 0.4401563263312165 0.4176844162188569
0.12362736499926541 0.441133365901319 0.42745481191988266
0.12381263999850489 0.441133365901319 0.4352711284807034
0.12399747000017669 0.44211040547142155 0.44992672203224227
0.12418389199956437 0.4430874450415241 0.4733756717147044
0.12436916699880385 0.4430874450415241 0.48900830483634583
0.12458927400075481 0.44699560332193444 0.49975574010747437
0.12477541800035397 0.4460185637518319 0.5085490962383976
0.12496059999830322 0.44992672203224227 0.5075720566682951
0.12514741199993296 0.45481191988275516 0.49877870053737183
0.12533253799847444 0.4538348803126526 0.4929164631167562
0.1255397749991971 0.45481191988275516 0.486077186126038
0.1257276969990926 0.4528578407425501 0.48998534440644836
0.12591323100059526 0.4528578407425501 0.5026868588177822
0.1260987280002155 0.4538348803126526 0.524181729360039
0.12628405799841858 0.4538348803126526 0.5466536394723986
0.12646927699825028 0.4538348803126526 0.5720566682950659
0.12665606899827253 0.4538348803126526 0.5876893014167073
0.12684189900028287 0.4557889594528579 0.595505617977528
0.1270275809984014 0.457743038593063 0.595505617977528
0.12721341100041172 0.4587200781631655 0.5818270639960919
0.12741972200092277 0.45676599902296044 0.5691255495847583
0.1276054039990413 0.457743038593063 0.540791402051783
0.1277986780005449 0.45969711773326827 0.5183194919394236
0.1280030079979042 0.46262823644357587 0.486077186126038
0.1282101889992191 0.4636052760136786 0.4509037616023448
0.12841907500114758 0.46458231558378116 0.4079140205178309
0.1286424040008569 0.467513434294089 0.37469467513434296
0.12887256599788088 0.4684904738641915 0.3659013190034197
0.12911722799981362 0.4665363947239862 0.36980947728383007
0.1293948159982392 0.4684904738641915 0.37957987298485585
0.1297724020005262 0.4763067904250122 0.3834880312652662
0.1300750810005411 0.4665363947239862 0.3854421104054715
0.13045244499880937 0.46946751343429405 0.3805569125549584
0.13075732799916295 0.467513434294089 0.3776257938446508
0.1310081759984314 0.4665363947239862 0.3805569125549584
0.1312764670001343 0.46262823644357587 0.37274059599413767
0.13154864700118196 0.4636052760136786 0.3639472398632144
0.1317994210003235 0.4636052760136786 0.34929164631167553
0.13206632299988996 0.4636052760136786 0.35710796287249624
0.1323471879986755 0.4606741573033708 0.3678553981436248
0.13259770199874765 0.45676599902296044 0.38251099169516367
0.1328536789987993 0.4557889594528579 0.4059599413776258
0.1331016379990615 0.4528578407425501 0.43722520762090866
0.1333203370013507 0.4509037616023448 0.47435271128480694
0.13361753600111115 0.45188080117244755 0.5105031753786029
0.13383064300069236 0.44894968246213973 0.5300439667806547
0.1340282319979451 0.4450415241817294 0.550561797752809
0.13434944799882942 0.441133365901319 0.5613092330239375
0.13456362999932026 0.4430874450415241 0.5691255495847583
0.13477695899928221 0.441133365901319 0.5701025891548608
0.13499380699795438 0.4401563263312165 0.5554469956033219
0.13518993300021975 0.44211040547142155 0.5349291646311676
0.13539235499774804 0.43917928676111373 0.5134342940889105
0.1355854809989978 0.44211040547142155 0.4938935026868587
0.13578088500071317 0.441133365901319 0.4811919882755251
0.13596712299840874 0.4430874450415241 0.47728382999511476
0.13616937799815787 0.4401563263312165 0.47923790913532005
0.13635657800114132 0.441133365901319 0.4831460674157304
0.13654407499780064 0.4401563263312165 0.48412310698583294
0.13672958999814 0.4450415241817294 0.4763067904250122
0.13691847600057372 0.4430874450415241 0.46165119687347334
0.13710773200000403 0.4450415241817294 0.4382022471910112
0.13729374700051267 0.44211040547142155 0.41182217879824123
0.13747907699871575 0.44406448461162684 0.38153395212506114
0.13769033199787373 0.441133365901319 0.3688324377137273
0.13787681000030716 0.44406448461162684 0.3629702002931119
0.13806326999838348 0.441133365901319 0.3610161211529066
0.13825102600094397 0.441133365901319 0.3678553981436248
0.13843620699844905 0.43722520762090866 0.376648754274548
0.13862214799883077 0.43722520762090866 0.38935026868588185
0.1388089409992972 0.4352711284807034 0.40009770395701016
0.13899603100071545 0.43429408891060084 0.41670737664875435
0.13918176799779758 0.4382022471910112 0.4284318514899854
0.13936798699796782 0.4352711284807034 0.441133365901319
0.1395542979989841 0.4333170493404983 0.4538348803126526
0.1397401100002753 0.4333170493404983 0.46262823644357587
0.13992540300023393 0.43429408891060084 0.467513434294089
0.14011413999833167 0.43624816805080613 0.46165119687347334
0.14030065499900957 0.4352711284807034 0.4606741573033708
0.1404864850010199 0.43624816805080613 0.4450415241817294
0.14067290800085175 0.43624816805080613 0.4352711284807034
0.1408586079996894 0.43624816805080613 0.41963849535906195
0.1410886779995053 0.43917928676111373 0.40205178309721545
0.14127715599897783 0.43722520762090866 0.3883732291157791
0.14148546700016595 0.43722520762090866 0.36980947728383007
0.14168459299980896 0.43722520762090866 0.358085002442599
0.1418721820009523 0.43917928676111373 0.3561309233023937
0.14205734500137623 0.4401563263312165 0.3561309233023937
0.14224376800120808 0.43917928676111373 0.3707865168539326
0.14243796799928532 0.44211040547142155 0.38153395212506114
0.14262346499890555 0.4430874450415241 0.3952125061064973
0.14280846099791233 0.4479726428920372 0.40889106008793363
0.14299716199820978 0.4479726428920372 0.4206155349291647
0.14318637999895145 0.4479726428920372 0.4264777723497801
0.1433719699998619 0.4460185637518319 0.4382022471910112
0.1435573739981919 0.4509037616023448 0.4479726428920372
0.14374359199791797 0.44992672203224227 0.46165119687347334
0.14392901500104927 0.44894968246213973 0.4782608695652173
0.1441147519981314 0.4557889594528579 0.49975574010747437
0.14430023100067046 0.4538348803126526 0.5192965315095261
0.14448550499946577 0.4509037616023448 0.533952125061065
0.14467107599921292 0.45188080117244755 0.5456765999022961
0.14485820199843147 0.4528578407425501 0.550561797752809
0.14504547599790385 0.4538348803126526 0.5632633121641426
0.14523475099849747 0.45188080117244755 0.5740107474352711
0.14542696900025476 0.45188080117244755 0.5847581827063997
0.14570994599853293 0.4528578407425501 0.5896433805569126
0.1459235529982834 0.4528578407425501 0.5798729848558866
0.14611790100025246 0.4587200781631655 0.5632633121641426
0.14631934199860552 0.45676599902296044 0.5378602833414754
0.14653135700064013 0.45969711773326827 0.5075720566682951
0.14674905599895283 0.45969711773326827 0.4763067904250122
0.14695397899777163 0.4636052760136786 0.44992672203224227
0.14717260399993393 0.4665363947239862 0.4284318514899854
0.14739263699812 0.4655593551538837 0.42256961406936977
0.14760804099933011 0.4636052760136786 0.41670737664875435
0.14785068499986664 0.467513434294089 0.412799218368344
0.14810234700053115 0.46458231558378116 0.40889106008793363
0.1483416019982542 0.4636052760136786 0.4049829018075233
0.14857735699843033 0.4636052760136786 0.40009770395701016
0.1488012970003183 0.4606741573033708 0.3981436248168051
0.14901370000006864 0.46262823644357587 0.3952125061064973
0.14921886299998732 0.46262823644357587 0.40205178309721545
0.14941906300009578 0.46165119687347334 0.40986809965803617
0.14965872600078 0.46165119687347334 0.4323400097703958
0.14986366700031795 0.46262823644357587 0.4479726428920372
0.15005788499911432 0.4665363947239862 0.46946751343429405
0.1502668260000064 0.4587200781631655 0.4851001465559355
0.15048195199779002 0.46165119687347334 0.49193942354665365
0.15069509599925368 0.46262823644357587 0.48705422569614076
0.15090725899790414 0.4636052760136786 0.48216902784562765
0.15110534799896413 0.45969711773326827 0.46262823644357587
0.15134010299880174 0.4587200781631655 0.4538348803126526
0.15152741400015657 0.46165119687347334 0.4479726428920372
0.1517167439997138 0.46262823644357587 0.441133365901319
0.151972683997883 0.46165119687347334 0.4382022471910112
0.15217114299957757 0.45969711773326827 0.4352711284807034
0.15238308399784728 0.4606741573033708 0.43624816805080613
0.15260515399859287 0.4587200781631655 0.4430874450415241
0.15283111299868324 0.457743038593063 0.44699560332193444
0.15305244200135348 0.45969711773326827 0.44894968246213973
0.1532749750003859 0.457743038593063 0.4587200781631655
0.15348667500074953 0.45676599902296044 0.44894968246213973
0.15371941099874675 0.45969711773326827 0.44992672203224227
0.15390825999929802 0.45481191988275516 0.4509037616023448
0.15409495999847422 0.45481191988275516 0.4528578407425501
0.15428097499898286 0.4538348803126526 0.4509037616023448
0.1544668790011201 0.45188080117244755 0.45481191988275516
0.154675560999749 0.44992672203224227 0.4557889594528579
0.1548618720007653 0.44992672203224227 0.45676599902296044
0.15504797999892617 0.44699560332193444 0.46165119687347334
0.1552340499983984 0.44992672203224227 0.4655593551538837
0.15541947299789172 0.44894968246213973 0.46946751343429405
0.15560541399827343 0.4450415241817294 0.47923790913532005
0.15579128099852824 0.44894968246213973 0.47923790913532005
0.15597651799907908 0.44894968246213973 0.4811919882755251
0.15616233000037028 0.4450415241817294 0.4880312652662433
0.15634825199958868 0.44211040547142155 0.49193942354665365
0.15653460099929362 0.44406448461162684 0.49193942354665365
0.15672046799954842 0.4430874450415241 0.4851001465559355
0.15690629799792077 0.4450415241817294 0.47142159257449934
0.1570922389983025 0.4430874450415241 0.457743038593063
0.15727842100022826 0.4401563263312165 0.441133365901319
0.15746401000069454 0.4401563263312165 0.42452369320957506
0.15765441400071722 0.441133365901319 0.4108451392281387
0.15784444699966116 0.441133365901319 0.4049829018075233
0.15803114799928153 0.44211040547142155 0.4040058622374205
0.15821783000137657 0.4382022471910112 0.4059599413776258
0.1584036969979934 0.4382022471910112 0.4108451392281387
0.15858967500025756 0.43722520762090866 0.41670737664875435
0.15877561600063927 0.43722520762090866 0.42452369320957506
0.15898609299983946 0.4382022471910112 0.4323400097703958
0.15922242200031178 0.4352711284807034 0.43429408891060084
0.15948252900125226 0.43429408891060084 0.44211040547142155
0.15972813500047778 0.4382022471910112 0.43917928676111373
0.16000059300131397 0.43917928676111373 0.43429408891060084
0.1602065160004713 0.44406448461162684 0.42940889106008795
0.16040271599922562 0.4401563263312165 0.4333170493404983
0.16059848999793758 0.44211040547142155 0.43624816805080613
0.16078748699874268 0.441133365901319 0.4430874450415241
0.16100135300075635 0.4430874450415241 0.44211040547142155
0.16122283100048662 0.44211040547142155 0.4460185637518319
0.16147017799812602 0.44211040547142155 0.4430874450415241
0.16180000500025926 0.4401563263312165 0.45481191988275516
0.16208907399777672 0.4382022471910112 0.467513434294089
0.16232938499888405 0.4382022471910112 0.4782608695652173
0.16255660299793817 0.4382022471910112 0.48412310698583294
0.16275285799929406 0.4382022471910112 0.4802149487054226
0.16295555800024886 0.43722520762090866 0.46458231558378116
0.16318066500025452 0.4401563263312165 0.44992672203224227
0.163423216999945 0.441133365901319 0.43917928676111373
0.16365252700052224 0.4430874450415241 0.4303859306301905
0.16389768899898627 0.4509037616023448 0.42452369320957506
0.16411955600051442 0.4450415241817294 0.42452369320957506
0.16433558900098433 0.4450415241817294 0.42940889106008795
0.16456197400111705 0.4460185637518319 0.43624816805080613
0.16478332100086845 0.4460185637518319 0.43722520762090866
0.1650350759991852 0.4479726428920372 0.43429408891060084
0.16527305300041917 0.45481191988275516 0.43917928676111373
0.1656172510010947 0.45481191988275516 0.4430874450415241
0.16587622799852397 0.4557889594528579 0.43917928676111373
0.16611868600011803 0.4606741573033708 0.4352711284807034
0.1663333859978593 0.457743038593063 0.42159257449926724
0.16660836200026097 0.457743038593063 0.40009770395701016
0.16683380299946293 0.457743038593063 0.3883732291157791
0.16702883600009955 0.46165119687347334 0.3883732291157791
0.16722710999965784 0.4636052760136786 0.40009770395701016
0.16742105099910987 0.46165119687347334 0.4235466536394723
0.16762784399907105 0.46165119687347334 0.4479726428920372
0.16782135899848072 0.4636052760136786 0.46946751343429405
0.16801478100023814 0.46458231558378116 0.48705422569614076
0.16821007399994414 0.4655593551538837 0.512457254518808
0.16853708700000425 0.4636052760136786 0.5368832437713726
0.16878256400013925 0.4636052760136786 0.5446995603321934
0.1689749489996757 0.46165119687347334 0.5456765999022961
0.16916627899991 0.4636052760136786 0.5495847581827065
0.16935586799809244 0.46165119687347334 0.5437225207620908
0.16958362299919827 0.46458231558378116 0.5300439667806547
0.1698022669988859 0.4655593551538837 0.5173424523693209
0.1700193369979388 0.4655593551538837 0.512457254518808
0.17024185199989006 0.467513434294089 0.4938935026868587
0.17048112499833223 0.46458231558378116 0.47923790913532005
0.17072460199779016 0.46165119687347334 0.4655593551538837
0.17097478299911018 0.4606741573033708 0.4479726428920372
0.17122864900011336 0.46458231558378116 0.4303859306301905
0.17166365899902303 0.46458231558378116 0.4206155349291647
0.1720953920012107 0.4636052760136786 0.42745481191988266
0.17233951799789793 0.457743038593063 0.4401563263312165
0.17258421699807514 0.4587200781631655 0.4460185637518319
0.17280389799998375 0.46165119687347334 0.4479726428920372
0.17301783899893053 0.4557889594528579 0.44894968246213973
0.1732342979994428 0.4528578407425501 0.44992672203224227
0.1734519969977555 0.4528578407425501 0.441133365901319
0.17369562299791141 0.4509037616023448 0.4323400097703958
0.17390348899789387 0.44992672203224227 0.4235466536394723
0.17410015199857298 0.44894968246213973 0.4157303370786516
0.1743002039984276 0.44894968246213973 0.4137762579384465
0.17449344099804875 0.44699560332193444 0.403028822667318
0.17469680800058995 0.4479726428920372 0.39912066438690763
0.17489398999896366 0.4450415241817294 0.39228138739618945
0.1750998930001515 0.4460185637518319 0.3854421104054715
0.1753429070013226 0.4460185637518319 0.38446507083536874
0.17558295900016674 0.4450415241817294 0.3883732291157791
0.17582571299863048 0.4450415241817294 0.3913043478260869
0.1760138210011064 0.4460185637518319 0.3913043478260869
0.17619994699998642 0.4460185637518319 0.39716658524670256
0.17639011099890922 0.4430874450415241 0.4049829018075233
0.17657595899800071 0.44211040547142155 0.41475329750854906
0.17676339999889024 0.441133365901319 0.4284318514899854
0.17695037799785496 0.4430874450415241 0.4460185637518319
0.17713618999914615 0.441133365901319 0.4655593551538837
0.17732640800022637 0.4382022471910112 0.4782608695652173
0.1776728840013675 0.4401563263312165 0.5085490962383976
0.17788925000058953 0.43917928676111373 0.522227650219834
0.17808969099860406 0.4382022471910112 0.5349291646311676
0.17828552100036177 0.43722520762090866 0.5388373229115779
0.17848012800095603 0.43624816805080613 0.5280898876404494
0.1786879579995002 0.4382022471910112 0.5144113336590133
0.17888923200007412 0.4401563263312165 0.5095261358085001
0.17915470899970387 0.4382022471910112 0.5163654127992183
0.17937966699901153 0.43917928676111373 0.5359062042012701
0.17958294200070668 0.4382022471910112 0.5534929164631168
0.17978493799819262 0.43722520762090866 0.5740107474352711
0.1800080450011592 0.4382022471910112 0.5847581827063997
0.18023774399989634 0.4401563263312165 0.5818270639960919
0.1804703880006855 0.43917928676111373 0.5652173913043479
0.18069940300119924 0.441133365901319 0.5388373229115779
0.18091106599968043 0.4460185637518319 0.5017098192476794
0.18113180200089118 0.4430874450415241 0.46165119687347334
0.18137655700047617 0.44211040547142155 0.42745481191988266
0.18168860700097866 0.4450415241817294 0.4079140205178309
0.18193965799946454 0.4460185637518319 0.39912066438690763
0.1821748389993445 0.44406448461162684 0.3952125061064973
0.18253872100103763 0.4430874450415241 0.38935026868588185
0.18276940199939418 0.4450415241817294 0.38641914997557403
0.18299212000056286 0.4460185637518319 0.3756717147044455
0.18317906100128312 0.4450415241817294 0.3659013190034197
0.18336594699940179 0.4479726428920372 0.35906204201270153
0.18355307299862034 0.4450415241817294 0.36003908158280407
0.18374053300067317 0.4460185637518319 0.3659013190034197
0.1839254369988339 0.4509037616023448 0.37176355642403514
0.1841115630013519 0.4450415241817294 0.38251099169516367
0.184297615000105 0.44406448461162684 0.39228138739618945
0.18449137100105872 0.4450415241817294 0.39228138739618945
0.18467764500019257 0.4450415241817294 0.39228138739618945
0.18486423400099739 0.4460185637518319 0.3903273082559844
0.18504882399793132 0.4479726428920372 0.39423546653639474
0.1852341539997724 0.4479726428920372 0.40693698094772834
0.18542026100112707 0.4528578407425501 0.4235466536394723
0.18566090500098653 0.4509037616023448 0.4352711284807034
0.18584903100054362 0.4538348803126526 0.4460185637518319
0.18603413899836596 0.4538348803126526 0.4460185637518319
0.1862216730005457 0.457743038593063 0.44406448461162684
0.18640778099870658 0.4587200781631655 0.44406448461162684
0.18659264799862285 0.46165119687347334 0.4509037616023448
0.18677799600118306 0.45969711773326827 0.47435271128480694
0.18699588099843822 0.457743038593063 0.5105031753786029
0.18718384100066032 0.45676599902296044 0.5388373229115779
0.18737092999799643 0.4587200781631655 0.5622862725940401
0.18755637099820888 0.4557889594528579 0.5720566682950659
0.18774225599918282 0.4557889594528579 0.567171470444553
0.1879293640013202 0.45481191988275516 0.5544699560332194
0.18813311999838334 0.457743038593063 0.5349291646311676
0.1883190789994842 0.45676599902296044 0.5134342940889105
0.1885051499994006 0.45969711773326827 0.49193942354665365
0.1886909979984921 0.4587200781631655 0.4811919882755251
0.18887638399974094 0.4587200781631655 0.4655593551538837
0.18906165799853625 0.45969711773326827 0.4557889594528579
0.1892467100005888 0.4606741573033708 0.44699560332193444
0.18943152199790347 0.45969711773326827 0.43624816805080613
0.1896358699996199 0.46458231558378116 0.4206155349291647
0.1898225699987961 0.46262823644357587 0.40986809965803617
0.1900079929982894 0.4655593551538837 0.403028822667318
0.19019371199829038 0.46458231558378116 0.39716658524670256
0.19037904200013145 0.4636052760136786 0.3961895456765998
0.1905642239980807 0.46946751343429405 0.38935026868588185
0.19075049800085253 0.4606741573033708 0.38251099169516367
0.19093593900106498 0.4606741573033708 0.376648754274548
0.19112654700074927 0.4606741573033708 0.37176355642403514
0.19131239499984076 0.457743038593063 0.37274059599413767
0.19149716999891098 0.457743038593063 0.3737176355642404
0.1916828510002233 0.4587200781631655 0.37469467513434296
0.1918682549985533 0.45676599902296044 0.3805569125549584
0.19205345600130386 0.4606741573033708 0.3854421104054715
0.19224111899893614 0.45676599902296044 0.39423546653639474
0.1924723369993444 0.457743038593063 0.40205178309721545
0.19267066699831048 0.457743038593063 0.40986809965803617
0.19287036699824966 0.4538348803126526 0.40986809965803617
0.1930678259996057 0.45481191988275516 0.4176844162188569
0.19326606300091953 0.4538348803126526 0.42256961406936977
0.19346467099967413 0.4538348803126526 0.42940889106008795
0.19367618599790148 0.45676599902296044 0.43917928676111373
0.19390340400059358 0.4509037616023448 0.457743038593063
0.19418104699798278 0.4509037616023448 0.47728382999511476
0.19447855999897 0.44992672203224227 0.486077186126038
0.19472703700012062 0.44992672203224227 0.495847581827064
0.19494268099879264 0.44894968246213973 0.5007327796775769
0.19514563999837264 0.4430874450415241 0.495847581827064
0.19536195099863107 0.44406448461162684 0.49682462139716654
0.19559404000028735 0.44211040547142155 0.49682462139716654
0.1957888319993799 0.44406448461162684 0.4929164631167562
0.1959863839983882 0.4460185637518319 0.4978016609672691
0.19619310299822246 0.4450415241817294 0.48705422569614076
0.19645124599992414 0.44406448461162684 0.47923790913532005
0.19671626000126707 0.44406448461162684 0.45676599902296044
0.19704569799796445 0.44406448461162684 0.4323400097703958
0.19734828600121546 0.441133365901319 0.40693698094772834
0.19768513099916163 0.441133365901319 0.3932584269662922
0.19793836700046086 0.4401563263312165 0.3854421104054715
0.19817638200038346 0.43917928676111373 0.3737176355642404
0.19845798800088232 0.4401563263312165 0.3659013190034197
0.19873702000040794 0.43722520762090866 0.37176355642403514
0.1990057369985152 0.43624816805080613 0.39423546653639474
0.19922113999928115 0.43722520762090866 0.4157303370786516
0.19942233999972814 0.43722520762090866 0.43722520762090866
0.19961783699909574 0.43722520762090866 0.45676599902296044
0.19982024099954288 0.43722520762090866 0.46165119687347334
0.20002686699808692 0.4401563263312165 0.46165119687347334
0.2002269000004162 0.441133365901319 0.4606741573033708
0.20042598899817676 0.4430874450415241 0.44894968246213973
0.2006375589990057 0.4450415241817294 0.43624816805080613
0.2008477400013362 0.4430874450415241 0.4255007327796776
0.20104592200004845 0.4430874450415241 0.42159257449926724
0.20125549200020032 0.441133365901319 0.42452369320957506
0.2014504520011542 0.4382022471910112 0.43722520762090866
0.20167878099891823 0.4401563263312165 0.457743038593063
0.20187236999845481 0.4430874450415241 0.47435271128480694
0.20206675499866833 0.44211040547142155 0.49193942354665365
0.2022606589998759 0.441133365901319 0.512457254518808
0.2024497109996446 0.44211040547142155 0.5319980459208598
0.20263563399930717 0.44406448461162684 0.5544699560332194
0.20282161199793336 0.4450415241817294 0.5710796287249633
0.203009386001213 0.4460185637518319 0.5925744992672204
0.20319569799903547 0.44894968246213973 0.6033219345383487
0.20338282399825403 0.44699560332193444 0.6199316072300929
0.20356872800039127 0.4479726428920372 0.6257938446507083
0.20375379899996915 0.4460185637518319 0.6150464093795798
0.2039878690011392 0.4538348803126526 0.6003908158280411
0.20417688399902545 0.4460185637518319 0.5808500244259893
0.20436337999854004 0.4460185637518319 0.5583781143136297
0.20454913600042346 0.4460185637518319 0.5378602833414754
0.20473413299987442 0.4450415241817294 0.5173424523693209
0.20491944400055218 0.4450415241817294 0.49975574010747437
0.20510505199854379 0.4460185637518319 0.4802149487054226
0.20529056699888315 0.4528578407425501 0.45969711773326827
0.20547635999901104 0.4479726428920372 0.4430874450415241
0.20566513399899122 0.44699560332193444 0.42745481191988266
0.2058755750003911 0.44992672203224227 0.41963849535906195
0.20606159000089974 0.45188080117244755 0.41182217879824123
0.206246771998849 0.45481191988275516 0.41182217879824123
0.2064322500009439 0.457743038593063 0.4137762579384465
0.20661763599855476 0.46262823644357587 0.4264777723497801
0.20680246600022656 0.4636052760136786 0.4352711284807034
0.20698753599936026 0.4636052760136786 0.441133365901319
0.20717253299881122 0.4636052760136786 0.4382022471910112
0.2073580670003139 0.46458231558378116 0.4323400097703958
0.2075434709986439 0.4636052760136786 0.42256961406936977
0.20772935599961784 0.46458231558378116 0.412799218368344
0.20791470499898423 0.46458231558378116 0.4040058622374205
0.20810031200016965 0.46458231558378116 0.39716658524670256
0.20828623499983223 0.46458231558378116 0.3913043478260869
0.20847341699845856 0.4655593551538837 0.38153395212506114
0.2086615990010614 0.4665363947239862 0.38251099169516367
0.20888470600039 0.467513434294089 0.3805569125549584
0.20907435000117403 0.4704445530043966 0.38153395212506114
0.20926069900087896 0.46946751343429405 0.3834880312652662
0.2094471029995475 0.46458231558378116 0.38641914997557403
0.20964735799861955 0.4655593551538837 0.3932584269662922
0.20984735499951057 0.46458231558378116 0.4049829018075233
0.21004470299885725 0.46262823644357587 0.4255007327796776
0.21023960700040334 0.46458231558378116 0.467513434294089
0.21067385800051852 0.4606741573033708 0.48705422569614076
0.21086850299980142 0.457743038593063 0.4978016609672691
0.2110703510006715 0.457743038593063 0.5065950170981925
0.21128140300061204 0.45676599902296044 0.5144113336590133
0.21150739899894688 0.45676599902296044 0.5232046897899365
0.21173294999971404 0.457743038593063 0.5310210063507572
0.21200270500048646 0.457743038593063 0.524181729360039
0.21225284799947985 0.457743038593063 0.5153883732291158
0.21246358499774942 0.45969711773326827 0.5085490962383976
0.21264895199783496 0.457743038593063 0.48216902784562765
0.21283470799971838 0.457743038593063 0.45676599902296044
0.21302044500043849 0.4557889594528579 0.4303859306301905
0.21320666400060873 0.457743038593063 0.3961895456765998
0.21339593800075818 0.46262823644357587 0.3678553981436248
0.21364198999799555 0.45481191988275516 0.35417684416218864
0.2138433559994155 0.45676599902296044 0.35222276502198335
0.2140312970004743 0.45481191988275516 0.36003908158280407
0.2142194420011947 0.4528578407425501 0.376648754274548
0.2144473080006719 0.4509037616023448 0.38739618954567656
0.2146336199984944 0.44894968246213973 0.3952125061064973
0.21482007899976452 0.44992672203224227 0.40205178309721545
0.21500637200006167 0.4460185637518319 0.40205178309721545
0.21519175800131052 0.44699560332193444 0.40693698094772834
0.21537716199964052 0.44699560332193444 0.41182217879824123
0.2155638069998531 0.4450415241817294 0.42159257449926724
0.21574954400057322 0.4450415241817294 0.42745481191988266
0.21593489199949545 0.44406448461162684 0.43917928676111373
0.21612057400125195 0.4450415241817294 0.45481191988275516
0.21630560799894738 0.4430874450415241 0.467513434294089
0.21649043800061918 0.44699560332193444 0.4802149487054226
0.21667652700125473 0.4401563263312165 0.4909623839765511
0.21686322700043092 0.4401563263312165 0.5017098192476794
0.21704846499778796 0.441133365901319 0.5085490962383976
0.21723329499945976 0.4401563263312165 0.5144113336590133
0.21741829099846655 0.4401563263312165 0.5085490962383976
0.21762543599834316 0.441133365901319 0.5026868588177822
0.2178119880009035 0.44211040547142155 0.4880312652662433
0.2179971879995719 0.4430874450415241 0.47435271128480694
0.21818483300012304 0.441133365901319 0.45969711773326827
0.21838755199860316 0.441133365901319 0.4479726428920372
0.21857354799794848 0.4401563263312165 0.43624816805080613
0.21875935999923968 0.4382022471910112 0.431362970200293
0.21894469000108074 0.43722520762090866 0.42745481191988266
0.21913001999928383 0.43722520762090866 0.4303859306301905
0.21931536799820606 0.43722520762090866 0.42745481191988266
0.21950117899905308 0.43624816805080613 0.4264777723497801
0.21968691700021736 0.43429408891060084 0.42745481191988266
0.21987256200009142 0.43624816805080613 0.42940889106008795
0.22005890999935218 0.43624816805080613 0.431362970200293
0.2202440180008125 0.43624816805080613 0.42940889106008795
0.22043420000045444 0.44211040547142155 0.42940889106008795
0.22061926999958814 0.43722520762090866 0.42940889106008795
0.22080443400045624 0.43917928676111373 0.4303859306301905
0.2209898750006687 0.4401563263312165 0.4382022471910112
0.22117479699954856 0.4382022471910112 0.44894968246213973
0.2213604979988304 0.4382022471910112 0.457743038593063
0.22156593799809343 0.441133365901319 0.4655593551538837
0.22175495299961767 0.43917928676111373 0.4733756717147044
0.22194078299799003 0.43917928676111373 0.4802149487054226
0.22212692799803335 0.43917928676111373 0.4811919882755251
0.22231290600029752 0.43917928676111373 0.4782608695652173
0.2225076619979518 0.43917928676111373 0.47435271128480694
0.22269493600106216 0.4401563263312165 0.46458231558378116
0.22295983900039573 0.441133365901319 0.4557889594528579
0.22315509499821928 0.4401563263312165 0.44992672203224227
0.2233461840005475 0.44211040547142155 0.4430874450415241
0.22353217999989283 0.44211040547142155 0.4333170493404983
0.22371806600131094 0.44406448461162684 0.4206155349291647
0.22390387699852 0.4430874450415241 0.4186614557889594
0.2240908550011227 0.4450415241817294 0.40009770395701016
0.22427653699924122 0.4450415241817294 0.38641914997557403
0.22446162599953823 0.4460185637518319 0.37957987298485585
0.22464790099911625 0.44894968246213973 0.38935026868588185
0.2248365460000059 0.457743038593063 0.403028822667318
0.22502222700131824 0.44992672203224227 0.4176844162188569
0.2252088540008117 0.44992672203224227 0.43722520762090866
0.22539396099818987 0.45188080117244755 0.44894968246213973
0.2256557900000189 0.4528578407425501 0.44894968246213973
0.22585743400122738 0.45188080117244755 0.4479726428920372
0.22605057900000247 0.4528578407425501 0.4401563263312165
0.22624457599886227 0.4528578407425501 0.44211040547142155
0.2264372200006619 0.45481191988275516 0.43722520762090866
0.22664077199806343 0.45481191988275516 0.4382022471910112
0.22683469399999012 0.45676599902296044 0.43917928676111373
0.2270625419987482 0.45969711773326827 0.4450415241817294
0.227256223999575 0.457743038593063 0.4538348803126526
0.2274737939987972 0.457743038593063 0.45676599902296044
0.22768328999882215 0.45969711773326827 0.44894968246213973
0.22789471199939726 0.4587200781631655 0.4323400097703958
0.228095096998004 0.45969711773326827 0.42159257449926724
0.2282983900004183 0.45969711773326827 0.40986809965803617
0.228511368000909 0.46458231558378116 0.39912066438690763
0.22873956699913833 0.46262823644357587 0.3932584269662922
0.22896335900077247 0.467513434294089 0.4010747435271129
0.22916772600001423 0.46458231558378116 0.41475329750854906
0.22936868499891716 0.4636052760136786 0.4460185637518319
0.22957353400124703 0.46458231558378116 0.4753297508549097
0.22977512199940975 0.46458231558378116 0.4929164631167562
0.22996265599795152 0.46458231558378116 0.5007327796775769
0.23014885600059642 0.4655593551538837 0.49682462139716654
0.23033501999816508 0.4655593551538837 0.4851001465559355
0.23052327600089484 0.46458231558378116 0.4753297508549097
0.23070979099793476 0.47435271128480694 0.4655593551538837
0.230896009998105 0.4665363947239862 0.46458231558378116
0.2311071539988916 0.4655593551538837 0.47142159257449934
0.23129279899876565 0.4665363947239862 0.47728382999511476
0.23147999899811111 0.4665363947239862 0.4909623839765511
0.23166573599883122 0.4655593551538837 0.495847581827064
0.23185132599974168 0.4665363947239862 0.5026868588177822
0.2320371370005887 0.4636052760136786 0.5007327796775769
0.23222272600105498 0.46165119687347334 0.49975574010747437
0.2324086119988351 0.46165119687347334 0.48998534440644836
0.23259412699917448 0.46165119687347334 0.48216902784562765
0.23277971599964076 0.46165119687347334 0.4802149487054226
0.23296543499964173 0.45969711773326827 0.4763067904250122
0.2331512089986063 0.4606741573033708 0.4782608695652173
0.23333685399848036 0.45969711773326827 0.48216902784562765
0.2335284059990954 0.4606741573033708 0.48900830483634583
0.23371468099867343 0.45969711773326827 0.495847581827064
0.23390776999804075 0.457743038593063 0.5036638983878847
0.23409369200089714 0.457743038593063 0.49877870053737183
0.2342793370007712 0.45676599902296044 0.4929164631167562
0.23446555600094143 0.45676599902296044 0.4811919882755251
0.23465155200028676 0.4557889594528579 0.4665363947239862
0.23483723399840528 0.4538348803126526 0.46165119687347334
0.23502230499798316 0.45188080117244755 0.44992672203224227
0.23520785700020497 0.44894968246213973 0.44894968246213973
0.2353925569987041 0.44699560332193444 0.45188080117244755
0.2355779059980705 0.4450415241817294 0.4557889594528579
0.23576381000020774 0.4450415241817294 0.46262823644357587
0.23594936199879157 0.44211040547142155 0.47435271128480694
0.236135840001225 0.44211040547142155 0.4782608695652173
0.23632066999925883 0.4430874450415241 0.4811919882755251
0.23653575899879797 0.441133365901319 0.47728382999511476
0.23680786499971873 0.441133365901319 0.4763067904250122
0.2370379169988155 0.4382022471910112 0.46946751343429405
0.23731683699952555 0.43917928676111373 0.467513434294089
0.2375671660010994 0.4401563263312165 0.45969711773326827
0.23777047700059484 0.4401563263312165 0.45481191988275516
0.23797727000055602 0.4450415241817294 0.44211040547142155
0.23818847000075039 0.4382022471910112 0.431362970200293
0.23839848399802577 0.4382022471910112 0.41670737664875435
0.2386092209999333 0.4382022471910112 0.4049829018075233
0.23887030900004902 0.43722520762090866 0.3932584269662922
0.23911758200119948 0.4382022471910112 0.3834880312652662
0.23933294900052715 0.4382022471910112 0.3737176355642404
0.23960092600100324 0.43917928676111373 0.3659013190034197
0.2398301809989789 0.43429408891060084 0.36199316072300936
0.2401887669984717 0.43429408891060084 0.3561309233023937
0.24046094699951936 0.4352711284807034 0.3551538837322912
0.2406564619996061 0.43429408891060084 0.3512457254518808
0.24084364399823244 0.43429408891060084 0.3512457254518808
0.24103251099950285 0.43429408891060084 0.35222276502198335
0.24121863699838286 0.4352711284807034 0.3639472398632144
0.2414044670003932 0.43722520762090866 0.37469467513434296
0.24164120299974456 0.4352711284807034 0.3961895456765998
0.24182644100073958 0.43722520762090866 0.4206155349291647
0.2420152339982451 0.43917928676111373 0.45188080117244755
0.24221678499816335 0.4401563263312165 0.486077186126038
0.2424058190008509 0.4401563263312165 0.524181729360039
0.242592742000852 0.441133365901319 0.5515388373229115
0.24277883099784958 0.4430874450415241 0.5779189057156815
0.2429649759978929 0.4430874450415241 0.5837811431362969
0.24315065699920524 0.44699560332193444 0.5798729848558866
0.24333680199924856 0.4479726428920372 0.567171470444553
0.2435269839988905 0.4460185637518319 0.5525158768930141
0.24373053599993 0.44406448461162684 0.5466536394723986
0.24393858699841076 0.4450415241817294 0.5427454811919883
0.2441396949980117 0.4479726428920372 0.5476306790425012
0.24433709900040412 0.4509037616023448 0.5603321934538348
0.24453254000036395 0.4509037616023448 0.5652173913043479
0.2448008680003113 0.44894968246213973 0.5691255495847583
0.24503497499972582 0.44992672203224227 0.5554469956033219
0.2452675079985056 0.4479726428920372 0.5280898876404494
0.24549200399997062 0.4509037616023448 0.4655593551538837
0.24581536799814785 0.4528578407425501 0.41670737664875435
0.2460419009985344 0.4538348803126526 0.3854421104054715
0.24623782300113817 0.4528578407425501 0.36003908158280407
0.24642470899925684 0.45676599902296044 0.3434294088910601
0.24661142799959634 0.4557889594528579 0.32975085490962375
0.2468006470007822 0.4606741573033708 0.3180263800683927
0.2469867539984989 0.46165119687347334 0.31704934049829014
0.24717245499778073 0.4636052760136786 0.32486565705911086
0.24739398800011259 0.46262823644357587 0.3365901319003419
0.24758002100134036 0.4636052760136786 0.3502686858817783
0.2477688879989728 0.46262823644357587 0.3678553981436248
0.2479558109989739 0.4606741573033708 0.3883732291157791
0.24814236299789627 0.46165119687347334 0.41670737664875435
0.2483740809984738 0.4606741573033708 0.4382022471910112
0.24856224399991333 0.46262823644357587 0.44992672203224227
0.2487478889997874 0.4606741573033708 0.46262823644357587
0.2489332929981174 0.46165119687347334 0.467513434294089
0.2491189559987106 0.46262823644357587 0.46946751343429405
0.24930473099811934 0.46165119687347334 0.46458231558378116
0.249490115998924 0.4655593551538837 0.46165119687347334
0.2497340189984243 0.4655593551538837 0.457743038593063
0.24991984900043462 0.47142159257449934 0.4479726428920372
0.25010527199992794 0.467513434294089 0.4382022471910112
0.2502908610003942 0.46458231558378116 0.4284318514899854
0.2504775979978149 0.46458231558378116 0.41475329750854906
0.2506634099991061 0.46458231558378116 0.40693698094772834
0.2508497950002493 0.4636052760136786 0.403028822667318
0.25103518099786015 0.46165119687347334 0.403028822667318
0.2512203070000396 0.467513434294089 0.4137762579384465
0.251405655999406 0.46165119687347334 0.42745481191988266
0.25159167099991464 0.4606741573033708 0.4450415241817294
0.2517773149993445 0.4606741573033708 0.46165119687347334
0.2519629790003819 0.4606741573033708 0.4782608695652173
0.25214829000105965 0.46165119687347334 0.4938935026868587
0.2523343239990936 0.45969711773326827 0.5065950170981925
0.25252054299926385 0.4587200781631655 0.5153883732291158
0.25270639099835535 0.45969711773326827 0.522227650219834
0.2528921289995196 0.45676599902296044 0.5232046897899365
0.25307814400002826 0.4587200781631655 0.5173424523693209
0.2532652509980835 0.4538348803126526 0.5036638983878847
0.25345167399791535 0.4528578407425501 0.48412310698583294
0.2536395220013219 0.4528578407425501 0.46946751343429405
0.2538249259996519 0.45188080117244755 0.457743038593063
0.25401059000068926 0.45188080117244755 0.4460185637518319
0.2541963459989347 0.45188080117244755 0.44211040547142155
0.2543815460012411 0.44992672203224227 0.441133365901319
0.2545671349980694 0.44992672203224227 0.43722520762090866
0.2547522239983664 0.4509037616023448 0.4264777723497801
0.254966313001205 0.4538348803126526 0.4206155349291647
0.25515281000116374 0.45481191988275516 0.4049829018075233
0.25533904699841514 0.44992672203224227 0.3952125061064973
0.2555250619989238 0.4509037616023448 0.3961895456765998
0.25571122499968624 0.44992672203224227 0.3981436248168051
0.25589666700034286 0.4479726428920372 0.40205178309721545
0.25608207099867286 0.4450415241817294 0.412799218368344
0.25626810399990063 0.4460185637518319 0.41182217879824123
0.256465267000749 0.44894968246213973 0.4049829018075233
0.25665057899823296 0.44699560332193444 0.403028822667318
0.2568364639992069 0.44699560332193444 0.39912066438690763
0.2570235909988696 0.44406448461162684 0.4010747435271129
0.25720901299791876 0.44406448461162684 0.40889106008793363
0.25739454699942144 0.44406448461162684 0.42745481191988266
0.25759263600048143 0.441133365901319 0.457743038593063
0.25778241000080016 0.441133365901319 0.48705422569614076
0.257967795998411 0.4401563263312165 0.5153883732291158
0.25815316299849655 0.4382022471910112 0.5329750854909623
0.25833891900038 0.4382022471910112 0.540791402051783
0.25852456299980986 0.4382022471910112 0.5476306790425012
0.2587100230011856 0.4382022471910112 0.5368832437713726
0.2589097039999615 0.43624816805080613 0.5280898876404494
0.2591411450011947 0.43722520762090866 0.524181729360039
0.2593347709989757 0.43624816805080613 0.5153883732291158
0.25957363699853886 0.4352711284807034 0.5075720566682951
0.2597702630009735 0.43917928676111373 0.5017098192476794
0.25998098099807976 0.441133365901319 0.4938935026868587
0.26018603299962706 0.43429408891060084 0.486077186126038
0.2603926029987633 0.43624816805080613 0.48216902784562765
0.26060683999821777 0.4382022471910112 0.4733756717147044
0.26080161500067334 0.4382022471910112 0.46458231558378116
0.26102412899854244 0.441133365901319 0.44992672203224227
0.26127058699785266 0.44211040547142155 0.43722520762090866
0.2615540639999381 0.4430874450415241 0.4284318514899854
0.2618134479998844 0.44211040547142155 0.42256961406936977
0.2620506099992781 0.44699560332193444 0.41670737664875435
0.2622929019998992 0.4430874450415241 0.4010747435271129
0.26250584299850743 0.44211040547142155 0.38251099169516367
0.262710523998976 0.4401563263312165 0.376648754274548
0.26291040999785764 0.441133365901319 0.3707865168539326
0.26311005399838905 0.441133365901319 0.3756717147044455
0.2633044579997659 0.4430874450415241 0.376648754274548
0.26349712099909084 0.4401563263312165 0.38739618954567656
0.263685488000192 0.441133365901319 0.39228138739618945
0.2638713739979721 0.4430874450415241 0.4040058622374205
0.2640607409994118 0.4430874450415241 0.4206155349291647
0.2642489959980594 0.44406448461162684 0.44699560332193444
0.26443586299865274 0.4450415241817294 0.47728382999511476
0.26462174900007085 0.4450415241817294 0.5114802149487054
0.2648078380007064 0.44699560332193444 0.5515388373229115
0.26500159399802214 0.44699560332193444 0.5896433805569126
0.2652147379994858 0.4479726428920372 0.6209086468001954
0.26540116099931765 0.45676599902296044 0.6394723986321447
0.2656150270013313 0.45188080117244755 0.6453346360527601
0.26580143099999987 0.4528578407425501 0.6345872007816316
0.26603733400042984 0.4587200781631655 0.6042989741084515
0.26624953400096274 0.4538348803126526 0.5564240351734244
0.2664864559992566 0.4587200781631655 0.5114802149487054
0.26670937800008687 0.4557889594528579 0.4704445530043966
0.2669288739998592 0.45969711773326827 0.43917928676111373
0.2671955910009274 0.46262823644357587 0.4235466536394723
0.2674625309991825 0.46458231558378116 0.40986809965803617
0.26770706299794256 0.46262823644357587 0.39228138739618945
0.26790898499893956 0.4636052760136786 0.3756717147044455
0.2681129999982659 0.46458231558378116 0.3404982901807523
0.2683607740000298 0.4655593551538837 0.303370786516854
0.26858958400043775 0.46458231558378116 0.2789447972642891
0.2687804880006297 0.4655593551538837 0.2662432828529555
0.26896657700126525 0.46458231558378116 0.26917440156326333
0.26915174099849537 0.467513434294089 0.28187591597459694
0.2693383480000193 0.4655593551538837 0.303370786516854
0.2695921589984209 0.467513434294089 0.3365901319003419
0.2697853959980421 0.46458231558378116 0.36003908158280407
0.26997065199975623 0.46165119687347334 0.3805569125549584
0.27015988899802323 0.46262823644357587 0.3981436248168051
0.2703449600012391 0.4587200781631655 0.4137762579384465
0.2705310669989558 0.45969711773326827 0.42745481191988266
0.27071684199836454 0.457743038593063 0.43624816805080613
0.2709023380011786 0.45676599902296044 0.43917928676111373
0.27108779799891636 0.4557889594528579 0.43722520762090866
0.2712732389991288 0.45676599902296044 0.431362970200293
0.27145860599921434 0.4538348803126526 0.4255007327796776
0.2716448440005479 0.4538348803126526 0.4176844162188569
0.27183046999925864 0.45676599902296044 0.4040058622374205
0.2720157809999364 0.457743038593063 0.3981436248168051
0.27220088899775874 0.45676599902296044 0.3961895456765998
0.2723869969995576 0.45676599902296044 0.40205178309721545
0.27257275299780304 0.4557889594528579 0.4157303370786516
0.2727834340003028 0.45481191988275516 0.4303859306301905
0.27296993100026157 0.4557889594528579 0.4479726428920372
0.2731552049990569 0.45676599902296044 0.4665363947239862
0.2733401830009825 0.457743038593063 0.486077186126038
0.27352860599785345 0.457743038593063 0.5046409379579873
0.273782118998497 0.4606741573033708 0.512457254518808
0.27396818999841344 0.457743038593063 0.5163654127992183
0.2741539089984144 0.457743038593063 0.5036638983878847
0.2743395910001709 0.457743038593063 0.49682462139716654
0.2745245129990508 0.45676599902296044 0.48216902784562765
0.274710325000342 0.457743038593063 0.4763067904250122
0.2748960620010621 0.45481191988275516 0.4763067904250122
0.2750810030011053 0.45481191988275516 0.47923790913532005
0.27526633299930836 0.44992672203224227 0.49193942354665365
0.2754640329985705 0.44992672203224227 0.4978016609672691
0.275650270999904 0.45188080117244755 0.5095261358085001
0.2758365640002012 0.4450415241817294 0.5163654127992183
0.27602280100109056 0.44211040547142155 0.5212506106497312
0.27620794600079535 0.4430874450415241 0.5192965315095261
0.2763935350012616 0.441133365901319 0.5153883732291158
0.2765792350000993 0.4401563263312165 0.5173424523693209
0.27678626899796654 0.441133365901319 0.5232046897899365
0.27697407999949064 0.4401563263312165 0.5261358085002443
0.27715983600137406 0.4401563263312165 0.5280898876404494
0.2773457959992811 0.441133365901319 0.5280898876404494
0.27753838499847916 0.441133365901319 0.5163654127992183
0.2777257699999609 0.441133365901319 0.5075720566682951
0.2779225630001747 0.4382022471910112 0.5007327796775769
0.27812841099876096 0.43624816805080613 0.4948705422569615
0.2783481109981949 0.4352711284807034 0.49193942354665365
0.2785430330004601 0.43722520762090866 0.4909623839765511
0.2787319560011383 0.43429408891060084 0.495847581827064
0.27892121100012446 0.4323400097703958 0.5056179775280898
0.2791070229977777 0.43429408891060084 0.5251587689301416
0.2792923899978632 0.43429408891060084 0.5456765999022961
0.2794798680006352 0.4333170493404983 0.5603321934538348
0.2796656789978442 0.4352711284807034 0.567171470444553
0.2798511569999391 0.43722520762090866 0.5642403517342451
0.28003683899805765 0.4401563263312165 0.5564240351734244
0.2802215029987565 0.4382022471910112 0.5349291646311676
0.2804077029977634 0.43722520762090866 0.5026868588177822
0.28059392199793365 0.43917928676111373 0.467513434294089
0.28078030699907686 0.441133365901319 0.4382022471910112
0.28096539599937387 0.4450415241817294 0.40889106008793363
0.28115131899903645 0.4430874450415241 0.3903273082559844
0.28138446299999487 0.4401563263312165 0.38641914997557403
0.28162516199881793 0.441133365901319 0.3952125061064973
0.2818479359993944 0.44211040547142155 0.4079140205178309
0.28203508099977626 0.44894968246213973 0.4108451392281387
0.28222126299806405 0.4479726428920372 0.4040058622374205
0.2824063890002435 0.4450415241817294 0.3883732291157791
0.28259331099980045 0.44406448461162684 0.3776257938446508
0.28277845599950524 0.4460185637518319 0.36980947728383007
0.28296452699942165 0.4479726428920372 0.358085002442599
0.28314981999938027 0.4479726428920372 0.3531998045920859
0.2833350760010944 0.4479726428920372 0.34929164631167553
0.28352133099906496 0.4460185637518319 0.34733756717147046
0.28370669899959466 0.44894968246213973 0.3512457254518808
0.2838919169989822 0.4509037616023448 0.36199316072300936
0.2840780439983064 0.4509037616023448 0.37274059599413767
0.2842634660009935 0.44894968246213973 0.38251099169516367
0.28444955499799107 0.44894968246213973 0.3913043478260869
0.2846426629985217 0.44992672203224227 0.39228138739618945
0.28485832599835703 0.4509037616023448 0.3903273082559844
0.2850459330002195 0.44894968246213973 0.38739618954567656
0.2852306149979995 0.44894968246213973 0.3776257938446508
0.2854152969994175 0.45188080117244755 0.36687835857352225
0.28561251599967363 0.44992672203224227 0.36003908158280407
0.2857998459985538 0.4528578407425501 0.35906204201270153
0.28598541599785676 0.4528578407425501 0.3629702002931119
0.28617198699794244 0.4528578407425501 0.3756717147044455
0.2863569279979856 0.4509037616023448 0.3913043478260869
0.2865425729978597 0.44992672203224227 0.40986809965803617
0.2867280509999546 0.45188080117244755 0.431362970200293
0.2869134549982846 0.4528578407425501 0.4538348803126526
0.28709865500059095 0.457743038593063 0.4665363947239862
0.28728387400042266 0.45969711773326827 0.47923790913532005
0.28746920399862574 0.46165119687347334 0.4909623839765511
0.2876538310010801 0.46262823644357587 0.4909623839765511
0.2878389010002138 0.457743038593063 0.49193942354665365
0.2880243239997071 0.46262823644357587 0.495847581827064
0.28820950600129436 0.4587200781631655 0.5017098192476794
0.2883950020004704 0.4606741573033708 0.5065950170981925
0.28858018399841967 0.45969711773326827 0.5173424523693209
0.28876577299888595 0.46165119687347334 0.5271128480703469
0.28895041799842147 0.457743038593063 0.5378602833414754
0.28913822899994557 0.45969711773326827 0.5515388373229115
0.2893263369987835 0.457743038593063 0.5495847581827065
0.28952529700109153 0.45676599902296044 0.5476306790425012
0.28972025599796325 0.46165119687347334 0.533952125061065
0.28994330699788406 0.4606741573033708 0.5212506106497312
0.2901330630011216 0.4606741573033708 0.5075720566682951
0.2903196709994518 0.46165119687347334 0.4948705422569615
0.29050455700053135 0.4655593551538837 0.48412310698583294
0.29069057200104 0.46165119687347334 0.4811919882755251
0.2909153820000938 0.46165119687347334 0.4733756717147044
0.291107416000159 0.45969711773326827 0.46165119687347334
0.2912995240003511 0.4606741573033708 0.44992672203224227
0.291494426997815 0.4587200781631655 0.441133365901319
0.29168010899957153 0.4606741573033708 0.4206155349291647
0.29186560599919176 0.46262823644357587 0.4108451392281387
0.29205139899931964 0.46262823644357587 0.3952125061064973
0.2922425619981368 0.4665363947239862 0.3932584269662922
0.29242929899919545 0.46165119687347334 0.3981436248168051
0.29261503700035973 0.46262823644357587 0.4059599413776258
0.29280077400107984 0.46165119687347334 0.41670737664875435
0.29299528900082805 0.46262823644357587 0.43429408891060084
0.29318167499877745 0.46165119687347334 0.4528578407425501
0.2933683189985459 0.457743038593063 0.4684904738641915
0.2935593340007472 0.45676599902296044 0.4831460674157304
0.29374901600021985 0.45481191988275516 0.49682462139716654
0.2939355499984231 0.4538348803126526 0.49682462139716654
0.29412763900108985 0.4538348803126526 0.4929164631167562
0.2943167839985108 0.45188080117244755 0.4909623839765511
0.29450520599857555 0.4509037616023448 0.4880312652662433
0.29469140600122046 0.457743038593063 0.486077186126038
0.29487862499809125 0.457743038593063 0.4851001465559355
0.2950639179980499 0.45188080117244755 0.4831460674157304
0.2952489700001024 0.45188080117244755 0.4831460674157304
0.2954487630013318 0.4509037616023448 0.4802149487054226
0.295640648000699 0.45188080117244755 0.47728382999511476
0.2958277379984793 0.44992672203224227 0.47239863214460187
0.29601379000087036 0.4509037616023448 0.4665363947239862
0.2961992119999195 0.44992672203224227 0.46262823644357587
0.2963843760007876 0.44992672203224227 0.4538348803126526
0.2965702430010424 0.44699560332193444 0.44894968246213973
0.29675631300051464 0.45481191988275516 0.4323400097703958
0.2969935680011986 0.4460185637518319 0.4235466536394723
0.2971796199999517 0.4460185637518319 0.4157303370786516
0.2973647840008198 0.44406448461162684 0.4186614557889594
0.29755320600088453 0.44406448461162684 0.42159257449926724
0.29774190700118197 0.4450415241817294 0.4264777723497801
0.29792814399843337 0.44406448461162684 0.42745481191988266
0.2981312699994305 0.44699560332193444 0.42940889106008795
0.2983173409993469 0.43917928676111373 0.4176844162188569
0.2985029669980577 0.43917928676111373 0.4176844162188569
0.29868920399894705 0.4382022471910112 0.4176844162188569
0.2988741820008727 0.4430874450415241 0.4352711284807034
0.29906003100040834 0.4401563263312165 0.45481191988275516
0.2992452129983576 0.4382022471910112 0.4704445530043966
0.29943128299782984 0.4401563263312165 0.4753297508549097
0.29961735399774625 0.441133365901319 0.4753297508549097
0.2998084430000745 0.4430874450415241 0.46458231558378116
0.30000519899840583 0.441133365901319 0.4460185637518319
0.30019867699957103 0.44211040547142155 0.42256961406936977
0.30040430299777654 0.441133365901319 0.3952125061064973
0.3006195390007633 0.441133365901319 0.3776257938446508
0.3008144800005539 0.4382022471910112 0.3786028334147533
0.30108704899976146 0.441133365901319 0.39912066438690763
0.30130047199781984 0.43917928676111373 0.4235466536394723
0.30154581899842015 0.43917928676111373 0.45481191988275516
0.30176040799779 0.4401563263312165 0.4704445530043966
0.3019836630010104 0.44406448461162684 0.4802149487054226
0.30219197399856057 0.43917928676111373 0.4880312652662433
0.3023913039978652 0.441133365901319 0.48412310698583294
0.3025915959988197 0.44406448461162684 0.4909623839765511
0.3027904070004297 0.4450415241817294 0.5026868588177822
0.302976866998506 0.4450415241817294 0.5163654127992183
0.30316373399909935 0.4479726428920372 0.5290669272105519
0.3033504900013213 0.44406448461162684 0.533952125061065
0.3035373940001591 0.4450415241817294 0.533952125061065
0.3037238159995468 0.44406448461162684 0.522227650219834
0.3039105349998863 0.4450415241817294 0.5075720566682951
0.3040960129983432 0.4479726428920372 0.48900830483634583
0.3042816400011361 0.44699560332193444 0.467513434294089
0.3044675439996354 0.4479726428920372 0.44992672203224227
0.3046535399989807 0.44992672203224227 0.4352711284807034
0.30483920400001807 0.44992672203224227 0.41963849535906195
0.305025403999025 0.44992672203224227 0.412799218368344
0.3052110120006546 0.4528578407425501 0.40693698094772834
0.3053975820002961 0.4538348803126526 0.403028822667318
0.3056177079997724 0.45481191988275516 0.4059599413776258
0.3058050559993717 0.457743038593063 0.412799218368344
0.30599046000133967 0.46165119687347334 0.4206155349291647
0.3061763269979565 0.45969711773326827 0.4323400097703958
0.30638504599846783 0.45969711773326827 0.441133365901319
0.3065707460009435 0.4587200781631655 0.45188080117244755
0.3067564470002253 0.46262823644357587 0.46262823644357587
0.3069415909994859 0.45969711773326827 0.47142159257449934
0.30712755100103095 0.45969711773326827 0.4753297508549097
0.3073132329991495 0.457743038593063 0.4763067904250122
0.30749848900086363 0.457743038593063 0.47728382999511476
0.3076846330004628 0.4636052760136786 0.4763067904250122
0.30787029699786217 0.45188080117244755 0.47435271128480694
0.30805692300054943 0.4538348803126526 0.47239863214460187
0.3082421789986256 0.4528578407425501 0.47142159257449934
0.3084275639994303 0.45481191988275516 0.4655593551538837
0.3086683190012991 0.4538348803126526 0.46165119687347334
0.308861204997811 0.4557889594528579 0.44894968246213973
0.3090860150005028 0.457743038593063 0.4382022471910112
0.30928275200130884 0.45969711773326827 0.42452369320957506
0.3095273779981653 0.4606741573033708 0.412799218368344
0.3097326149982109 0.457743038593063 0.4108451392281387
0.30993096299789613 0.46165119687347334 0.412799218368344
0.31012827399899834 0.46262823644357587 0.41670737664875435
0.3103183999992325 0.4636052760136786 0.4255007327796776
0.3105181739992986 0.46165119687347334 0.431362970200293
0.31071237499782 0.46262823644357587 0.42940889106008795
0.31093174099805765 0.46458231558378116 0.4255007327796776
0.3111613479995867 0.46262823644357587 0.4176844162188569
0.31141150999974343 0.4636052760136786 0.40986809965803617
0.31166291299814475 0.46458231558378116 0.4049829018075233
0.3118980939980247 0.4665363947239862 0.41670737664875435
0.3121218679989397 0.4655593551538837 0.43624816805080613
0.312321901001269 0.4684904738641915 0.44992672203224227
0.3125354160001734 0.4684904738641915 0.46262823644357587
0.31274026399842114 0.47239863214460187 0.4782608695652173
0.31294127900036983 0.4655593551538837 0.4929164631167562
0.31313827499980107 0.46458231558378116 0.5026868588177822
0.31333875299969804 0.46262823644357587 0.5026868588177822
0.31357617499816115 0.457743038593063 0.4938935026868587
0.3138160960006644 0.45969711773326827 0.4909623839765511
0.3140541100001428 0.457743038593063 0.457743038593063
0.3142781249989639 0.4528578407425501 0.43917928676111373
0.3145104719988012 0.4538348803126526 0.42745481191988266
0.31476911600111634 0.45188080117244755 0.4255007327796776
0.31504890699943644 0.4528578407425501 0.4255007327796776
0.3153329019987723 0.45188080117244755 0.42452369320957506
0.31554050900012953 0.44894968246213973 0.4186614557889594
0.3157422090007458 0.44992672203224227 0.4264777723497801
0.3159595389988681 0.4479726428920372 0.4235466536394723
0.31620907099932083 0.44894968246213973 0.42745481191988266
0.31644747400059714 0.4460185637518319 0.42940889106008795
0.3166424890005146 0.44211040547142155 0.4264777723497801
0.316834467001172 0.4450415241817294 0.4235466536394723
0.3170213710000098 0.4430874450415241 0.4206155349291647
0.3172072199995455 0.44406448461162684 0.4176844162188569
0.31743614099832484 0.44211040547142155 0.4176844162188569
0.31766367399904993 0.44406448461162684 0.42159257449926724
0.3178508189994318 0.4460185637518319 0.42256961406936977
0.31803620500068064 0.44406448461162684 0.42940889106008795
0.31822373799877823 0.44406448461162684 0.43624816805080613
0.318408882998483 0.44211040547142155 0.44699560332193444
0.31859443500070483 0.43917928676111373 0.4460185637518319
0.3187795429985272 0.4382022471910112 0.45676599902296044
0.3189646319988242 0.43917928676111373 0.4636052760136786
0.31914990699806367 0.4401563263312165 0.4684904738641915
0.31933569999819156 0.4382022471910112 0.46946751343429405
0.31952143699891167 0.4401563263312165 0.47435271128480694
0.3197083589984686 0.43722520762090866 0.4733756717147044
0.3198948190001829 0.4382022471910112 0.4763067904250122
0.3200806669992744 0.43722520762090866 0.47142159257449934
0.3202664599994023 0.43624816805080613 0.4665363947239862
0.32045190099961474 0.4352711284807034 0.4636052760136786
0.3206375090012443 0.43624816805080613 0.4606741573033708
0.3208296349985176 0.4352711284807034 0.4636052760136786
0.32101522499942803 0.43429408891060084 0.47239863214460187
0.32120142499843496 0.43429408891060084 0.486077186126038
0.3213877730013337 0.4333170493404983 0.49877870053737183
0.32157528799871216 0.4323400097703958 0.5065950170981925
0.32176221099871327 0.4333170493404983 0.5036638983878847
0.3219480779989681 0.431362970200293 0.48998534440644836
0.3221349259983981 0.43429408891060084 0.46946751343429405
0.32232051599930855 0.43624816805080613 0.4479726428920372
0.3225066599989077 0.43917928676111373 0.42940889106008795
0.32273987799999304 0.43624816805080613 0.4157303370786516
0.3229280599989579 0.4382022471910112 0.41182217879824123
0.32311429800029146 0.441133365901319 0.4157303370786516
0.32330042399917147 0.441133365901319 0.42159257449926724
0.3234863830002723 0.4460185637518319 0.4352711284807034
0.32368423200023244 0.44211040547142155 0.44211040547142155
0.3238701170012064 0.44699560332193444 0.43917928676111373
0.3240558549987327 0.44699560332193444 0.4255007327796776
0.3242419810012507 0.44894968246213973 0.4010747435271129
0.3244277369994961 0.4557889594528579 0.3776257938446508
0.32461497400072403 0.44992672203224227 0.3610161211529066
0.3248011369978485 0.45188080117244755 0.35417684416218864
0.3249929119992885 0.4509037616023448 0.36003908158280407
0.32517998199909925 0.45188080117244755 0.3707865168539326
0.32536559000072884 0.45188080117244755 0.38739618954567656
0.3256374179982231 0.45188080117244755 0.39912066438690763
0.3258253220010374 0.4509037616023448 0.4010747435271129
0.32601089300078456 0.45481191988275516 0.3952125061064973
0.32619668600091245 0.45481191988275516 0.38739618954567656
0.3263814599995385 0.4557889594528579 0.38641914997557403
0.32656699400104117 0.45676599902296044 0.3903273082559844
0.32675219399970956 0.45969711773326827 0.4040058622374205
0.3269388759981666 0.46262823644357587 0.4186614557889594
0.3271245579999231 0.46458231558378116 0.43429408891060084
0.32731907299967133 0.4655593551538837 0.45969711773326827
0.32750768099867855 0.467513434294089 0.48998534440644836
0.3276947880003718 0.46946751343429405 0.5271128480703469
0.3278928219988302 0.4704445530043966 0.5574010747435272
0.32809837400054676 0.4684904738641915 0.5759648265754762
0.3283026110002538 0.4684904738641915 0.578895945285784
0.3284919779980555 0.47142159257449934 0.5642403517342451
0.3286779560003197 0.4733756717147044 0.5476306790425012
0.32886717499786755 0.4704445530043966 0.5349291646311676
0.32905374500114704 0.4684904738641915 0.5300439667806547
0.32923927899901173 0.4665363947239862 0.5271128480703469
0.32943816400074866 0.4665363947239862 0.5349291646311676
0.32965327100100694 0.4684904738641915 0.5476306790425012
0.3298391940006695 0.4655593551538837 0.550561797752809
0.33002580199899967 0.46458231558378116 0.5466536394723986
0.3302122060013062 0.4655593551538837 0.5368832437713726
0.33039907299826154 0.46458231558378116 0.5202735710796287
0.3305843839989393 0.467513434294089 0.49877870053737183
0.3307692140006111 0.4665363947239862 0.47728382999511476
0.33095476599919493 0.46458231558378116 0.4665363947239862
0.33113959600086673 0.467513434294089 0.4509037616023448
0.33132501900036004 0.467513434294089 0.4430874450415241
0.3315111080009956 0.4636052760136786 0.441133365901319
0.33169667900074273 0.4665363947239862 0.44894968246213973
0.3319606549994205 0.4606741573033708 0.46165119687347334
0.33215130000098725 0.46165119687347334 0.47239863214460187
0.3323377039996558 0.457743038593063 0.48412310698583294
0.3325230160007777 0.4557889594528579 0.49193942354665365
0.33270856799936155 0.45481191988275516 0.49682462139716654
0.3328958239981148 0.45481191988275516 0.49193942354665365
0.33308087600016734 0.4538348803126526 0.48705422569614076
0.33326720599870896 0.45188080117244755 0.486077186126038
0.33345307299896376 0.44894968246213973 0.4763067904250122
0.33364062499822467 0.4538348803126526 0.46946751343429405
0.33382765900023514 0.44894968246213973 0.4733756717147044
0.33401378499911516 0.4460185637518319 0.48216902784562765
0.3341999849981221 0.4450415241817294 0.4938935026868587
0.3343858150001324 0.44406448461162684 0.5056179775280898
0.3345700889985892 0.44406448461162684 0.5105031753786029
0.3347666039990145 0.4450415241817294 0.5173424523693209
0.3349518420000095 0.44406448461162684 0.5202735710796287
0.33513743100047577 0.4401563263312165 0.524181729360039
0.33532257600018056 0.4450415241817294 0.5114802149487054
0.33550818399817217 0.44211040547142155 0.4938935026868587
0.3356930879999709 0.44211040547142155 0.4733756717147044
0.33588047299781465 0.4430874450415241 0.44992672203224227
0.3360656359982386 0.44406448461162684 0.4264777723497801
0.3362520589980704 0.44406448461162684 0.39912066438690763
0.33643833300084225 0.4450415241817294 0.3776257938446508
0.33662395999999717 0.4479726428920372 0.3707865168539326
0.33680901199841173 0.44992672203224227 0.36687835857352225
0.3369948049985396 0.44992672203224227 0.37469467513434296
0.33717985700059216 0.4509037616023448 0.3913043478260869
0.33736803899955703 0.44992672203224227 0.4157303370786516
0.3375588130002143 0.45481191988275516 0.4255007327796776
0.33774681000068085 0.4538348803126526 0.42452369320957506
0.33793265799977235 0.45481191988275516 0.4157303370786516
0.33812000599937164 0.4538348803126526 0.4059599413776258
0.33830568800112815 0.45188080117244755 0.39423546653639474
0.3384924069978297 0.4528578407425501 0.39228138739618945
0.33867794099933235 0.44699560332193444 0.3932584269662922
0.33886352999979863 0.44699560332193444 0.3981436248168051
0.3390493789993343 0.4538348803126526 0.4108451392281387
0.33923494899863726 0.44406448461162684 0.4303859306301905
0.33942053799910354 0.441133365901319 0.4450415241817294
0.33960642400052166 0.441133365901319 0.45188080117244755
0.33980716099904384 0.4401563263312165 0.457743038593063
0.34000421299788286 0.43624816805080613 0.4587200781631655
0.34018993199788383 0.43917928676111373 0.45188080117244755
0.3403768169991963 0.4382022471910112 0.441133365901319
0.3405627399988589 0.441133365901319 0.42159257449926724
0.3407500510002137 0.441133365901319 0.40693698094772834
0.34093534400017234 0.4401563263312165 0.3961895456765998
0.34112071100025787 0.4382022471910112 0.39228138739618945
0.3413064669985033 0.4382022471910112 0.40009770395701016
0.3414918710004713 0.43722520762090866 0.41963849535906195
0.3417033299992909 0.4352711284807034 0.44211040547142155
0.34188995699878433 0.43722520762090866 0.457743038593063
0.3420751570010907 0.43624816805080613 0.4753297508549097
0.3422931339991919 0.4382022471910112 0.47923790913532005
0.3424955749978835 0.43624816805080613 0.47728382999511476
0.342688200998964 0.4382022471910112 0.4733756717147044
0.34289051199812093 0.4382022471910112 0.46946751343429405
0.3430938050005352 0.43917928676111373 0.4655593551538837
0.34329783800058067 0.4401563263312165 0.4636052760136786
0.3434948350004561 0.44406448461162684 0.4587200781631655
0.34370686799957184 0.4450415241817294 0.45481191988275516
0.34392269700038014 0.4430874450415241 0.4538348803126526
0.3442036369997368 0.44406448461162684 0.4655593551538837
0.3445168719990761 0.4450415241817294 0.4655593551538837
0.3447660519996134 0.4460185637518319 0.4636052760136786
0.3449694749979244 0.44699560332193444 0.457743038593063
0.34522713700062013 0.45188080117244755 0.4460185637518319
0.34544115099924966 0.4528578407425501 0.4382022471910112
0.3456987579993438 0.4528578407425501 0.4284318514899854
0.34589823599890224 0.4606741573033708 0.41475329750854906
0.34609949099831283 0.4528578407425501 0.4040058622374205
0.346305246999691 0.45676599902296044 0.39423546653639474
0.3465302980002889 0.4557889594528579 0.39716658524670256
0.34679492299983394 0.4587200781631655 0.40986809965803617
0.3470232340005168 0.4587200781631655 0.42256961406936977
0.3472695809978177 0.457743038593063 0.43722520762090866
0.34754650199829484 0.46262823644357587 0.45188080117244755
0.34792755099988426 0.46946751343429405 0.4606741573033708
0.34816793500067433 0.46262823644357587 0.467513434294089
0.34841294899888453 0.46262823644357587 0.4733756717147044
0.34863775999838253 0.45969711773326827 0.4948705422569615
0.34926843399807694 0.45969711773326827 0.4851001465559355
0.3496743149989925 0.46165119687347334 0.46458231558378116
0.3498770890000742 0.46262823644357587 0.441133365901319
0.35006441899895435 0.46262823644357587 0.4186614557889594
0.3502501199982362 0.46458231558378116 0.4010747435271129
0.35043667200079653 0.46165119687347334 0.38935026868588185
0.350624594000692 0.46262823644357587 0.38739618954567656
0.3508111459996144 0.46458231558378116 0.39912066438690763
0.350997310000821 0.4636052760136786 0.41670737664875435
0.35118325100120273 0.46165119687347334 0.4323400097703958
0.3513694329994905 0.46165119687347334 0.44211040547142155
0.3515547620008874 0.46165119687347334 0.4450415241817294
0.35174005500084604 0.46165119687347334 0.43722520762090866
0.3519264780006779 0.46262823644357587 0.43429408891060084
0.3521118819990079 0.45676599902296044 0.4255007327796776
0.35229734200038365 0.4557889594528579 0.42256961406936977
0.3524829679990944 0.45676599902296044 0.41475329750854906
0.3526683159980166 0.4557889594528579 0.41670737664875435
0.3528534059987578 0.45676599902296044 0.4186614557889594
0.35303910600123345 0.45481191988275516 0.4264777723497801
0.3532257689985272 0.45676599902296044 0.43429408891060084
0.35341159900053754 0.4587200781631655 0.43917928676111373
0.3536287249989982 0.4587200781631655 0.44406448461162684
0.35385103600128787 0.45969711773326827 0.44992672203224227
0.3540406799984339 0.4606741573033708 0.4557889594528579
0.3542268620003597 0.4606741573033708 0.4587200781631655
0.35441269199873204 0.45969711773326827 0.45969711773326827
0.3545997439978237 0.45969711773326827 0.4636052760136786
0.3547850369977823 0.4587200781631655 0.4665363947239862
0.3549705340010405 0.4557889594528579 0.47239863214460187
0.3551561229978688 0.4538348803126526 0.4753297508549097
0.355341620001127 0.4538348803126526 0.47728382999511476
0.35552715299854754 0.45188080117244755 0.4802149487054226
0.35571264999816776 0.44992672203224227 0.4831460674157304
0.35589999799776706 0.44992672203224227 0.49193942354665365
0.35608529100136366 0.4509037616023448 0.4851001465559355
0.3562704549985938 0.4450415241817294 0.48998534440644836
0.35645602499789675 0.44406448461162684 0.4938935026868587
0.3566414109991456 0.4460185637518319 0.4909623839765511
0.3568265739995695 0.4430874450415241 0.4880312652662433
0.3572183819997008 0.4401563263312165 0.4763067904250122
0.35745798900097725 0.441133365901319 0.486077186126038
0.3576592259996687 0.441133365901319 0.5065950170981925
0.3578567219992692 0.441133365901319 0.5388373229115779
0.35810099499940407 0.43917928676111373 0.5574010747435272
0.3582973439988564 0.43722520762090866 0.567171470444553
0.35852693199922214 0.43917928676111373 0.5583781143136297
0.3587318729987601 0.43917928676111373 0.5417684416218858
0.3590034420012671 0.43917928676111373 0.4978016609672691
0.359228807999898 0.4401563263312165 0.4655593551538837
0.35946165600034874 0.43917928676111373 0.44699560332193444
0.3596750959986821 0.4382022471910112 0.43722520762090866
0.3598687779995089 0.4401563263312165 0.43429408891060084
0.3600645890001033 0.43624816805080613 0.4323400097703958
0.36026367799786385 0.4382022471910112 0.43624816805080613
0.36046171199996024 0.4382022471910112 0.43917928676111373
0.3606588559996453 0.43624816805080613 0.43429408891060084
0.3608702230012568 0.43917928676111373 0.4206155349291647
0.3611276439987705 0.43917928676111373 0.39912066438690763
0.3613534729993262 0.4382022471910112 0.3756717147044455
0.36181107599986717 0.43917928676111373 0.36980947728383007
0.3620665349990304 0.4401563263312165 0.3678553981436248
0.3623270110001613 0.4401563263312165 0.3688324377137273
0.3625468780010124 0.4401563263312165 0.36980947728383007
0.3627659849989868 0.4401563263312165 0.376648754274548
0.36296299999958137 0.44211040547142155 0.38251099169516367
0.3631490699990536 0.44406448461162684 0.38739618954567656
0.36333593699964695 0.4450415241817294 0.39912066438690763
0.36357863699959125 0.4430874450415241 0.412799218368344
0.3637782629994035 0.44992672203224227 0.4284318514899854
0.36396485200020834 0.44406448461162684 0.4382022471910112
0.36415240399946924 0.44699560332193444 0.45481191988275516
0.36433827099972405 0.4509037616023448 0.45676599902296044
0.3645246380001481 0.4460185637518319 0.47142159257449934
0.3647103010007413 0.44894968246213973 0.47142159257449934
0.3648963720006577 0.44699560332193444 0.47142159257449934
0.3650822199997492 0.4479726428920372 0.467513434294089
0.3652677729987772 0.44894968246213973 0.457743038593063
0.3654535659989051 0.4479726428920372 0.45481191988275516
0.3656582100011292 0.4509037616023448 0.43917928676111373
0.3658462439998402 0.4509037616023448 0.43624816805080613
0.36603335099789547 0.45188080117244755 0.4255007327796776
0.3662199040009 0.45188080117244755 0.4255007327796776
0.3664053629981936 0.45481191988275516 0.4303859306301905
0.3665910259987868 0.45676599902296044 0.4401563263312165
0.36678096700052265 0.4528578407425501 0.4460185637518319
0.36696898299851455 0.457743038593063 0.4606741573033708
0.3671821079988149 0.457743038593063 0.46458231558378116
0.367368160001206 0.457743038593063 0.4655593551538837
0.3675548049977806 0.457743038593063 0.4684904738641915
0.36774137599786627 0.46165119687347334 0.4704445530043966
0.3679278349991364 0.45969711773326827 0.4684904738641915
0.3681162579996453 0.46262823644357587 0.4704445530043966
0.36830527300116955 0.4606741573033708 0.47239863214460187
0.36849139900004957 0.467513434294089 0.47923790913532005
0.36867745099880267 0.46458231558378116 0.48900830483634583
0.36886391100051696 0.46262823644357587 0.5036638983878847
0.3690499260010256 0.45969711773326827 0.5251587689301416
0.36923562700030743 0.457743038593063 0.5476306790425012
0.369421716000943 0.45969711773326827 0.5622862725940401
0.369628341999487 0.45969711773326827 0.5652173913043479
0.3698151719981979 0.4587200781631655 0.5613092330239375
0.3700017980008852 0.46165119687347334 0.5544699560332194
0.3701876089980942 0.45969711773326827 0.5319980459208598
0.37037408700052765 0.45969711773326827 0.5085490962383976
0.37055962099839235 0.45969711773326827 0.48705422569614076
0.3707463770006143 0.4587200781631655 0.4684904738641915
0.3709323729999596 0.457743038593063 0.4509037616023448
0.3711182400002144 0.457743038593063 0.43429408891060084
0.3713043669995386 0.4606741573033708 0.42159257449926724
0.3714899560000049 0.46262823644357587 0.4137762579384465
0.3716758789996675 0.4606741573033708 0.4049829018075233
0.37186202299926663 0.4587200781631655 0.3981436248168051
0.37204824199943687 0.45969711773326827 0.38935026868588185
0.37223405400072807 0.45969711773326827 0.3834880312652662
0.3724254570006451 0.4606741573033708 0.38251099169516367
0.3726113800003077 0.4606741573033708 0.37957987298485585
0.37279915399994934 0.45969711773326827 0.3737176355642404
0.3729949839980691 0.45969711773326827 0.36492427943331696
0.3731883699983882 0.46262823644357587 0.36492427943331696
0.3733747369988123 0.4587200781631655 0.36199316072300936
0.37361017700095545 0.457743038593063 0.36003908158280407
0.37380193200078793 0.46165119687347334 0.36687835857352225
0.3739895219987375 0.4557889594528579 0.37957987298485585
0.37419437000062317 0.4528578407425501 0.3952125061064973
0.37438262599971495 0.45481191988275516 0.42256961406936977
0.374571067000943 0.45188080117244755 0.43429408891060084
0.37475667399849044 0.45188080117244755 0.4460185637518319
0.3749428560004162 0.44894968246213973 0.44894968246213973
0.37513857500016456 0.44699560332193444 0.45676599902296044
0.3753241269987484 0.44699560332193444 0.4606741573033708
0.3755191790005483 0.44699560332193444 0.4753297508549097
0.3757413790008286 0.4460185637518319 0.486077186126038
0.3759377639980812 0.44406448461162684 0.49975574010747437
0.37613081599920406 0.44699560332193444 0.5144113336590133
0.3763246269991214 0.4430874450415241 0.5202735710796287
0.37651327200001106 0.44211040547142155 0.5232046897899365
0.37670308299857425 0.4430874450415241 0.5212506106497312
0.37690300599933835 0.44211040547142155 0.524181729360039
0.3771045579997008 0.44211040547142155 0.5290669272105519
0.3773120170008042 0.4450415241817294 0.5300439667806547
0.3775988640009018 0.4430874450415241 0.5192965315095261
0.37782311900082277 0.44699560332193444 0.5036638983878847
0.37805203999960213 0.44894968246213973 0.4733756717147044
0.37830372099779197 0.44894968246213973 0.43429408891060084
0.3785364209979889 0.44992672203224227 0.4040058622374205
0.37877587899856735 0.4528578407425501 0.38446507083536874
0.37905529999989085 0.4460185637518319 0.36003908158280407
0.3793548129979172 0.44211040547142155 0.35906204201270153
0.3796372520009754 0.441133365901319 0.37274059599413767
0.37985102599850507 0.4382022471910112 0.38935026868588185
0.38005309700020007 0.4382022471910112 0.412799218368344
0.38026833399999305 0.4382022471910112 0.44406448461162684
0.38050595900131157 0.43722520762090866 0.47435271128480694
0.3807311029995617 0.43917928676111373 0.49975574010747437
0.38098735799940187 0.4401563263312165 0.5173424523693209
0.38126461199863115 0.44211040547142155 0.5192965315095261
0.38154193999798736 0.4460185637518319 0.5095261358085001
0.38187902699792176 0.4460185637518319 0.49877870053737183
0.3821288920007646 0.4450415241817294 0.48998534440644836
0.38234033299886505 0.4430874450415241 0.486077186126038
0.3825385700001789 0.44406448461162684 0.47728382999511476
0.38273428899992723 0.4450415241817294 0.47239863214460187
0.382947359001264 0.44406448461162684 0.46946751343429405
0.3831432629995106 0.45188080117244755 0.4704445530043966
0.3833351670000411 0.44406448461162684 0.46946751343429405
0.3835368850013765 0.4479726428920372 0.4753297508549097
0.3837296409983537 0.44699560332193444 0.4763067904250122
0.38392585999827133 0.4450415241817294 0.47435271128480694
0.38412350399812567 0.4479726428920372 0.47142159257449934
0.38432588900104747 0.4450415241817294 0.46262823644357587
0.3845722180012672 0.4460185637518319 0.45481191988275516
0.3848050470005546 0.4460185637518319 0.4528578407425501
0.3850336539981072 0.4509037616023448 0.4557889594528579
0.3853287050005747 0.4479726428920372 0.45676599902296044
0.3855819780001184 0.44992672203224227 0.45188080117244755
0.38577821500075515 0.44894968246213973 0.4479726428920372
0.3859680819987261 0.45188080117244755 0.4460185637518319
0.3861562269994465 0.4528578407425501 0.4430874450415241
0.3863430380006321 0.45481191988275516 0.44406448461162684
0.38653666399841313 0.457743038593063 0.4479726428920372
0.3867418269983318 0.46165119687347334 0.4538348803126526
0.3869423789983557 0.4587200781631655 0.4587200781631655
0.3871396899994579 0.4606741573033708 0.4655593551538837
0.38733377899916377 0.4606741573033708 0.47142159257449934
0.387544646000606 0.46262823644357587 0.46458231558378116
0.38774627200109535 0.46165119687347334 0.45969711773326827
0.38798411899915664 0.46165119687347334 0.4528578407425501
0.3882033929985482 0.4636052760136786 0.44699560332193444
0.3884206849979819 0.46165119687347334 0.44211040547142155
0.38863307100109523 0.46262823644357587 0.44211040547142155
0.38884778899955563 0.4636052760136786 0.44211040547142155
0.38906369200049085 0.46458231558378116 0.4460185637518319
0.3892737069982104 0.4655593551538837 0.45188080117244755
0.3894808330005617 0.4684904738641915 0.4557889594528579
0.3897497170000861 0.46262823644357587 0.457743038593063
0.3900888770003803 0.4655593551538837 0.4538348803126526
0.39035389099808526 0.46262823644357587 0.44992672203224227
0.3905969420011388 0.46458231558378116 0.44699560332193444
0.39081084599820315 0.46458231558378116 0.4382022471910112
0.39102213799924357 0.4636052760136786 0.4255007327796776
0.39126111500081606 0.4636052760136786 0.4206155349291647
0.3914863889986009 0.4636052760136786 0.4255007327796776
0.3916985149990069 0.46946751343429405 0.431362970200293
0.39190549300110433 0.46262823644357587 0.44699560332193444
0.3921410439979809 0.46458231558378116 0.467513434294089
0.3924067059997469 0.4587200781631655 0.4704445530043966
0.3926005539979087 0.45969711773326827 0.46946751343429405
0.3927939389977837 0.4587200781631655 0.4587200781631655
0.39297960299882106 0.457743038593063 0.44699560332193444
0.39316882099956274 0.4606741573033708 0.4264777723497801
0.3933545219988446 0.4587200781631655 0.4137762579384465
0.39364425700114225 0.45676599902296044 0.4186614557889594
0.39384923499892466 0.4528578407425501 0.4255007327796776
0.39409821200024453 0.457743038593063 0.4509037616023448
0.3942994680000993 0.45188080117244755 0.4851001465559355
0.394510222999088 0.4509037616023448 0.5105031753786029
0.39472368199858465 0.4538348803126526 0.522227650219834
0.3949321410000266 0.45676599902296044 0.5075720566682951
0.39512793399990187 0.4538348803126526 0.49682462139716654
0.3953144679981051 0.45481191988275516 0.47435271128480694
0.3955030010001792 0.4538348803126526 0.44992672203224227
0.3956880719997571 0.457743038593063 0.4235466536394723
0.3958734389998426 0.4538348803126526 0.39716658524670256
0.3960585649983841 0.44992672203224227 0.37274059599413767
0.3962437839982158 0.44894968246213973 0.358085002442599
0.39642974399976083 0.4479726428920372 0.3453834880312652
0.3966150739979639 0.44894968246213973 0.3385442110405472
0.396800403999805 0.4460185637518319 0.3356130923302394
0.3969857519987272 0.4430874450415241 0.3414753297508548
0.3971753229998285 0.441133365901319 0.3502686858817783
0.3973615049981163 0.44211040547142155 0.3610161211529066
0.3975657789997058 0.43917928676111373 0.3688324377137273
0.3977574790005747 0.4401563263312165 0.36980947728383007
0.39794366099886247 0.43722520762090866 0.3707865168539326
0.398130786998081 0.4352711284807034 0.3737176355642404
0.39831733900064137 0.43917928676111373 0.3786028334147533
0.39850305800064234 0.4382022471910112 0.38935026868588185
0.3987023320005392 0.43722520762090866 0.4108451392281387
0.39888929199878476 0.43624816805080613 0.44992672203224227
0.3990753069992934 0.4382022471910112 0.4929164631167562
0.39926082199963275 0.4382022471910112 0.5359062042012701
0.3994473189995915 0.4430874450415241 0.5740107474352711
0.3996335369993176 0.43722520762090866 0.5994137762579383
0.3998190899983456 0.441133365901319 0.6082071323888618
0.40000514200073667 0.44406448461162684 0.5964826575476307
0.4001906749981572 0.4382022471910112 0.5759648265754762
0.40041909700084943 0.441133365901319 0.5466536394723986
0.40060509400063893 0.43722520762090866 0.524181729360039
0.4007900350006821 0.4401563263312165 0.4929164631167562
0.40097519800110604 0.4382022471910112 0.4636052760136786
0.40118063900081324 0.4401563263312165 0.43722520762090866
0.40136643200094113 0.4401563263312165 0.4176844162188569
0.40156920599838486 0.43722520762090866 0.39912066438690763
0.40175851700041676 0.43917928676111373 0.3903273082559844
0.40194521800003713 0.4382022471910112 0.3883732291157791
0.40213128799950937 0.4382022471910112 0.39228138739618945
0.40233435899790493 0.43917928676111373 0.3952125061064973
0.4025263740004448 0.43917928676111373 0.40205178309721545
0.4027127039989864 0.4401563263312165 0.4108451392281387
0.4028987560013775 0.43722520762090866 0.42159257449926724
0.4030846780005959 0.44211040547142155 0.431362970200293
0.40326961900063907 0.4460185637518319 0.4450415241817294
0.4034555049984192 0.441133365901319 0.457743038593063
0.40364120500089484 0.4460185637518319 0.467513434294089
0.40382748000047286 0.44699560332193444 0.4802149487054226
0.4040129950008122 0.4479726428920372 0.48900830483634583
0.4041991579979367 0.4479726428920372 0.49975574010747437
0.40438420999998925 0.44699560332193444 0.5075720566682951
0.4045693179978116 0.44894968246213973 0.5153883732291158
0.40475477799918735 0.44992672203224227 0.5105031753786029
0.404953885001305 0.44894968246213973 0.5036638983878847
0.4051415479989373 0.44699560332193444 0.5095261358085001
0.4053272119999747 0.44699560332193444 0.49975574010747437
0.40553957799784257 0.4509037616023448 0.5007327796775769
0.40572740800053 0.4509037616023448 0.5046409379579873
0.4059132939983101 0.45188080117244755 0.5065950170981925
0.40609919800044736 0.4538348803126526 0.5036638983878847
0.4062855459997081 0.4557889594528579 0.4978016609672691
0.4064719320012955 0.45188080117244755 0.486077186126038
0.406663521000155 0.45676599902296044 0.4782608695652173
0.4068586100001994 0.4557889594528579 0.47239863214460187
0.4070523099981074 0.4557889594528579 0.467513434294089
0.40724525100085884 0.45676599902296044 0.45969711773326827
0.40743709899834357 0.45676599902296044 0.4479726428920372
0.40764070699879085 0.46458231558378116 0.42940889106008795
0.40785270299966214 0.45676599902296044 0.4186614557889594
0.40803947699896526 0.45969711773326827 0.4137762579384465
0.40822702899822616 0.46165119687347334 0.4059599413776258
0.4084135820012307 0.4636052760136786 0.4040058622374205
0.4085998560003645 0.4606741573033708 0.39912066438690763
0.4088242590005393 0.4636052760136786 0.39912066438690763
0.4090600509989599 0.46458231558378116 0.4040058622374205
0.40926512199803255 0.4636052760136786 0.40986809965803617
0.4094584140002553 0.4636052760136786 0.4176844162188569
0.4096558550008922 0.4587200781631655 0.41963849535906195
0.4098548149995622 0.46262823644357587 0.41670737664875435
0.410052810999332 0.4655593551538837 0.4137762579384465
0.41025536300003296 0.46262823644357587 0.42256961406936977
0.41053235800063703 0.46262823644357587 0.4538348803126526
0.41077811300056055 0.46458231558378116 0.47239863214460187
0.4109849790002045 0.46262823644357587 0.4978016609672691
0.4111837349992129 0.45676599902296044 0.5251587689301416
0.41140780500063556 0.45969711773326827 0.5427454811919883
0.41164285600098083 0.45676599902296044 0.5495847581827065
0.4119125549987075 0.4606741573033708 0.5329750854909623
0.41216451299987966 0.4606741573033708 0.5105031753786029
0.4123990279986174 0.4606741573033708 0.4851001465559355
0.4126196719989821 0.46165119687347334 0.45969711773326827
0.4128200939994713 0.4606741573033708 0.4401563263312165
0.4130302390003635 0.46262823644357587 0.4284318514899854
0.413252383001236 0.4557889594528579 0.4284318514899854
0.41347426699940115 0.4587200781631655 0.42745481191988266
0.4137972249991435 0.45676599902296044 0.41963849535906195
0.41409394099900965 0.45481191988275516 0.4049829018075233
0.41440510200118297 0.4557889594528579 0.3854421104054715
0.41465141300068353 0.4538348803126526 0.37274059599413767
0.4148928340000566 0.45188080117244755 0.36492427943331696
0.4151275709991751 0.44894968246213973 0.36492427943331696
0.4153497150000476 0.4479726428920372 0.37957987298485585
0.41558882200115477 0.44699560332193444 0.40205178309721545
0.4158472239978437 0.4460185637518319 0.4303859306301905
0.4160764609987382 0.44406448461162684 0.45188080117244755
0.41626977199848625 0.4430874450415241 0.4684904738641915
0.41645643599986215 0.44211040547142155 0.4802149487054226
0.41664254300121684 0.44211040547142155 0.495847581827064
0.4168275949996314 0.44211040547142155 0.5085490962383976
0.4170134070009226 0.44211040547142155 0.5173424523693209
0.4172020699988934 0.4401563263312165 0.5232046897899365
0.4173878820001846 0.43917928676111373 0.5192965315095261
0.4175781369995093 0.43429408891060084 0.5134342940889105
0.4177648750010121 0.43722520762090866 0.5026868588177822
0.4179510569992999 0.4382022471910112 0.4802149487054226
0.41813722000006237 0.43624816805080613 0.45969711773326827
0.41832240199801163 0.43722520762090866 0.4401563263312165
0.41850717600027565 0.43624816805080613 0.4206155349291647
0.41870539500087034 0.43722520762090866 0.41182217879824123
0.41889203900063876 0.44211040547142155 0.403028822667318
0.4190780549979536 0.43722520762090866 0.3913043478260869
0.4192637919986737 0.43624816805080613 0.3786028334147533
0.41944990000047255 0.4352711284807034 0.3688324377137273
0.4196676360006677 0.43624816805080613 0.3707865168539326
0.4198633739979414 0.43917928676111373 0.37469467513434296
0.42004888899828074 0.4401563263312165 0.38153395212506114
0.4202347370010102 0.43917928676111373 0.3834880312652662
0.4204198269981134 0.43722520762090866 0.3961895456765998
0.4206047679981566 0.43722520762090866 0.41670737664875435
0.4207903569986229 0.43624816805080613 0.4430874450415241
0.42097535300126765 0.43722520762090866 0.4753297508549097
0.4211609980011417 0.4382022471910112 0.512457254518808
0.42134623599849874 0.4401563263312165 0.5280898876404494
