0 0.4323400097703958 0.43624816805080613
0.0006552289996761829 0.4538348803126526 0.4303859306301905
0.0009243349995813332 0.45969711773326827 0.42452369320957506
0.001165329998912057 0.45969711773326827 0.41963849535906195
0.0017412269990018103 0.4479726428920372 0.4235466536394723
0.0022731809985998552 0.4479726428920372 0.44894968246213973
0.0025641379979788326 0.4460185637518319 0.44894968246213973
0.0027601900001172908 0.4479726428920372 0.45676599902296044
0.0029525569989345968 0.4479726428920372 0.46165119687347334
0.003143460999126546 0.44992672203224227 0.47142159257449934
0.0033427540001866873 0.44894968246213973 0.4753297508549097
0.0035517869982868433 0.4509037616023448 0.4753297508549097
0.003758505998121109 0.44992672203224227 0.47142159257449934
0.00396807599827298 0.44699560332193444 0.4684904738641915
0.00417129499692237 0.4430874450415241 0.46458231558378116
0.004388771998492302 0.4450415241817294 0.46165119687347334
0.004586434999509947 0.4450415241817294 0.45676599902296044
0.004784542998095276 0.44699560332193444 0.45676599902296044
0.004972020997229265 0.4450415241817294 0.45188080117244755
0.00515844300025492 0.4479726428920372 0.45188080117244755
0.005343865999748232 0.44992672203224227 0.44894968246213973
0.005529084999579936 0.4538348803126526 0.45188080117244755
0.005716452000342542 0.44992672203224227 0.44992672203224227
0.005903448000026401 0.44894968246213973 0.4528578407425501
0.006089018999773543 0.44211040547142155 0.45481191988275516
0.0062758860003668815 0.43624816805080613 0.45969711773326827
0.0064617339994583745 0.43624816805080613 0.4606741573033708
0.006654545999481343 0.4323400097703958 0.46262823644357587
0.006889467000291916 0.4284318514899854 0.4636052760136786
0.007077242000377737 0.42452369320957506 0.46165119687347334
0.007264182997460011 0.42159257449926724 0.4606741573033708
0.007449993998307036 0.41963849535906195 0.45969711773326827
0.007636138998350361 0.4206155349291647 0.4557889594528579
0.00782659899778082 0.4186614557889594 0.45481191988275516
0.008012447000510292 0.41475329750854906 0.4528578407425501
0.008198518000426702 0.41670737664875435 0.4528578407425501
0.00838384799862979 0.41963849535906195 0.4509037616023448
0.008568956000090111 0.4284318514899854 0.45676599902296044
0.008755118997214595 0.441133365901319 0.4557889594528579
0.008940392999647884 0.46165119687347334 0.46165119687347334
0.009125296997808618 0.47923790913532005 0.45676599902296044
0.009332775000075344 0.48998534440644836 0.46165119687347334
0.009520956999040209 0.49682462139716654 0.46946751343429405
0.009708638997835806 0.4938935026868587 0.4665363947239862
0.009895208997477312 0.495847581827064 0.47142159257449934
0.010081390999403084 0.4948705422569615 0.46946751343429405
0.010268572998029413 0.48900830483634583 0.467513434294089
0.010454699000547407 0.4851001465559355 0.4733756717147044
0.010649861997080734 0.4811919882755251 0.47142159257449934
0.010843803000170738 0.4753297508549097 0.4684904738641915
0.011031040998204844 0.47142159257449934 0.4636052760136786
0.011215795999305556 0.46458231558378116 0.4587200781631655
0.01140118199691642 0.45481191988275516 0.4587200781631655
0.011587659999349853 0.44699560332193444 0.4509037616023448
0.01177360099973157 0.43917928676111373 0.44699560332193444
0.011959504998230841 0.4352711284807034 0.4430874450415241
0.012144853997597238 0.43624816805080613 0.44211040547142155
0.012329535999015206 0.4382022471910112 0.44211040547142155
0.012519605999841588 0.43429408891060084 0.44699560332193444
0.012705657998594688 0.4401563263312165 0.44894968246213973
0.012890988000435755 0.44406448461162684 0.4509037616023448
0.013076188999548322 0.44699560332193444 0.45481191988275516
0.013261222000437556 0.45481191988275516 0.45969711773326827
0.01344612599859829 0.45969711773326827 0.4636052760136786
0.013634789997013286 0.4655593551538837 0.4655593551538837
0.013823230998241343 0.4753297508549097 0.4636052760136786
0.014008357000420801 0.48998534440644836 0.4684904738641915
0.014193186998454621 0.5046409379579873 0.467513434294089
0.014418089998798678 0.5095261358085001 0.4655593551538837
0.014677103998110397 0.49877870053737183 0.46458231558378116
0.014863174998026807 0.486077186126038 0.46262823644357587
0.015049263998662354 0.4782608695652173 0.46262823644357587
0.015235372000461211 0.46458231558378116 0.46262823644357587
0.015420608997374075 0.46165119687347334 0.4587200781631655
0.015606401997501962 0.457743038593063 0.45188080117244755
0.015791213998454623 0.45676599902296044 0.4460185637518319
0.0159769879974192 0.45481191988275516 0.4430874450415241
0.01616426200052956 0.4557889594528579 0.4450415241817294
0.016349795998394256 0.4557889594528579 0.43917928676111373
0.016534144997422118 0.44894968246213973 0.4430874450415241
0.016719751998607535 0.4479726428920372 0.4450415241817294
0.016904100997635396 0.44406448461162684 0.4460185637518319
0.01708883799801697 0.4430874450415241 0.44699560332193444
0.017279927000345197 0.43917928676111373 0.4460185637518319
0.017493089999334188 0.4401563263312165 0.4460185637518319
0.01781000999835669 0.44894968246213973 0.4460185637518319
0.018222113998490386 0.45481191988275516 0.43722520762090866
0.018427314000291517 0.45676599902296044 0.4284318514899854
0.018620458999066614 0.4606741573033708 0.4186614557889594
0.018808028999046655 0.46262823644357587 0.4108451392281387
0.018995025999174686 0.46165119687347334 0.3981436248168051
0.01918633699824568 0.46262823644357587 0.3932584269662922
0.01938311099729617 0.4606741573033708 0.39423546653639474
0.019585199999710312 0.46165119687347334 0.4010747435271129
0.01981041799808736 0.46165119687347334 0.40986809965803617
0.020017877999634948 0.4606741573033708 0.41963849535906195
0.020235189000231912 0.45481191988275516 0.431362970200293
0.020438296000065748 0.45969711773326827 0.4382022471910112
0.02062468199801515 0.457743038593063 0.44406448461162684
0.020810122998227598 0.4528578407425501 0.44992672203224227
0.020999451997340657 0.45676599902296044 0.44992672203224227
0.02118498599884333 0.45969711773326827 0.4538348803126526
0.021369926998886513 0.4655593551538837 0.45481191988275516
0.021554738999839174 0.47239863214460187 0.4557889594528579
0.02173992099778843 0.47923790913532005 0.45676599902296044
0.02192550999825471 0.4753297508549097 0.45676599902296044
0.022112266000476666 0.46946751343429405 0.46165119687347334
0.02236933499807492 0.4753297508549097 0.46458231558378116
0.02256099799706135 0.4606741573033708 0.4665363947239862
0.0227523649991781 0.45481191988275516 0.4665363947239862
0.022938305999559816 0.44894968246213973 0.47142159257449934
0.02312356199763599 0.44211040547142155 0.4753297508549097
0.02334576199791627 0.4352711284807034 0.47728382999511476
0.02353257299910183 0.431362970200293 0.48216902784562765
0.0237192739987222 0.43429408891060084 0.47728382999511476
0.02390564099914627 0.4264777723497801 0.4763067904250122
0.024092358999041608 0.42256961406936977 0.46946751343429405
0.024278597000375157 0.4186614557889594 0.467513434294089
0.02446540799792274 0.4206155349291647 0.4606741573033708
0.024651700998219894 0.4206155349291647 0.45676599902296044
0.024838067998643965 0.4176844162188569 0.45676599902296044
0.02502404599727015 0.4176844162188569 0.4587200781631655
0.025210060997778783 0.42256961406936977 0.45676599902296044
0.025416205997316865 0.42256961406936977 0.45481191988275516
0.02560610999717028 0.42159257449926724 0.4587200781631655
0.025792550997721264 0.42159257449926724 0.457743038593063
0.025978713998483727 0.4176844162188569 0.45481191988275516
0.02616437699907692 0.4186614557889594 0.4557889594528579
0.026362614997196943 0.4186614557889594 0.4509037616023448
0.02655696299916599 0.42159257449926724 0.4509037616023448
0.026753255999210523 0.431362970200293 0.44211040547142155
0.02694573400003719 0.4264777723497801 0.4382022471910112
0.027140748999954667 0.42745481191988266 0.4382022471910112
0.027381873998820083 0.42256961406936977 0.43624816805080613
0.02758668499882333 0.41963849535906195 0.4401563263312165
0.027793254997959593 0.4137762579384465 0.4401563263312165
0.02799621499798377 0.4206155349291647 0.44211040547142155
0.02819550699859974 0.42159257449926724 0.44406448461162684
0.02839137399860192 0.42745481191988266 0.4460185637518319
0.02858427799947094 0.4303859306301905 0.4430874450415241
0.028774366997822654 0.4382022471910112 0.44992672203224227
0.0289642339994316 0.4460185637518319 0.44894968246213973
0.029167952998250257 0.44894968246213973 0.4460185637518319
0.02936630099793547 0.44894968246213973 0.4479726428920372
0.029559556998719927 0.4479726428920372 0.4479726428920372
0.02975196099941968 0.44406448461162684 0.4460185637518319
0.029947568000352476 0.4401563263312165 0.44894968246213973
0.03014700899802847 0.4382022471910112 0.4479726428920372
0.030369152998900972 0.43624816805080613 0.4509037616023448
0.030618073997175088 0.4352711284807034 0.4509037616023448
0.03082095999707235 0.4382022471910112 0.4538348803126526
0.03102539999963483 0.4430874450415241 0.4528578407425501
0.031247266997525003 0.4479726428920372 0.4528578407425501
0.031474391998926876 0.4538348803126526 0.4538348803126526
0.03168838800047524 0.4587200781631655 0.4606741573033708
0.03188636599952588 0.4636052760136786 0.4479726428920372
0.0321160659987072 0.4704445530043966 0.4460185637518319
0.0323228029992606 0.4684904738641915 0.4460185637518319
0.03251679899767623 0.4753297508549097 0.44992672203224227
0.03271503599899006 0.47142159257449934 0.4450415241817294
0.03291388499928871 0.4733756717147044 0.4450415241817294
0.033111436998296995 0.47923790913532005 0.4479726428920372
0.033305599998129765 0.4811919882755251 0.44894968246213973
0.033528595999086974 0.4831460674157304 0.44992672203224227
0.033743943997251336 0.4831460674157304 0.4479726428920372
0.0339410879969364 0.48216902784562765 0.44406448461162684
0.034130880998418434 0.4831460674157304 0.4382022471910112
0.03431687799820793 0.48412310698583294 0.43429408891060084
0.034579854996991344 0.4831460674157304 0.431362970200293
0.03476983299697167 0.47923790913532005 0.431362970200293
0.034960532997502014 0.47923790913532005 0.4323400097703958
0.03514667799754534 0.47728382999511476 0.43429408891060084
0.035334969998075394 0.47923790913532005 0.4333170493404983
0.03552391099947272 0.4763067904250122 0.4352711284807034
0.03571233399998164 0.4753297508549097 0.43624816805080613
0.03591634899930796 0.47435271128480694 0.4382022471910112
0.03611173399986001 0.4753297508549097 0.44211040547142155
0.036297675000241725 0.4733756717147044 0.44406448461162684
0.03648630099996808 0.4684904738641915 0.44406448461162684
0.03673535299822106 0.46458231558378116 0.44406448461162684
0.03693992300031823 0.4606741573033708 0.44894968246213973
0.037160067000513664 0.4606741573033708 0.4557889594528579
0.03735947099994519 0.4538348803126526 0.457743038593063
0.037547133997577475 0.4509037616023448 0.4606741573033708
0.03773446400009561 0.45188080117244755 0.4606741573033708
0.03792088699992746 0.45188080117244755 0.4655593551538837
0.03810808699927293 0.45188080117244755 0.4665363947239862
0.03829378699811059 0.44894968246213973 0.4704445530043966
0.038479783997900086 0.44992672203224227 0.47142159257449934
0.038701834997482365 0.44406448461162684 0.4704445530043966
0.03889718400023412 0.4430874450415241 0.4763067904250122
0.03909106900027837 0.43722520762090866 0.47239863214460187
0.03927947299962398 0.4333170493404983 0.47142159257449934
0.039466802998504136 0.43429408891060084 0.46946751343429405
0.03965266999875894 0.43624816805080613 0.4655593551538837
0.03983898099977523 0.43624816805080613 0.4587200781631655
0.040055828998447396 0.43624816805080613 0.4557889594528579
0.04024241899969638 0.4382022471910112 0.45188080117244755
0.04043043399724411 0.43429408891060084 0.4479726428920372
0.04062444900046103 0.42940889106008795 0.4430874450415241
0.040817278997565154 0.4255007327796776 0.44699560332193444
0.04101534899746184 0.42159257449926724 0.45188080117244755
0.04120960499858484 0.42256961406936977 0.4509037616023448
0.04140493500017328 0.41963849535906195 0.4528578407425501
0.04160457899706671 0.4157303370786516 0.4587200781631655
0.04180122399702668 0.4137762579384465 0.4636052760136786
0.04199403500024346 0.40986809965803617 0.4655593551538837
0.04219403099705232 0.4206155349291647 0.46946751343429405
0.04239945399967837 0.4108451392281387 0.4684904738641915
0.042683318999479525 0.4206155349291647 0.46946751343429405
0.04291259199817432 0.42940889106008795 0.4665363947239862
0.043143791997863445 0.43624816805080613 0.4636052760136786
0.043372566000471124 0.441133365901319 0.4636052760136786
0.04357241399702616 0.44211040547142155 0.45969711773326827
0.04376855800001067 0.43722520762090866 0.44992672203224227
0.0439633509995474 0.43429408891060084 0.44894968246213973
0.044160440000268864 0.43429408891060084 0.4430874450415241
0.044355547997838585 0.43429408891060084 0.441133365901319
0.04456993299754686 0.43429408891060084 0.44211040547142155
0.04475748500044574 0.441133365901319 0.43722520762090866
0.0449519629983115 0.4460185637518319 0.4352711284807034
0.04517338499863399 0.4479726428920372 0.4333170493404983
0.04551852700024028 0.457743038593063 0.4333170493404983
0.045718579000094905 0.45969711773326827 0.4323400097703958
0.04591098299715668 0.4655593551538837 0.4333170493404983
0.04609884899764438 0.4684904738641915 0.4303859306301905
0.046292808998259716 0.4763067904250122 0.4323400097703958
0.04652698999780114 0.4831460674157304 0.4333170493404983
0.046818891998555046 0.47923790913532005 0.43624816805080613
0.0470359440005268 0.4704445530043966 0.43917928676111373
0.047283438998420024 0.46458231558378116 0.43917928676111373
0.0474862499977462 0.46165119687347334 0.441133365901319
0.04788326199923176 0.46458231558378116 0.4460185637518319
0.04814164599883952 0.4655593551538837 0.44699560332193444
0.04835293799987994 0.46458231558378116 0.44894968246213973
0.048564822998741874 0.4684904738641915 0.4509037616023448
0.04877791199760395 0.4684904738641915 0.4479726428920372
0.04898600099841133 0.4704445530043966 0.44992672203224227
0.049188774999493035 0.4665363947239862 0.45188080117244755
0.04938256799869123 0.4636052760136786 0.4460185637518319
0.04963019299975713 0.4587200781631655 0.44406448461162684
0.04983068900037324 0.4557889594528579 0.4430874450415241
0.0500410370004829 0.44992672203224227 0.4401563263312165
0.05029510699750972 0.44894968246213973 0.441133365901319
0.051374143000430195 0.4430874450415241 0.4684904738641915
0.05285652299789945 0.457743038593063 0.4704445530043966
0.05315209199761739 0.45969711773326827 0.4636052760136786
0.053528066997387214 0.45969711773326827 0.4606741573033708
0.0537777659992571 0.46165119687347334 0.45969711773326827
0.05399072499858448 0.4587200781631655 0.4587200781631655
0.05418879499848117 0.45188080117244755 0.4636052760136786
0.05438360699918121 0.4509037616023448 0.46262823644357587
0.05466380500001833 0.4479726428920372 0.4655593551538837
0.05497433699929388 0.44992672203224227 0.457743038593063
0.055209424997883616 0.4528578407425501 0.45676599902296044
0.055417643998225685 0.44894968246213973 0.45481191988275516
0.055618972997763194 0.45188080117244755 0.4509037616023448
0.05581595100011327 0.45188080117244755 0.45481191988275516
0.05601107699840213 0.45188080117244755 0.44894968246213973
0.056291998000233434 0.44992672203224227 0.45481191988275516
0.056604880999657325 0.44699560332193444 0.4557889594528579
0.05689591299960739 0.44406448461162684 0.457743038593063
0.05709677999766427 0.4401563263312165 0.457743038593063
0.0572933869989356 0.431362970200293 0.4606741573033708
0.0574893279990647 0.4264777723497801 0.4636052760136786
0.05768617699868628 0.4206155349291647 0.46946751343429405
0.05788082099752501 0.4157303370786516 0.4684904738641915
0.05810357599693816 0.4137762579384465 0.4655593551538837
0.05835575699893525 0.41670737664875435 0.46458231558378116
0.05859245600004215 0.42452369320957506 0.4665363947239862
0.05880324899771949 0.43429408891060084 0.46458231558378116
0.05899544899875764 0.4450415241817294 0.467513434294089
0.0591903899985482 0.45969711773326827 0.46946751343429405
0.05938438599696383 0.4763067904250122 0.4733756717147044
0.05958417899819324 0.4948705422569615 0.47239863214460187
0.05983695199756767 0.5056179775280898 0.47142159257449934
0.06004957799814292 0.5036638983878847 0.46946751343429405
0.06025409299763851 0.49682462139716654 0.467513434294089
0.060449551998317474 0.48705422569614076 0.4665363947239862
0.06064301199876354 0.47239863214460187 0.4655593551538837
0.06084760099838604 0.4655593551538837 0.4636052760136786
0.06109059599839384 0.45481191988275516 0.46458231558378116
0.061295722000068054 0.4528578407425501 0.46262823644357587
0.061491125998145435 0.44699560332193444 0.46262823644357587
0.0616837889974704 0.44699560332193444 0.46458231558378116
0.06188439700054005 0.43917928676111373 0.4636052760136786
0.062082188997010235 0.43624816805080613 0.457743038593063
0.06228037099936046 0.4264777723497801 0.4509037616023448
0.06247449699731078 0.4206155349291647 0.4401563263312165
0.06271530799858738 0.42159257449926724 0.4284318514899854
0.06290647099740454 0.41670737664875435 0.4157303370786516
0.06309787499776576 0.4186614557889594 0.4108451392281387
0.06329314899994642 0.41670737664875435 0.41182217879824123
0.06351997799720266 0.42159257449926724 0.4049829018075233
0.06373306699970271 0.4255007327796776 0.40205178309721545
0.06394111899862764 0.4264777723497801 0.39912066438690763
0.06415930000002845 0.4333170493404983 0.39716658524670256
0.06437994400039315 0.4284318514899854 0.3981436248168051
0.06462262499917415 0.4206155349291647 0.4040058622374205
0.06489071299802163 0.41475329750854906 0.41182217879824123
0.06509476399878622 0.41475329750854906 0.4264777723497801
0.06528648299718043 0.4137762579384465 0.4382022471910112
0.06548044299779576 0.41475329750854906 0.4460185637518319
0.0657082529978652 0.41670737664875435 0.457743038593063
0.06594354499975452 0.4235466536394723 0.46165119687347334
0.066150522998214 0.43722520762090866 0.46458231558378116
0.06634888999906252 0.4479726428920372 0.46262823644357587
0.06658671900004265 0.47142159257449934 0.4636052760136786
0.06700752599863335 0.49682462139716654 0.45481191988275516
0.06738992700047675 0.495847581827064 0.44699560332193444
0.06789917700007209 0.4733756717147044 0.44894968246213973
0.06809574699946097 0.4665363947239862 0.44406448461162684
0.06829005799954757 0.46165119687347334 0.44211040547142155
0.06849122099811211 0.457743038593063 0.441133365901319
0.06868519899944658 0.4528578407425501 0.43917928676111373
0.06887767700027325 0.45188080117244755 0.4382022471910112
0.06907928500004346 0.4538348803126526 0.4323400097703958
0.06927446599729592 0.4538348803126526 0.43624816805080613
0.06947414800015395 0.45969711773326827 0.4382022471910112
0.06969699599721935 0.45676599902296044 0.4352711284807034
0.06992145500043989 0.4606741573033708 0.4401563263312165
0.07015119099742151 0.457743038593063 0.4450415241817294
0.07037161299740546 0.4587200781631655 0.44699560332193444
0.0706222569970123 0.46262823644357587 0.44992672203224227
0.07085469699813984 0.4665363947239862 0.4538348803126526
0.07107608200021787 0.4684904738641915 0.4587200781631655
0.07129813400024432 0.4655593551538837 0.4704445530043966
0.07151761099885334 0.46165119687347334 0.45969711773326827
0.07455162999758613 0.4538348803126526 0.46165119687347334
0.07480225499966764 0.4557889594528579 0.46262823644357587
0.07500586300011491 0.45676599902296044 0.4587200781631655
0.07520811799986404 0.4538348803126526 0.45676599902296044
0.07540518899986637 0.4587200781631655 0.4528578407425501
0.07560924099743715 0.45969711773326827 0.4538348803126526
0.07580894099737634 0.4636052760136786 0.45481191988275516
0.07601162199716782 0.4684904738641915 0.45188080117244755
0.07621459999791114 0.4733756717147044 0.4460185637518319
0.07641161499850568 0.4763067904250122 0.4479726428920372
0.07664785099768778 0.47923790913532005 0.42745481191988266
0.07686795900008292 0.4763067904250122 0.4206155349291647
0.07710508399759419 0.46946751343429405 0.4186614557889594
0.07734417199753807 0.467513434294089 0.41963849535906195
0.0775643159977335 0.45676599902296044 0.4284318514899854
0.07776673899934394 0.4460185637518319 0.4255007327796776
0.0779720680002356 0.4382022471910112 0.43624816805080613
0.07820595299926936 0.4255007327796776 0.43624816805080613
0.07839885700013838 0.41670737664875435 0.43722520762090866
0.07862225999997463 0.40889106008793363 0.4401563263312165
0.07881103399995482 0.4040058622374205 0.4450415241817294
0.07899936399917351 0.4040058622374205 0.44699560332193444
0.07918719399822294 0.39716658524670256 0.45969711773326827
0.07937520899940864 0.4010747435271129 0.46165119687347334
0.07956624299913528 0.4010747435271129 0.4587200781631655
0.07975701699979254 0.40693698094772834 0.4636052760136786
0.07994508800038602 0.41963849535906195 0.4636052760136786
0.08013310299793375 0.4255007327796776 0.4655593551538837
0.08032150699727936 0.4401563263312165 0.4665363947239862
0.08050981799897272 0.4538348803126526 0.4684904738641915
0.08069848199738772 0.4811919882755251 0.47435271128480694
0.08091908899950795 0.49877870053737183 0.47923790913532005
0.08110727099847281 0.5017098192476794 0.4811919882755251
0.08129548899887595 0.49682462139716654 0.47923790913532005
0.0814827449976292 0.4880312652662433 0.4782608695652173
0.08167063099972438 0.46946751343429405 0.47923790913532005
0.08185805299945059 0.4636052760136786 0.4782608695652173
0.08204486499744235 0.45481191988275516 0.4733756717147044
0.08223252799871261 0.45188080117244755 0.4733756717147044
0.08243311699698097 0.4450415241817294 0.4733756717147044
0.08262498399926699 0.4382022471910112 0.46946751343429405
0.08281257300041034 0.43722520762090866 0.4655593551538837
0.08299982899916358 0.4333170493404983 0.467513434294089
0.08318825099922833 0.4333170493404983 0.46165119687347334
0.08362129899978754 0.4323400097703958 0.4509037616023448
0.08532515699698706 0.45969711773326827 0.45969711773326827
0.08755196899801376 0.4333170493404983 0.43624816805080613
0.09038008399875253 0.4538348803126526 0.44211040547142155
0.0909299809973163 0.44992672203224227 0.4450415241817294
0.09119579099933617 0.44894968246213973 0.44699560332193444
0.09142458399946918 0.44992672203224227 0.45188080117244755
0.09164439400046831 0.4450415241817294 0.45188080117244755
0.09189470499768504 0.45481191988275516 0.4557889594528579
0.0921177380005247 0.45188080117244755 0.4557889594528579
0.09235817799708457 0.4557889594528579 0.45969711773326827
0.09257937700022012 0.46262823644357587 0.457743038593063
0.0928241319998051 0.4655593551538837 0.46165119687347334
0.09322997699928237 0.47142159257449934 0.46262823644357587
0.09354319299745839 0.4753297508549097 0.46946751343429405
0.09377326299727429 0.4704445530043966 0.4636052760136786
0.09403573999952641 0.47923790913532005 0.4636052760136786
0.09426210599849583 0.47435271128480694 0.4655593551538837
0.09448202799831051 0.4763067904250122 0.4636052760136786
0.09476791199995205 0.4704445530043966 0.4636052760136786
0.09499175999735598 0.46946751343429405 0.45969711773326827
0.09524168099960661 0.46946751343429405 0.4509037616023448
0.09549426900048275 0.4704445530043966 0.44406448461162684
0.09573269099928439 0.4665363947239862 0.441133365901319
0.09596751999924891 0.467513434294089 0.43624816805080613
0.09623925599953509 0.4636052760136786 0.43722520762090866
0.09647180699903402 0.4665363947239862 0.43917928676111373
0.09673048699914943 0.46458231558378116 0.441133365901319
0.097855077998247 0.45676599902296044 0.45481191988275516
0.09900983499755966 0.4323400097703958 0.4557889594528579
0.09964184199998272 0.4284318514899854 0.4528578407425501
0.10054812199814478 0.42452369320957506 0.45969711773326827
0.10123984999881941 0.4137762579384465 0.45188080117244755
0.10153658600029303 0.412799218368344 0.4430874450415241
0.10358625200024107 0.4303859306301905 0.44211040547142155
0.1045347529980063 0.42452369320957506 0.4430874450415241
0.10534783099865308 0.43917928676111373 0.4636052760136786
0.107026670997584 0.4782608695652173 0.45188080117244755
0.10912083699804498 0.4401563263312165 0.4401563263312165
0.11021168799925363 0.44699560332193444 0.4665363947239862
0.11198619199785753 0.4938935026868587 0.4704445530043966
0.1122197619988583 0.49975574010747437 0.467513434294089
0.11243455499788979 0.4929164631167562 0.46946751343429405
0.11264108799878159 0.4802149487054226 0.47142159257449934
0.11284649200024433 0.4684904738641915 0.46946751343429405
0.11305133999849204 0.45481191988275516 0.4802149487054226
0.11325196599864285 0.44406448461162684 0.47142159257449934
0.11351797899988014 0.4352711284807034 0.46458231558378116
0.11372941999798059 0.43429408891060084 0.4655593551538837
0.11392963899925235 0.4264777723497801 0.4636052760136786
0.1141783929997473 0.4284318514899854 0.45969711773326827
0.11443820400018012 0.4333170493404983 0.45969711773326827
0.11466360699705547 0.44211040547142155 0.4528578407425501
0.11486893599794712 0.4509037616023448 0.45188080117244755
0.11508383999898797 0.4655593551538837 0.44894968246213973
0.11528757699852576 0.47923790913532005 0.4450415241817294
0.1154873140003474 0.4880312652662433 0.4538348803126526
0.1156762369973876 0.4938935026868587 0.4479726428920372
0.1158648809978331 0.4938935026868587 0.44699560332193444
0.11609947000033571 0.495847581827064 0.44992672203224227
0.11628894800014677 0.49193942354665365 0.44894968246213973
0.11647770399940782 0.4851001465559355 0.4479726428920372
0.11666568199871108 0.4763067904250122 0.4479726428920372
0.11685390099955839 0.467513434294089 0.44406448461162684
0.11704226700021536 0.46165119687347334 0.4450415241817294
0.11722978299803799 0.45676599902296044 0.4460185637518319
0.11742161199799739 0.45481191988275516 0.4479726428920372
0.11761097899943707 0.4509037616023448 0.44992672203224227
0.1177990129981481 0.45188080117244755 0.4509037616023448
0.1179866949969437 0.44699560332193444 0.45188080117244755
0.11817350599812926 0.44211040547142155 0.4538348803126526
0.11836240999764414 0.441133365901319 0.4538348803126526
0.11856527700001607 0.4450415241817294 0.4538348803126526
0.1187561070000811 0.441133365901319 0.4509037616023448
0.11894375199699425 0.4479726428920372 0.44992672203224227
0.11913997000010568 0.4450415241817294 0.4450415241817294
0.1193327999972098 0.44699560332193444 0.44406448461162684
0.11955481499899179 0.4450415241817294 0.441133365901319
0.11979408799743396 0.44699560332193444 0.44211040547142155
0.12007715700019617 0.4479726428920372 0.44211040547142155
0.12030104199948255 0.4538348803126526 0.4382022471910112
0.12054081499809399 0.4557889594528579 0.43917928676111373
0.12076656999852275 0.45481191988275516 0.4401563263312165
0.12100206600007368 0.4528578407425501 0.4460185637518319
0.12122304399963468 0.44894968246213973 0.44894968246213973
0.12147731699951692 0.45188080117244755 0.4557889594528579
0.12170755300030578 0.44406448461162684 0.457743038593063
0.12192988300012075 0.44406448461162684 0.4636052760136786
0.12217204499756917 0.44211040547142155 0.45969711773326827
0.12242246599998907 0.43429408891060084 0.4606741573033708
0.1226853320004011 0.4382022471910112 0.45676599902296044
0.12294162399848574 0.43429408891060084 0.45481191988275516
0.12322145199868828 0.4401563263312165 0.4538348803126526
0.12346779899962712 0.4401563263312165 0.45188080117244755
0.12372973899982753 0.4430874450415241 0.45188080117244755
0.12401447400043253 0.4450415241817294 0.4450415241817294
0.12427272899731179 0.4382022471910112 0.4528578407425501
0.12451964999854681 0.4333170493404983 0.45188080117244755
0.12476266500016209 0.4235466536394723 0.4509037616023448
0.12499493799987249 0.42256961406936977 0.4479726428920372
0.12528100700001232 0.4157303370786516 0.4401563263312165
0.12565187099971808 0.41670737664875435 0.4333170493404983
0.12596430899793631 0.42159257449926724 0.4333170493404983
0.12620402699758415 0.4284318514899854 0.4382022471910112
0.12644618999911472 0.4333170493404983 0.43722520762090866
0.1266627039985906 0.44406448461162684 0.43917928676111373
0.12686786699850927 0.45676599902296044 0.4430874450415241
0.1271050670002296 0.4763067904250122 0.4460185637518319
0.127322895998077 0.4851001465559355 0.44894968246213973
0.12753837399941403 0.4802149487054226 0.4509037616023448
0.12772668499746942 0.47728382999511476 0.45188080117244755
0.12791894099791534 0.4684904738641915 0.4538348803126526
0.12810871499823406 0.45969711773326827 0.45676599902296044
0.1282968779996736 0.45676599902296044 0.45481191988275516
0.1284844490000978 0.44699560332193444 0.457743038593063
0.12867281599756097 0.44406448461162684 0.45969711773326827
0.12886086799699115 0.4401563263312165 0.45676599902296044
0.12904817999879015 0.431362970200293 0.46165119687347334
0.12923599100031424 0.431362970200293 0.4655593551538837
0.12942587599900435 0.42745481191988266 0.4606741573033708
0.12961505799830775 0.4284318514899854 0.46165119687347334
0.129802313997061 0.42452369320957506 0.4587200781631655
0.12999034799941 0.4303859306301905 0.4587200781631655
0.13021428799766 0.43624816805080613 0.4606741573033708
0.13040235899825348 0.4303859306301905 0.45676599902296044
0.13065224299862166 0.441133365901319 0.457743038593063
0.13083977699716343 0.44699560332193444 0.45481191988275516
0.13102740300018922 0.45969711773326827 0.4528578407425501
0.13121473299906938 0.47239863214460187 0.44699560332193444
0.1314023039994936 0.4909623839765511 0.44894968246213973
0.13158961499721045 0.5017098192476794 0.45188080117244755
0.13177748199814232 0.5134342940889105 0.4538348803126526
0.1319652189995395 0.5183194919394236 0.4460185637518319
0.13215317899812362 0.5075720566682951 0.4479726428920372
0.13234223099789233 0.49975574010747437 0.44699560332193444
0.13252915299744927 0.4880312652662433 0.4479726428920372
0.13271827999778907 0.4811919882755251 0.44699560332193444
0.13290622099884786 0.4733756717147044 0.44699560332193444
0.13309488400045666 0.4636052760136786 0.44894968246213973
0.13329425099800574 0.45676599902296044 0.44992672203224227
0.13348169199889526 0.4538348803126526 0.4528578407425501
0.1336873359978199 0.44699560332193444 0.46165119687347334
0.13388370299799135 0.44992672203224227 0.46458231558378116
0.13410240299708676 0.4479726428920372 0.4665363947239862
0.13434299099753844 0.4479726428920372 0.4684904738641915
0.13456065399805084 0.4479726428920372 0.46946751343429405
0.13475885399748222 0.4479726428920372 0.46946751343429405
0.13496631299858564 0.4509037616023448 0.467513434294089
0.1352367340005003 0.44894968246213973 0.467513434294089
0.13545904499915196 0.44992672203224227 0.47142159257449934
0.13571392899757484 0.4460185637518319 0.46946751343429405
0.13594572099827928 0.44894968246213973 0.4704445530043966
0.1361774949982646 0.4479726428920372 0.46262823644357587
0.13643747199967038 0.44894968246213973 0.4606741573033708
0.13668981899900245 0.44992672203224227 0.44992672203224227
0.1369266109977616 0.4528578407425501 0.4450415241817294
0.13716184700024314 0.4587200781631655 0.43917928676111373
0.1373912509989168 0.467513434294089 0.4352711284807034
0.13762561699695652 0.4587200781631655 0.44406448461162684
0.13787248299922794 0.4587200781631655 0.44211040547142155
0.13816319999750704 0.45676599902296044 0.44699560332193444
0.138447527999233 0.45969711773326827 0.45481191988275516
0.13888111199776176 0.4538348803126526 0.457743038593063
0.13919412500035833 0.4509037616023448 0.46165119687347334
0.13948545299717807 0.44992672203224227 0.46458231558378116
0.13972704199841246 0.4460185637518319 0.4636052760136786
0.1399323160003405 0.4479726428920372 0.4509037616023448
0.14013083099780488 0.45188080117244755 0.4450415241817294
0.14032701199903386 0.44699560332193444 0.43429408891060084
0.14052119400002994 0.44699560332193444 0.42452369320957506
0.1407189120000112 0.44894968246213973 0.4157303370786516
0.14091846399969654 0.4479726428920372 0.4157303370786516
0.14112803500029258 0.44894968246213973 0.4137762579384465
0.14133656799822347 0.4479726428920372 0.4186614557889594
0.14153560100021423 0.43917928676111373 0.4176844162188569
0.1417302829977416 0.43917928676111373 0.42159257449926724
0.14192016800006968 0.431362970200293 0.4264777723497801
0.14210847999856924 0.4303859306301905 0.42745481191988266
0.1422969949999242 0.42940889106008795 0.431362970200293
0.14251510199756012 0.4264777723497801 0.441133365901319
0.142711820997647 0.42745481191988266 0.44406448461162684
0.14289953999832505 0.4303859306301905 0.44992672203224227
0.1430906289970153 0.431362970200293 0.45481191988275516
0.14327768099974492 0.43624816805080613 0.4606741573033708
0.14346621499862522 0.43624816805080613 0.46946751343429405
0.14365615600036108 0.441133365901319 0.46946751343429405
0.1438795959984418 0.4460185637518319 0.4684904738641915
0.14408394400015823 0.44211040547142155 0.4684904738641915
0.14427379199696588 0.441133365901319 0.467513434294089
0.14446152999880724 0.4430874450415241 0.46946751343429405
0.14465054500033148 0.43917928676111373 0.4655593551538837
0.14483905999804847 0.4430874450415241 0.4636052760136786
0.1450276679970557 0.441133365901319 0.4636052760136786
0.14521579400025075 0.4430874450415241 0.457743038593063
0.145403049999004 0.44406448461162684 0.45676599902296044
0.1455904169997666 0.4450415241817294 0.4557889594528579
0.14577769099923898 0.4401563263312165 0.45188080117244755
0.14596576199983247 0.43722520762090866 0.4528578407425501
0.14615253599913558 0.431362970200293 0.4450415241817294
0.14633986599801574 0.4333170493404983 0.4401563263312165
0.14654178799901274 0.42256961406936977 0.4401563263312165
0.14673650699842256 0.4255007327796776 0.43429408891060084
0.1469290219974937 0.41670737664875435 0.43429408891060084
0.14711975899990648 0.412799218368344 0.4323400097703958
0.14731101500001387 0.41182217879824123 0.4333170493404983
0.1475017150005442 0.4137762579384465 0.4401563263312165
0.14769237899963628 0.4186614557889594 0.44211040547142155
0.14788268999836873 0.42940889106008795 0.44699560332193444
0.14807376099997782 0.44406448461162684 0.4479726428920372
0.1482641459988372 0.45481191988275516 0.44894968246213973
0.14845438299744274 0.4802149487054226 0.44894968246213973
0.14865178699983517 0.5007327796775769 0.4538348803126526
0.1488480609987164 0.5202735710796287 0.4538348803126526
0.14905787200041232 0.5280898876404494 0.457743038593063
0.14925170199785498 0.5202735710796287 0.45188080117244755
0.14944277299946407 0.5134342940889105 0.45676599902296044
0.1496335289994022 0.4929164631167562 0.4587200781631655
0.14982450699972105 0.4782608695652173 0.4587200781631655
0.15001674399900367 0.4665363947239862 0.46262823644357587
0.15022559199860552 0.4538348803126526 0.46165119687347334
0.150416773998586 0.4509037616023448 0.4636052760136786
0.15061778900053469 0.4479726428920372 0.46165119687347334
0.1508096929974272 0.4479726428920372 0.46165119687347334
0.15100009699744987 0.4479726428920372 0.4606741573033708
0.15119133400003193 0.4450415241817294 0.46165119687347334
0.15138218199717812 0.44699560332193444 0.46262823644357587
0.15157301199724316 0.4479726428920372 0.46458231558378116
0.1517643789993599 0.4528578407425501 0.46458231558378116
0.15195509799741558 0.45188080117244755 0.46458231558378116
0.15217655699962052 0.4538348803126526 0.4606741573033708
0.1523770899984811 0.4557889594528579 0.457743038593063
0.15257293799731997 0.4655593551538837 0.46262823644357587
0.152780600998085 0.46165119687347334 0.45676599902296044
0.1529942460001621 0.4606741573033708 0.45969711773326827
0.15322687099978793 0.45481191988275516 0.4587200781631655
0.153446181997424 0.4538348803126526 0.45676599902296044
0.15366453000024194 0.4538348803126526 0.457743038593063
0.1539131549980084 0.4509037616023448 0.45481191988275516
0.1541490950003208 0.45188080117244755 0.45676599902296044
0.15439633099958883 0.4538348803126526 0.45481191988275516
0.15466704899881734 0.45188080117244755 0.4587200781631655
0.1549089330001152 0.44894968246213973 0.45969711773326827
0.15516692799792509 0.4538348803126526 0.4606741573033708
0.15541127599863103 0.45676599902296044 0.4606741573033708
0.1556470489995263 0.4557889594528579 0.44992672203224227
0.1558970819969545 0.4538348803126526 0.4479726428920372
0.1561469109983591 0.45188080117244755 0.43917928676111373
0.15639851699961582 0.4587200781631655 0.43429408891060084
0.15666321599928779 0.46262823644357587 0.4352711284807034
0.1569646179996198 0.47142159257449934 0.44406448461162684
0.1574176649992296 0.48900830483634583 0.44211040547142155
0.15777084399815067 0.49975574010747437 0.4401563263312165
0.15812398599882727 0.5056179775280898 0.4323400097703958
0.158431109997764 0.49975574010747437 0.45188080117244755
0.1597845670003153 0.4382022471910112 0.45676599902296044
0.1599917479979922 0.42159257449926724 0.46262823644357587
0.16018646699740202 0.4059599413776258 0.46458231558378116
0.1603756490003434 0.39423546653639474 0.46458231558378116
0.16056712699719355 0.38641914997557403 0.4665363947239862
0.1607572529974277 0.3854421104054715 0.4684904738641915
0.16095128699816996 0.38251099169516367 0.46946751343429405
0.16114339399791788 0.3805569125549584 0.47142159257449934
0.16133457599789836 0.3805569125549584 0.46946751343429405
0.16152290599711705 0.3805569125549584 0.46458231558378116
0.16171169899826054 0.3854421104054715 0.46262823644357587
0.16189952899730997 0.3883732291157791 0.4606741573033708
0.16209769199849688 0.3961895456765998 0.467513434294089
0.1622872810003173 0.4059599413776258 0.457743038593063
0.16247562900025514 0.4206155349291647 0.44992672203224227
0.16270194000026095 0.4323400097703958 0.44406448461162684
0.16289151099772425 0.45481191988275516 0.43722520762090866
0.16310865500054206 0.46946751343429405 0.4303859306301905
0.16329735500039533 0.47923790913532005 0.42256961406936977
0.16348718500012183 0.4782608695652173 0.4206155349291647
0.16371197699845652 0.4782608695652173 0.41670737664875435
0.1639047889984795 0.4684904738641915 0.41475329750854906
0.16409348899833276 0.45969711773326827 0.41670737664875435
0.16428200399968773 0.4557889594528579 0.42256961406936977
0.16447674099981668 0.4460185637518319 0.42452369320957506
0.1646651640003256 0.4460185637518319 0.4255007327796776
0.16485454899884644 0.44699560332193444 0.4323400097703958
0.16504393499781145 0.44992672203224227 0.43722520762090866
0.16523304200018174 0.45188080117244755 0.43917928676111373
0.16542118699726416 0.44992672203224227 0.441133365901319
0.16560909100007848 0.44699560332193444 0.44406448461162684
0.16584758699900704 0.4430874450415241 0.4450415241817294
0.16603773099996033 0.4401563263312165 0.4450415241817294
0.16622498699871358 0.4352711284807034 0.4450415241817294
0.1664139280001109 0.4303859306301905 0.44699560332193444
0.16661973900045268 0.42745481191988266 0.45188080117244755
0.16681288399922778 0.42452369320957506 0.45481191988275516
0.16703086199777317 0.42452369320957506 0.46165119687347334
0.1672333209971839 0.42159257449926724 0.46165119687347334
0.16746516800048994 0.4235466536394723 0.4557889594528579
0.16767255399827263 0.431362970200293 0.45481191988275516
0.16787488299814868 0.43429408891060084 0.4382022471910112
0.16983660699770553 0.4430874450415241 0.45188080117244755
0.17100630799905048 0.4587200781631655 0.4557889594528579
0.17159311199793592 0.467513434294089 0.45676599902296044
0.17199962299855542 0.47923790913532005 0.4528578407425501
0.1730058459979773 0.47239863214460187 0.45481191988275516
0.17347267099830788 0.46946751343429405 0.45481191988275516
0.17377827599921147 0.467513434294089 0.4606741573033708
0.1739977170000202 0.467513434294089 0.46458231558378116
0.17420636099996045 0.4636052760136786 0.4684904738641915
0.17440530199746718 0.45969711773326827 0.4753297508549097
0.17470888899697457 0.45676599902296044 0.47923790913532005
0.17491905199858593 0.4538348803126526 0.4831460674157304
0.1751227149979968 0.4509037616023448 0.4811919882755251
0.17532969300009427 0.44894968246213973 0.4782608695652173
0.17553672599751735 0.45188080117244755 0.47435271128480694
0.17574333299853606 0.4538348803126526 0.4684904738641915
0.17599551400053315 0.4509037616023448 0.45969711773326827
0.17649967099714559 0.45188080117244755 0.4401563263312165
0.17702969899983145 0.44699560332193444 0.431362970200293
0.1773261559974344 0.4509037616023448 0.42256961406936977
0.17760996599827195 0.4450415241817294 0.41963849535906195
0.1779024979987298 0.4479726428920372 0.42940889106008795
0.17820464099713718 0.44211040547142155 0.4382022471910112
0.17856067100001383 0.44211040547142155 0.44699560332193444
0.17881394399955752 0.4450415241817294 0.4479726428920372
0.17902049599797465 0.44406448461162684 0.44406448461162684
0.17922871499831672 0.44406448461162684 0.4401563263312165
0.17945959899952868 0.45481191988275516 0.441133365901319
0.17967381799826398 0.46458231558378116 0.441133365901319
0.17989868400036357 0.46946751343429405 0.4284318514899854
0.18015366100007668 0.47142159257449934 0.431362970200293
0.18036624899832532 0.4704445530043966 0.431362970200293
0.18056454199904692 0.467513434294089 0.431362970200293
0.1807637049969344 0.4636052760136786 0.4284318514899854
0.18096822000006796 0.4587200781631655 0.42745481191988266
0.1811712719973002 0.457743038593063 0.4264777723497801
0.18136950899861404 0.4557889594528579 0.4333170493404983
0.18156224599806592 0.44992672203224227 0.42940889106008795
0.1817537610004365 0.44894968246213973 0.4323400097703958
0.1819446469999093 0.4430874450415241 0.43917928676111373
0.1821367909979017 0.4401563263312165 0.44992672203224227
0.18232745499699377 0.43917928676111373 0.4636052760136786
0.18252596999809612 0.43624816805080613 0.4655593551538837
0.18271837399879587 0.43917928676111373 0.4684904738641915
0.18291018499803613 0.43722520762090866 0.46946751343429405
0.18310221799765714 0.43722520762090866 0.4655593551538837
0.18329317799725686 0.441133365901319 0.4655593551538837
0.18348422999770264 0.44894968246213973 0.4665363947239862
0.18368018899855088 0.4557889594528579 0.467513434294089
0.183870630000456 0.46165119687347334 0.46946751343429405
0.1840637200002675 0.4655593551538837 0.4665363947239862
0.18425478999779443 0.467513434294089 0.467513434294089
0.18444608299978427 0.457743038593063 0.46946751343429405
0.1846369129998493 0.4528578407425501 0.46946751343429405
0.18482787199900486 0.44992672203224227 0.46946751343429405
0.1850189799988584 0.4479726428920372 0.467513434294089
0.18521379099911428 0.44894968246213973 0.4684904738641915
0.18540926899731858 0.4538348803126526 0.46946751343429405
0.1856109509972157 0.45676599902296044 0.467513434294089
0.18582870599857415 0.44894968246213973 0.4704445530043966
0.18611170099757146 0.4479726428920372 0.4665363947239862
0.1863396599983389 0.4333170493404983 0.46458231558378116
0.18659052599832648 0.42452369320957506 0.46262823644357587
0.1868245029982063 0.4255007327796776 0.45481191988275516
0.18707249799990677 0.42159257449926724 0.4528578407425501
0.18730586399760796 0.41963849535906195 0.45188080117244755
0.1875723779994587 0.41963849535906195 0.4557889594528579
0.1878239659999963 0.4235466536394723 0.4509037616023448
0.18807496199951856 0.4284318514899854 0.4557889594528579
0.18837706699923729 0.4303859306301905 0.4557889594528579
0.1886045449973608 0.4352711284807034 0.45676599902296044
0.18880626299869618 0.4401563263312165 0.457743038593063
0.1892920319987752 0.4538348803126526 0.45676599902296044
0.18956576799973845 0.45481191988275516 0.4509037616023448
0.18976724599997397 0.4606741573033708 0.44992672203224227
0.18996044599771267 0.46262823644357587 0.44406448461162684
0.19015603499792633 0.46165119687347334 0.43722520762090866
0.19034927199754748 0.4684904738641915 0.431362970200293
0.1905475280000246 0.46946751343429405 0.4264777723497801
0.1907391729982919 0.4704445530043966 0.4186614557889594
0.19093155799782835 0.47239863214460187 0.41182217879824123
0.1911227950004104 0.47435271128480694 0.4157303370786516
0.19133467999927234 0.4763067904250122 0.41182217879824123
0.19152589899749728 0.47728382999511476 0.41670737664875435
0.19171991399707622 0.4831460674157304 0.41963849535906195
0.19191296599819907 0.4802149487054226 0.4255007327796776
0.1921043699985603 0.4811919882755251 0.4284318514899854
0.19229514399921754 0.4802149487054226 0.4303859306301905
0.19248686299761175 0.4831460674157304 0.43429408891060084
0.19267787799981306 0.47728382999511476 0.4352711284807034
0.1928684489976149 0.4753297508549097 0.43624816805080613
0.1930591309974261 0.47142159257449934 0.43624816805080613
0.19325045999721624 0.4665363947239862 0.4352711284807034
0.19344562399783172 0.4665363947239862 0.4382022471910112
0.19363686100041377 0.46458231558378116 0.4460185637518319
0.19382739399952698 0.4655593551538837 0.44211040547142155
0.1940180950005015 0.4587200781631655 0.44699560332193444
0.19420831299794372 0.457743038593063 0.45188080117244755
0.1943984770005045 0.4509037616023448 0.4509037616023448
0.19462480599759147 0.44699560332193444 0.4538348803126526
0.1948169319985027 0.4450415241817294 0.457743038593063
0.19501029899765854 0.44211040547142155 0.4606741573033708
0.195201480997639 0.431362970200293 0.45969711773326827
0.19541558799755876 0.431362970200293 0.4606741573033708
0.19561184399935883 0.4303859306301905 0.4636052760136786
0.19580272899838747 0.4323400097703958 0.4606741573033708
0.1959940769993409 0.431362970200293 0.46262823644357587
0.19618514799731201 0.43722520762090866 0.46262823644357587
0.19637594099913258 0.44894968246213973 0.46262823644357587
0.19656751100046677 0.4655593551538837 0.46165119687347334
0.1967626189980365 0.4782608695652173 0.46262823644357587
0.19695274499827065 0.4880312652662433 0.46262823644357587
0.19714435299829347 0.4938935026868587 0.45969711773326827
0.19733549800002947 0.48216902784562765 0.45969711773326827
0.1975258459970064 0.47728382999511476 0.457743038593063
0.19771673099967302 0.46458231558378116 0.45676599902296044
0.1979068759974325 0.45188080117244755 0.4557889594528579
0.19809720599732827 0.441133365901319 0.4528578407425501
0.1982886099976895 0.4323400097703958 0.4557889594528579
0.19847875499908696 0.4157303370786516 0.44894968246213973
0.198688491997018 0.40889106008793363 0.44992672203224227
0.1988795619981829 0.40205178309721545 0.4538348803126526
0.1990710769969155 0.3883732291157791 0.45188080117244755
0.19926170299731893 0.37957987298485585 0.45188080117244755
0.1994524410001759 0.37176355642403514 0.44894968246213973
0.1996441409974068 0.37176355642403514 0.44894968246213973
0.19983463699827553 0.3737176355642404 0.4538348803126526
0.2000260229979176 0.3834880312652662 0.45481191988275516
0.200217129997327 0.39423546653639474 0.44992672203224227
0.20040686799984542 0.403028822667318 0.4528578407425501
0.20059717899857787 0.4186614557889594 0.457743038593063
0.20078693499817746 0.4284318514899854 0.45969711773326827
0.20097778299896163 0.4401563263312165 0.46458231558378116
0.20116835400040145 0.4528578407425501 0.46458231558378116
0.20135961000050884 0.467513434294089 0.4636052760136786
0.20155464299750747 0.4802149487054226 0.46262823644357587
0.20174986199708655 0.4938935026868587 0.4636052760136786
0.20194308099962655 0.4929164631167562 0.4606741573033708
0.2021350959985284 0.495847581827064 0.4557889594528579
0.202325573998678 0.4880312652662433 0.45676599902296044
0.20251868099876447 0.4831460674157304 0.45481191988275516
0.20270978899861802 0.47239863214460187 0.4538348803126526
0.20290004499838687 0.46946751343429405 0.44992672203224227
0.20309026399991126 0.46458231558378116 0.441133365901319
0.20328274199709995 0.46458231558378116 0.4382022471910112
0.20348623799873167 0.4655593551538837 0.441133365901319
0.2036917529985658 0.4636052760136786 0.4352711284807034
0.20388693399945623 0.46262823644357587 0.43624816805080613
0.20407963499746984 0.4606741573033708 0.43722520762090866
0.20427103799738688 0.4606741573033708 0.4382022471910112
0.20447171999694547 0.457743038593063 0.44406448461162684
0.20467830899724504 0.45481191988275516 0.44699560332193444
0.20488276799733285 0.4509037616023448 0.4509037616023448
0.20509481999761192 0.4509037616023448 0.4538348803126526
0.2053291119991627 0.4509037616023448 0.4557889594528579
0.20553657100026612 0.4528578407425501 0.4509037616023448
0.205734641996969 0.44894968246213973 0.45188080117244755
0.2059381189974374 0.44699560332193444 0.44211040547142155
0.2061502639990067 0.441133365901319 0.4284318514899854
0.206629754997266 0.4323400097703958 0.41963849535906195
0.20688013899780344 0.4284318514899854 0.42159257449926724
0.20708735799780698 0.4264777723497801 0.42452369320957506
0.20734276099756244 0.4264777723497801 0.4333170493404983
0.20755979399837088 0.431362970200293 0.4401563263312165
0.2077738269981637 0.43624816805080613 0.44992672203224227
0.20798741599719506 0.43917928676111373 0.4606741573033708
0.20820068899774924 0.441133365901319 0.457743038593063
0.20840107500043814 0.44406448461162684 0.45969711773326827
0.2086142749976716 0.4430874450415241 0.4636052760136786
0.20881962299972656 0.4430874450415241 0.4655593551538837
0.20902663699962432 0.4450415241817294 0.4665363947239862
0.2092385039977671 0.4460185637518319 0.467513434294089
0.20943212999918615 0.4460185637518319 0.46458231558378116
0.20962255300037214 0.4509037616023448 0.4684904738641915
0.2098175489991263 0.44894968246213973 0.4636052760136786
0.21000852699944517 0.44894968246213973 0.4606741573033708
0.21020068999860086 0.44699560332193444 0.457743038593063
0.21039194599870825 0.44992672203224227 0.45676599902296044
0.21063331199911772 0.44992672203224227 0.4606741573033708
0.2108252159996482 0.44894968246213973 0.4587200781631655
0.21101645299859229 0.4538348803126526 0.46165119687347334
0.2112080419974518 0.45481191988275516 0.45969711773326827
0.21139881699855323 0.44992672203224227 0.4587200781631655
0.21158955399732804 0.4528578407425501 0.46165119687347334
0.2117805509988102 0.4509037616023448 0.45969711773326827
0.21197163999750046 0.4528578407425501 0.4606741573033708
0.21216391399866552 0.4538348803126526 0.4636052760136786
0.21238287300002412 0.4538348803126526 0.45969711773326827
0.2125751469975512 0.45676599902296044 0.45969711773326827
0.21276597699761624 0.4606741573033708 0.4587200781631655
0.21295641799952136 0.4636052760136786 0.4538348803126526
0.21314609999899403 0.46165119687347334 0.4557889594528579
0.2133373929973459 0.4655593551538837 0.4557889594528579
0.21353124099914567 0.46262823644357587 0.45481191988275516
0.21372199699908379 0.4636052760136786 0.4636052760136786
0.21391225299885264 0.46458231558378116 0.46458231558378116
0.21410293399821967 0.4684904738641915 0.4665363947239862
0.2142936899981578 0.4606741573033708 0.47142159257449934
0.2144986120001704 0.4655593551538837 0.47142159257449934
0.21469605299716932 0.46262823644357587 0.4753297508549097
0.21489534599822946 0.46458231558378116 0.47923790913532005
0.2150868239987176 0.4636052760136786 0.4753297508549097
0.21527946899732342 0.467513434294089 0.4733756717147044
0.21547022400045535 0.46262823644357587 0.4704445530043966
0.21566157299821498 0.46165119687347334 0.4684904738641915
0.21585225499802618 0.45969711773326827 0.4655593551538837
0.21604278799713938 0.4587200781631655 0.45676599902296044
0.21623343299870612 0.45969711773326827 0.4479726428920372
0.2164242260005267 0.4557889594528579 0.4450415241817294
0.21662746299989522 0.4509037616023448 0.43429408891060084
0.21681995899780304 0.4528578407425501 0.4284318514899854
0.21702145599920186 0.45481191988275516 0.42256961406936977
0.2172246369991626 0.457743038593063 0.4157303370786516
0.21742496699880576 0.4606741573033708 0.4108451392281387
0.21763525899950764 0.46165119687347334 0.40889106008793363
0.2178424960002303 0.46165119687347334 0.40986809965803617
0.21805275199949392 0.4636052760136786 0.412799218368344
0.2182562849993701 0.4606741573033708 0.4176844162188569
0.21847602199704852 0.4665363947239862 0.42159257449926724
0.21874973900048644 0.4557889594528579 0.42940889106008795
0.21903836300043622 0.4538348803126526 0.43722520762090866
0.21936676499899477 0.44211040547142155 0.44211040547142155
0.2196085010000388 0.4382022471910112 0.4430874450415241
0.21985347800000454 0.43722520762090866 0.44211040547142155
0.22007371499785222 0.4352711284807034 0.44211040547142155
0.2202771189986379 0.43722520762090866 0.4450415241817294
0.22047872599796392 0.43722520762090866 0.44211040547142155
0.22067981500003953 0.4430874450415241 0.44211040547142155
0.2208872560004238 0.4538348803126526 0.4450415241817294
0.221106584998779 0.4587200781631655 0.44992672203224227
0.22139139499995508 0.46458231558378116 0.45481191988275516
0.2216304459980165 0.4557889594528579 0.45481191988275516
0.22187746000054176 0.4557889594528579 0.46165119687347334
0.22211954799786326 0.44894968246213973 0.4587200781631655
0.22237178499926813 0.44894968246213973 0.45969711773326827
0.22265735299879452 0.44894968246213973 0.45676599902296044
0.22288788600053522 0.44699560332193444 0.45969711773326827
0.22310782699787524 0.4430874450415241 0.45969711773326827
0.22334780399978627 0.43624816805080613 0.46262823644357587
0.22359559599863132 0.431362970200293 0.4655593551538837
0.22383581399844843 0.42452369320957506 0.45676599902296044
0.22446359799869242 0.4157303370786516 0.45676599902296044
0.22472579699751805 0.41475329750854906 0.4509037616023448
0.22495873799925903 0.42256961406936977 0.44699560332193444
0.22518665899769985 0.4255007327796776 0.44699560332193444
0.22541343299963046 0.43624816805080613 0.44992672203224227
0.2256257810004172 0.4450415241817294 0.4557889594528579
0.22582642599809333 0.45676599902296044 0.4557889594528579
0.22602895899763098 0.4665363947239862 0.4587200781631655
0.2262290660000872 0.46458231558378116 0.45969711773326827
0.2264307479999843 0.4636052760136786 0.4587200781631655
0.2266420960004325 0.4587200781631655 0.4587200781631655
0.22684714799834182 0.45481191988275516 0.45676599902296044
0.22705342199697043 0.45969711773326827 0.45676599902296044
0.22725975099820062 0.45969711773326827 0.457743038593063
0.2274684879994311 0.45969711773326827 0.45481191988275516
0.22771765099969343 0.45969711773326827 0.4509037616023448
0.2279871459977585 0.45481191988275516 0.4509037616023448
0.2282681219985534 0.44894968246213973 0.45188080117244755
0.22854322800048976 0.4401563263312165 0.44894968246213973
0.22878511299859383 0.4333170493404983 0.4557889594528579
0.22901923799872748 0.4255007327796776 0.4509037616023448
0.22926608600027976 0.4255007327796776 0.4538348803126526
0.22949008099749335 0.4303859306301905 0.44699560332193444
0.22969681799804675 0.4333170493404983 0.44211040547142155
0.22990642600052524 0.441133365901319 0.441133365901319
0.2301159220005502 0.4430874450415241 0.4352711284807034
0.23032384399994044 0.4479726428920372 0.4323400097703958
0.23056998799802386 0.4509037616023448 0.4352711284807034
0.23077840999758337 0.46165119687347334 0.4401563263312165
0.2309837949978828 0.457743038593063 0.4460185637518319
0.23119595800017123 0.4606741573033708 0.44894968246213973
0.2314132499996049 0.45969711773326827 0.4606741573033708
0.23171374499725061 0.45188080117244755 0.46458231558378116
0.23192972199831274 0.44699560332193444 0.467513434294089
0.23213947799740708 0.441133365901319 0.46946751343429405
0.23234527000022354 0.43917928676111373 0.47435271128480694
0.2325530259986408 0.441133365901319 0.4704445530043966
0.2327635219990043 0.44992672203224227 0.47435271128480694
0.2329658329981612 0.4655593551538837 0.47923790913532005
0.23317245900034322 0.4938935026868587 0.4811919882755251
0.2333852889969421 0.5163654127992183 0.4831460674157304
0.2335783589987841 0.5212506106497312 0.4782608695652173
0.23376952199760126 0.5173424523693209 0.47435271128480694
0.23396014899844886 0.5065950170981925 0.46946751343429405
0.23415062699859845 0.48900830483634583 0.46262823644357587
0.23434727099811425 0.4782608695652173 0.4509037616023448
0.23454424900046433 0.46946751343429405 0.4430874450415241
0.234737041999324 0.467513434294089 0.4352711284807034
0.23492848299792968 0.4636052760136786 0.4352711284807034
0.23511999800030026 0.45676599902296044 0.42940889106008795
0.23531923499831464 0.46262823644357587 0.42940889106008795
0.2355196389980847 0.4636052760136786 0.42745481191988266
0.23573874599969713 0.45676599902296044 0.4284318514899854
0.23595533499974408 0.457743038593063 0.42452369320957506
0.23617384899989702 0.4509037616023448 0.42452369320957506
0.2363707529984822 0.44992672203224227 0.42159257449926724
0.23656787899744813 0.4430874450415241 0.4186614557889594
0.23676257899933262 0.4382022471910112 0.4186614557889594
0.2369556499979808 0.4333170493404983 0.4176844162188569
0.23714877599923057 0.4333170493404983 0.42452369320957506
0.23733899499711697 0.431362970200293 0.43722520762090866
0.23753234299874748 0.42745481191988266 0.4323400097703958
0.23772367299898178 0.42159257449926724 0.4382022471910112
0.2379144289989199 0.4176844162188569 0.4460185637518319
0.23810896199938725 0.4157303370786516 0.4538348803126526
0.238301366000087 0.41475329750854906 0.45969711773326827
0.23852356600036728 0.4176844162188569 0.47239863214460187
0.23871771099948091 0.4264777723497801 0.4733756717147044
0.2389094110003498 0.43917928676111373 0.47728382999511476
0.23910081499707303 0.44699560332193444 0.4811919882755251
0.2392914589981956 0.45188080117244755 0.4880312652662433
0.23948245599967777 0.4557889594528579 0.4929164631167562
0.23967434099904494 0.44699560332193444 0.48900830483634583
0.23986689299999853 0.4450415241817294 0.49193942354665365
0.2400824449978245 0.44406448461162684 0.4851001465559355
0.24027373799981433 0.4460185637518319 0.48216902784562765
0.2404651599972567 0.4557889594528579 0.4811919882755251
0.24065782300021965 0.4606741573033708 0.47239863214460187
0.2408490419984446 0.47142159257449934 0.4655593551538837
0.241039983000519 0.4763067904250122 0.4636052760136786
0.2412313129971153 0.4733756717147044 0.457743038593063
0.24142221699730726 0.4684904738641915 0.45188080117244755
0.24161326899775304 0.4587200781631655 0.44699560332193444
0.2418039879994467 0.4528578407425501 0.43917928676111373
0.24199507699813694 0.44699560332193444 0.43917928676111373
0.2421855369975674 0.44211040547142155 0.4401563263312165
0.2423775149982248 0.4333170493404983 0.4401563263312165
0.2425880659975519 0.42452369320957506 0.4460185637518319
0.2427802479978709 0.4235466536394723 0.44406448461162684
0.24297311500049545 0.4255007327796776 0.4450415241817294
0.2431652409977687 0.4323400097703958 0.44406448461162684
0.24335645999963162 0.4430874450415241 0.44406448461162684
0.24354675299764494 0.4460185637518319 0.4382022471910112
0.2437375819972658 0.4460185637518319 0.4382022471910112
0.24392833799720393 0.441133365901319 0.4323400097703958
0.2441198529995745 0.43917928676111373 0.4264777723497801
0.24432621999949333 0.4323400097703958 0.4206155349291647
0.24451767899881816 0.4264777723497801 0.4049829018075233
0.24485152499983087 0.42256961406936977 0.39912066438690763
0.24504524399890215 0.4235466536394723 0.3981436248168051
0.2452364629971271 0.42159257449926724 0.40205178309721545
0.24542988499888452 0.4206155349291647 0.40693698094772834
0.24562077099835733 0.42452369320957506 0.41475329750854906
0.24581211899931077 0.4206155349291647 0.4157303370786516
0.24600337499941816 0.42452369320957506 0.41963849535906195
0.2461942599984468 0.42745481191988266 0.4206155349291647
0.24638477500047884 0.4333170493404983 0.4176844162188569
0.24659314199743676 0.4401563263312165 0.42256961406936977
0.24678500899972278 0.44699560332193444 0.42256961406936977
0.24697609799841302 0.4636052760136786 0.42745481191988266
0.247168445999705 0.47239863214460187 0.42452369320957506
0.24735901699750684 0.486077186126038 0.4284318514899854
0.24755334699875675 0.4929164631167562 0.43624816805080613
0.24777215799986152 0.4929164631167562 0.4382022471910112
0.24800061600035406 0.48998534440644836 0.4460185637518319
0.2482116680002946 0.4753297508549097 0.4528578407425501
0.24842408999757026 0.4684904738641915 0.4587200781631655
0.24861991999932798 0.4587200781631655 0.467513434294089
0.2488113789986528 0.4587200781631655 0.46458231558378116
0.24900372800038895 0.44894968246213973 0.4704445530043966
0.24919511299958685 0.4450415241817294 0.48216902784562765
0.24938609099990572 0.4450415241817294 0.4802149487054226
0.2495767539985536 0.4450415241817294 0.4831460674157304
0.2497676210005011 0.44894968246213973 0.48900830483634583
0.24995854399821837 0.44699560332193444 0.4938935026868587
0.25015044799874886 0.44992672203224227 0.49682462139716654
0.2503508519985189 0.44992672203224227 0.49877870053737183
0.25055264399998123 0.44992672203224227 0.49877870053737183
0.2507523999993282 0.45481191988275516 0.49682462139716654
0.25097621099848766 0.4528578407425501 0.49193942354665365
0.2511829109971586 0.4538348803126526 0.48705422569614076
0.25138588799745776 0.45481191988275516 0.4782608695652173
0.2515867549991526 0.45676599902296044 0.47239863214460187
0.2517982329991355 0.45969711773326827 0.467513434294089
0.25201909899988095 0.4655593551538837 0.4587200781631655
0.2522939459995541 0.47239863214460187 0.44894968246213973
0.25260034799794084 0.4811919882755251 0.4430874450415241
0.2528608799984795 0.48705422569614076 0.44406448461162684
0.2530962279997766 0.4948705422569615 0.43722520762090866
0.2533077609987231 0.4978016609672691 0.4352711284807034
0.2535120350003126 0.5007327796775769 0.4333170493404983
0.25372221599900513 0.4880312652662433 0.4352711284807034
0.25391986099930364 0.47239863214460187 0.43722520762090866
0.2541315790003864 0.4538348803126526 0.4401563263312165
0.2543751119992521 0.43917928676111373 0.44699560332193444
0.2546951989970694 0.42940889106008795 0.44699560332193444
0.254938175999996 0.431362970200293 0.44894968246213973
0.25517639399913605 0.431362970200293 0.44992672203224227
0.2554204079970077 0.43624816805080613 0.4509037616023448
0.2556602919976285 0.44406448461162684 0.4538348803126526
0.2561726349995297 0.44894968246213973 0.4557889594528579
0.25654740599929937 0.45676599902296044 0.45676599902296044
0.2567525869999372 0.45481191988275516 0.45676599902296044
0.25694475099953706 0.45969711773326827 0.457743038593063
0.2571379879991582 0.4684904738641915 0.4557889594528579
0.2573290949985676 0.47142159257449934 0.4587200781631655
0.25751968499753275 0.4753297508549097 0.4587200781631655
0.2577157919986348 0.4753297508549097 0.45676599902296044
0.2579083999989962 0.4704445530043966 0.4587200781631655
0.25814508099938394 0.46946751343429405 0.4587200781631655
0.2583468919983716 0.45969711773326827 0.45969711773326827
0.2585435549990507 0.457743038593063 0.4587200781631655
0.25873577399761416 0.45188080117244755 0.4587200781631655
0.25892745499731973 0.44992672203224227 0.45481191988275516
0.2591191930005152 0.44992672203224227 0.4528578407425501
0.2593106889980845 0.4450415241817294 0.4528578407425501
0.25950229699810734 0.44406448461162684 0.4509037616023448
0.2596936449990608 0.441133365901319 0.4509037616023448
0.25988612299988745 0.4401563263312165 0.45188080117244755
0.260077396997076 0.43917928676111373 0.44992672203224227
0.2602683379991504 0.43722520762090866 0.44699560332193444
0.2604616129974602 0.4382022471910112 0.4460185637518319
0.26065286899756757 0.43917928676111373 0.4528578407425501
0.2608449209983519 0.44211040547142155 0.44699560332193444
0.26103628800046863 0.44211040547142155 0.4460185637518319
0.261227709997911 0.441133365901319 0.4430874450415241
0.2614183179975953 0.44406448461162684 0.4430874450415241
0.26160898099988117 0.4450415241817294 0.44211040547142155
0.26180016299986164 0.44699560332193444 0.4450415241817294
0.2619913069975155 0.4479726428920372 0.4450415241817294
0.26218221099770744 0.4479726428920372 0.4460185637518319
0.26237367099747644 0.4509037616023448 0.44992672203224227
0.26258196299750125 0.4479726428920372 0.4509037616023448
0.26277334899714333 0.44992672203224227 0.4509037616023448
0.26296404899767367 0.4509037616023448 0.44894968246213973
0.2631562309979927 0.4509037616023448 0.4460185637518319
0.2633473749992845 0.44992672203224227 0.44406448461162684
0.2635395379984402 0.4479726428920372 0.4401563263312165
0.2637304050003877 0.44699560332193444 0.43624816805080613
0.263921013000072 0.4460185637518319 0.43429408891060084
0.26411139799893135 0.4430874450415241 0.4303859306301905
0.2643022470001597 0.43917928676111373 0.42940889106008795
0.26449822499853326 0.4401563263312165 0.4303859306301905
0.26468914699944435 0.4401563263312165 0.4323400097703958
0.26488471799893887 0.44406448461162684 0.4382022471910112
0.2650827699981164 0.44211040547142155 0.44699560332193444
0.2652745259983931 0.4430874450415241 0.45188080117244755
0.2654644849972101 0.441133365901319 0.457743038593063
0.2656554450004478 0.44699560332193444 0.46262823644357587
0.2658476819997304 0.4430874450415241 0.46458231558378116
0.26603895599691896 0.44406448461162684 0.46262823644357587
0.2662306929996703 0.43917928676111373 0.4606741573033708
0.26644424500045716 0.4401563263312165 0.4606741573033708
0.26663659299811115 0.441133365901319 0.4587200781631655
0.2668303680002282 0.441133365901319 0.45969711773326827
0.2670216789992992 0.4460185637518319 0.45676599902296044
0.2672121569994488 0.4430874450415241 0.45969711773326827
0.26740306099964073 0.44211040547142155 0.45676599902296044
0.2675936499981617 0.44992672203224227 0.457743038593063
0.2677853690001939 0.44699560332193444 0.4606741573033708
0.26797640199947637 0.4528578407425501 0.46262823644357587
0.26816732499719365 0.4538348803126526 0.4655593551538837
0.2683581179990142 0.4587200781631655 0.4665363947239862
0.2685511329982546 0.457743038593063 0.47923790913532005
0.26874911099730525 0.4606741573033708 0.467513434294089
0.26895532900016406 0.4636052760136786 0.47142159257449934
0.2691644369988353 0.4665363947239862 0.4665363947239862
0.2693780439985858 0.467513434294089 0.4665363947239862
0.2695793179991597 0.46946751343429405 0.467513434294089
0.2697804069975973 0.47239863214460187 0.46262823644357587
0.27000964299804764 0.4704445530043966 0.45969711773326827
0.27020449199699215 0.46946751343429405 0.45481191988275516
0.2703959879981994 0.46458231558378116 0.44699560332193444
0.2706747800002631 0.4636052760136786 0.4450415241817294
0.2708660539974517 0.4587200781631655 0.441133365901319
0.27105736500016064 0.4636052760136786 0.43917928676111373
0.27124747299967567 0.4538348803126526 0.4352711284807034
0.2714449880004395 0.44699560332193444 0.43722520762090866
0.2716370210000605 0.44406448461162684 0.4264777723497801
0.27182999899741844 0.4430874450415241 0.4235466536394723
0.27202062499782187 0.44211040547142155 0.42159257449926724
0.2722117699995579 0.44406448461162684 0.4186614557889594
0.27240282200000365 0.44894968246213973 0.41670737664875435
0.2725940039999841 0.44894968246213973 0.41963849535906195
0.2727851859999646 0.45188080117244755 0.4235466536394723
0.2729758489986125 0.4538348803126526 0.43429408891060084
0.27316682699893136 0.45481191988275516 0.44211040547142155
0.2733576379978331 0.4509037616023448 0.44894968246213973
0.27354900499994983 0.44992672203224227 0.45481191988275516
0.27373970500048017 0.4450415241817294 0.45676599902296044
0.27393062799819745 0.441133365901319 0.4587200781631655
0.27412177299993346 0.441133365901319 0.45969711773326827
0.27431217699995614 0.43722520762090866 0.45676599902296044
0.2745150429982459 0.43722520762090866 0.457743038593063
0.2747161879997293 0.43722520762090866 0.45188080117244755
0.27490703600051347 0.43917928676111373 0.44699560332193444
0.27509769899916137 0.4430874450415241 0.4450415241817294
0.2752887139977247 0.4509037616023448 0.44406448461162684
0.2754790629987838 0.4587200781631655 0.4450415241817294
0.2756703369996103 0.4665363947239862 0.4460185637518319
0.27586098199753906 0.46165119687347334 0.4430874450415241
0.2760514039982809 0.4655593551538837 0.4430874450415241
0.27624206699692877 0.46165119687347334 0.44406448461162684
0.27643287899991265 0.46262823644357587 0.44211040547142155
0.2766300789990055 0.467513434294089 0.4450415241817294
0.27682142699995893 0.47142159257449934 0.44211040547142155
0.2770119609995163 0.4684904738641915 0.4450415241817294
0.2772023830002581 0.4665363947239862 0.4479726428920372
0.27739295399805997 0.4587200781631655 0.45188080117244755
0.2775841170005151 0.45188080117244755 0.44894968246213973
0.27777476199844386 0.44211040547142155 0.44894968246213973
0.2779655919985089 0.43624816805080613 0.4509037616023448
0.2781561249976221 0.4303859306301905 0.4509037616023448
0.27834691799944267 0.4323400097703958 0.4450415241817294
0.27853882199997315 0.42745481191988266 0.45188080117244755
0.27872959599699243 0.4255007327796776 0.4401563263312165
0.2789224819971423 0.4303859306301905 0.4430874450415241
0.2791138669999782 0.4323400097703958 0.44211040547142155
0.2793036229995778 0.43624816805080613 0.44211040547142155
0.279495026999939 0.4430874450415241 0.44406448461162684
0.2796853749969159 0.44894968246213973 0.44894968246213973
0.2798763909995614 0.45676599902296044 0.4528578407425501
0.28006707199892844 0.47142159257449934 0.4538348803126526
0.2802572170003259 0.4802149487054226 0.45676599902296044
0.2804489359987201 0.4851001465559355 0.457743038593063
0.28063969099821406 0.4802149487054226 0.4606741573033708
0.28083009499823675 0.47239863214460187 0.467513434294089
0.2810280919984507 0.4655593551538837 0.4606741573033708
0.2814611949979735 0.4587200781631655 0.45969711773326827
0.28166074699765886 0.46165119687347334 0.457743038593063
0.28185181799926795 0.4655593551538837 0.457743038593063
0.2820423880002636 0.4636052760136786 0.4557889594528579
0.2822328660004132 0.4606741573033708 0.4557889594528579
0.282424474000436 0.46165119687347334 0.4528578407425501
0.28262004499993054 0.4528578407425501 0.45481191988275516
0.28281135599900153 0.44992672203224227 0.4557889594528579
0.2830302410002332 0.4479726428920372 0.4557889594528579
0.2832291449994955 0.44406448461162684 0.45676599902296044
0.283420733998355 0.44211040547142155 0.457743038593063
0.28361495199715137 0.43722520762090866 0.45676599902296044
0.2838173749987618 0.43917928676111373 0.45676599902296044
0.28401898199808784 0.43917928676111373 0.4538348803126526
0.28423081199798617 0.4382022471910112 0.4528578407425501
0.2844335859990679 0.4382022471910112 0.4479726428920372
0.28464387799976976 0.4352711284807034 0.44992672203224227
0.28484698600004776 0.43624816805080613 0.4509037616023448
0.28504705599698354 0.431362970200293 0.4557889594528579
0.2852706079975178 0.4284318514899854 0.45969711773326827
0.2855144739987736 0.42745481191988266 0.4665363947239862
0.2857773579999048 0.4303859306301905 0.4665363947239862
0.28602488999968045 0.43624816805080613 0.46262823644357587
0.2862651819996245 0.441133365901319 0.45969711773326827
0.2865528069996799 0.4509037616023448 0.44894968246213973
0.28680496900051367 0.44406448461162684 0.44406448461162684
0.28701029799776734 0.44211040547142155 0.4382022471910112
0.2872285169978568 0.44211040547142155 0.4401563263312165
0.28747734499847866 0.4401563263312165 0.4401563263312165
0.28774887699910323 0.43917928676111373 0.44211040547142155
0.2880446679992019 0.4450415241817294 0.4479726428920372
0.28837131099862745 0.4460185637518319 0.4528578407425501
0.28867684199940413 0.4479726428920372 0.46262823644357587
0.28928231299869367 0.44894968246213973 0.46458231558378116
0.28950417899977765 0.4538348803126526 0.4655593551538837
0.2897004160004144 0.457743038593063 0.4665363947239862
0.2898930789997394 0.4655593551538837 0.4684904738641915
0.29008405700005824 0.46946751343429405 0.4684904738641915
0.29027538700029254 0.47239863214460187 0.4704445530043966
0.2904659389969311 0.4704445530043966 0.46946751343429405
0.2906889539990516 0.4665363947239862 0.4733756717147044
0.2908813949979958 0.46458231558378116 0.4665363947239862
0.29107227999702445 0.4655593551538837 0.4636052760136786
0.29126296200047364 0.4587200781631655 0.4606741573033708
0.2914533660004963 0.4557889594528579 0.457743038593063
0.29164438099905965 0.44992672203224227 0.45481191988275516
0.2918353399982152 0.44406448461162684 0.4528578407425501
0.2920278370002052 0.44211040547142155 0.44894968246213973
0.292218888997013 0.4382022471910112 0.4509037616023448
0.29241014499712037 0.4430874450415241 0.44894968246213973
0.29260399299892015 0.44992672203224227 0.44992672203224227
0.29282787799820653 0.4528578407425501 0.45481191988275516
0.2930217819994141 0.46458231558378116 0.45188080117244755
0.29321400099797756 0.46262823644357587 0.457743038593063
0.29340699699969264 0.4636052760136786 0.45969711773326827
0.29359877099705045 0.4665363947239862 0.4606741573033708
0.29379063799933647 0.4704445530043966 0.4587200781631655
0.2939827640002477 0.4811919882755251 0.4557889594528579
0.29417889099931926 0.4811919882755251 0.4509037616023448
0.29437071999927866 0.4851001465559355 0.4450415241817294
0.29458641999735846 0.48412310698583294 0.43917928676111373
0.2947792689992639 0.4811919882755251 0.4333170493404983
0.2949700799981656 0.47728382999511476 0.4303859306301905
0.29516124299698276 0.47142159257449934 0.42745481191988266
0.2953514799992263 0.4665363947239862 0.4264777723497801
0.29554186599852983 0.46262823644357587 0.42452369320957506
0.29573293599969475 0.46262823644357587 0.431362970200293
0.29592452599899843 0.45969711773326827 0.4352711284807034
0.29611513299823855 0.4557889594528579 0.43624816805080613
0.29630614800043986 0.4528578407425501 0.4401563263312165
0.29649769999741693 0.4479726428920372 0.43917928676111373
0.29668847499851836 0.4401563263312165 0.43722520762090866
0.29687932299930253 0.4333170493404983 0.43917928676111373
0.29708013399795163 0.42452369320957506 0.43429408891060084
0.2972707979970437 0.42256961406936977 0.43624816805080613
0.2974621639987163 0.42159257449926724 0.4401563263312165
0.29765295700053684 0.4264777723497801 0.44211040547142155
0.297845156997937 0.4303859306301905 0.44211040547142155
0.29803587599963066 0.4333170493404983 0.441133365901319
0.2982261879988073 0.4352711284807034 0.441133365901319
0.2984160359992529 0.4323400097703958 0.4430874450415241
0.2986088289981126 0.4323400097703958 0.4382022471910112
0.2987990109977545 0.43429408891060084 0.4382022471910112
0.29898971099828486 0.43624816805080613 0.44211040547142155
0.2991804109988152 0.43722520762090866 0.4401563263312165
0.2993706300003396 0.43624816805080613 0.4401563263312165
0.29956151499936823 0.4352711284807034 0.44211040547142155
0.29975214099977165 0.4333170493404983 0.44406448461162684
0.2999426559981657 0.4333170493404983 0.44699560332193444
0.300134615998104 0.4284318514899854 0.44406448461162684
0.3003259459983383 0.42745481191988266 0.44406448461162684
0.3005169610005396 0.4255007327796776 0.44406448461162684
0.3007078829978127 0.4255007327796776 0.4460185637518319
0.300898175999464 0.42452369320957506 0.44699560332193444
0.3011047279978811 0.4255007327796776 0.4450415241817294
0.30129652100004023 0.431362970200293 0.4460185637518319
0.3014927769982023 0.43917928676111373 0.44992672203224227
0.3016922539973166 0.4528578407425501 0.44992672203224227
0.30190815799869597 0.45969711773326827 0.4509037616023448
0.30211857999893255 0.467513434294089 0.457743038593063
0.3023239840003953 0.4782608695652173 0.45481191988275516
0.30254536899883533 0.4782608695652173 0.4606741573033708
0.3027516799993464 0.4665363947239862 0.4557889594528579
0.302947027998016 0.44894968246213973 0.4655593551538837
0.3031377099978272 0.4333170493404983 0.4636052760136786
0.30332926199844223 0.41963849535906195 0.467513434294089
0.303520794997894 0.41182217879824123 0.47239863214460187
0.3037138839972613 0.4079140205178309 0.47728382999511476
0.30390493699815124 0.40986809965803617 0.4753297508549097
0.3040954520001833 0.40889106008793363 0.47728382999511476
0.3042856699976255 0.4059599413776258 0.47923790913532005
0.3044774259979022 0.40693698094772834 0.48216902784562765
0.30467310799940606 0.40986809965803617 0.4753297508549097
0.30486356699839234 0.41963849535906195 0.48216902784562765
0.30505549000008614 0.42940889106008795 0.4704445530043966
0.30524591199719 0.45188080117244755 0.4665363947239862
0.3054357789987989 0.4763067904250122 0.46262823644357587
0.3056287019971933 0.4948705422569615 0.457743038593063
0.30581916099981754 0.5105031753786029 0.4557889594528579
0.30601171299713315 0.5085490962383976 0.4557889594528579
0.3062033949972829 0.4978016609672691 0.4538348803126526
0.3063951689982787 0.4880312652662433 0.4538348803126526
0.3066075539973099 0.47728382999511476 0.4538348803126526
0.30679979100023047 0.46946751343429405 0.45481191988275516
0.3069903619980323 0.4636052760136786 0.45481191988275516
0.30718098799843574 0.4557889594528579 0.45481191988275516
0.30737168899941025 0.45676599902296044 0.457743038593063
0.30756209199898876 0.45481191988275516 0.4606741573033708
0.30775244100004784 0.4509037616023448 0.46165119687347334
0.3079430489997321 0.4528578407425501 0.46458231558378116
0.30813358199884533 0.45188080117244755 0.467513434294089
0.3083251339994604 0.45188080117244755 0.46946751343429405
0.30851579699810827 0.4528578407425501 0.4733756717147044
0.3087065719992097 0.44894968246213973 0.47239863214460187
0.308897752998746 0.44699560332193444 0.47435271128480694
0.3090887129983457 0.4479726428920372 0.47239863214460187
0.309314023998013 0.44699560332193444 0.47142159257449934
0.30951429799824837 0.4450415241817294 0.46262823644357587
0.3097080539992021 0.4450415241817294 0.4557889594528579
0.30990208699950017 0.4460185637518319 0.44699560332193444
0.3100961579984869 0.441133365901319 0.4382022471910112
0.31028745000003255 0.43917928676111373 0.4352711284807034
0.31047820599997067 0.43917928676111373 0.4303859306301905
0.3106885909983248 0.44406448461162684 0.4323400097703958
0.3108806620002724 0.44406448461162684 0.4352711284807034
0.31107297299968195 0.44894968246213973 0.4401563263312165
0.3112639329992817 0.457743038593063 0.4430874450415241
0.31145622599797207 0.46458231558378116 0.4479726428920372
0.3116471849971276 0.47239863214460187 0.44894968246213973
0.3118379779989482 0.47435271128480694 0.4528578407425501
0.3120292519997747 0.4782608695652173 0.46165119687347334
0.3122204149985919 0.47728382999511476 0.46262823644357587
0.31241148600020097 0.4782608695652173 0.46262823644357587
0.3126025009987643 0.47435271128480694 0.45969711773326827
0.3127938309989986 0.47728382999511476 0.457743038593063
0.3129844389986829 0.47728382999511476 0.4557889594528579
0.3131753059969924 0.48412310698583294 0.45481191988275516
0.3133658019978611 0.48412310698583294 0.44894968246213973
0.3135564099975454 0.4909623839765511 0.4430874450415241
0.3137475359981181 0.49193942354665365 0.43917928676111373
0.3139385319991561 0.4948705422569615 0.4323400097703958
0.31412982499750797 0.4938935026868587 0.42940889106008795
0.3143276179980603 0.4851001465559355 0.4264777723497801
0.3145707059993583 0.47239863214460187 0.4284318514899854
0.3148121279991756 0.45481191988275516 0.4303859306301905
0.3150297350002802 0.44699560332193444 0.4323400097703958
0.3152342309986125 0.43917928676111373 0.431362970200293
0.31542678299956606 0.431362970200293 0.431362970200293
0.315618723998341 0.42745481191988266 0.4303859306301905
0.3158114609977929 0.42452369320957506 0.4264777723497801
0.3160024770004384 0.4255007327796776 0.4284318514899854
0.3161938800003554 0.4206155349291647 0.42940889106008795
0.3163852469988342 0.4264777723497801 0.42745481191988266
0.31657803999769385 0.4333170493404983 0.4284318514899854
0.316770073997759 0.44211040547142155 0.42940889106008795
0.31701279199842247 0.4538348803126526 0.42940889106008795
0.31721304699749453 0.457743038593063 0.4333170493404983
0.31741302499722224 0.45969711773326827 0.4333170493404983
0.3176624650004669 0.45481191988275516 0.43624816805080613
0.31786953499977244 0.4538348803126526 0.4401563263312165
0.3180768279999029 0.44894968246213973 0.4430874450415241
0.3182798979978543 0.44992672203224227 0.44699560332193444
0.3185453559999587 0.44699560332193444 0.44992672203224227
0.3187596489988209 0.44894968246213973 0.4509037616023448
0.31896195999797783 0.44992672203224227 0.44894968246213973
0.3191669189982349 0.44894968246213973 0.4509037616023448
0.31939330399836763 0.4509037616023448 0.44992672203224227
0.3196252999987337 0.4479726428920372 0.4450415241817294
0.3198650179983815 0.45188080117244755 0.441133365901319
0.32011949499792536 0.4528578407425501 0.4401563263312165
0.32034617599856574 0.44699560332193444 0.43917928676111373
0.32055137600036687 0.441133365901319 0.4382022471910112
0.3207587239994609 0.4401563263312165 0.43917928676111373
0.32096520099730697 0.43722520762090866 0.4382022471910112
0.321171826999489 0.43429408891060084 0.4401563263312165
0.3213765090004017 0.431362970200293 0.44211040547142155
0.32158002399955876 0.42940889106008795 0.44211040547142155
0.32178420499985805 0.42452369320957506 0.4479726428920372
0.32202799699734896 0.42452369320957506 0.4450415241817294
0.32230467699992005 0.42159257449926724 0.44406448461162684
0.3226699299993925 0.42745481191988266 0.44894968246213973
0.3230048679979518 0.431362970200293 0.44894968246213973
0.32327956699737115 0.43624816805080613 0.45969711773326827
0.323859944997821 0.4460185637518319 0.46262823644357587
0.32407927500025835 0.4479726428920372 0.467513434294089
0.32427379000000656 0.4528578407425501 0.467513434294089
0.324468249000347 0.4557889594528579 0.4655593551538837
0.32466039399878355 0.45969711773326827 0.4655593551538837
0.3248523900001601 0.45969711773326827 0.4655593551538837
0.32504368299851194 0.457743038593063 0.4665363947239862
0.32523462399694836 0.4528578407425501 0.4655593551538837
0.32542563899914967 0.4479726428920372 0.46458231558378116
0.3256180249991303 0.4430874450415241 0.46458231558378116
0.3258101319988782 0.43917928676111373 0.4636052760136786
0.3260013319995778 0.43624816805080613 0.46262823644357587
0.32619353299742215 0.4284318514899854 0.46458231558378116
0.32638439999936963 0.4255007327796776 0.4684904738641915
0.32660791399757727 0.42452369320957506 0.4704445530043966
0.3268043360003503 0.4284318514899854 0.46946751343429405
0.3269951479996962 0.4352711284807034 0.47142159257449934
0.32718716299859807 0.44894968246213973 0.4704445530043966
0.32740302899765084 0.4587200781631655 0.47239863214460187
0.32759424799951375 0.4636052760136786 0.47239863214460187
0.327785336998204 0.45969711773326827 0.47239863214460187
0.3279764079998131 0.45481191988275516 0.47142159257449934
0.32816651499888394 0.44894968246213973 0.4733756717147044
0.3283572339969396 0.4460185637518319 0.46946751343429405
0.3285535449977033 0.43917928676111373 0.4684904738641915
0.3287460049978108 0.44211040547142155 0.4684904738641915
0.328936852998595 0.4382022471910112 0.467513434294089
0.3291276279996964 0.4430874450415241 0.46458231558378116
0.3293181979970541 0.44699560332193444 0.4753297508549097
0.32950919499853626 0.4509037616023448 0.46458231558378116
0.32969956200031447 0.4557889594528579 0.4636052760136786
0.32989079899925855 0.46165119687347334 0.46165119687347334
0.3300820919976104 0.4704445530043966 0.457743038593063
0.3302728479975485 0.46458231558378116 0.4557889594528579
0.3304637519977405 0.4684904738641915 0.4509037616023448
0.3306554699993285 0.46458231558378116 0.44992672203224227
0.33084678199884365 0.4636052760136786 0.4450415241817294
0.331037481999374 0.4606741573033708 0.44211040547142155
0.33122768199973507 0.45676599902296044 0.43917928676111373
0.3314183269976638 0.4557889594528579 0.43722520762090866
0.3316097489987442 0.45481191988275516 0.4352711284807034
0.33180163499855553 0.457743038593063 0.43429408891060084
0.3319927979973727 0.46262823644357587 0.4382022471910112
0.33219234999705805 0.4655593551538837 0.43722520762090866
0.3323944570001913 0.46262823644357587 0.4382022471910112
0.33259919400006765 0.4587200781631655 0.4430874450415241
0.3328036909988441 0.4587200781631655 0.44211040547142155
0.3330251119987224 0.4509037616023448 0.441133365901319
0.3332352750003338 0.44699560332193444 0.4401563263312165
0.33344171600037953 0.4460185637518319 0.441133365901319
0.33366197099894634 0.4479726428920372 0.43917928676111373
0.3338640049987589 0.4509037616023448 0.43722520762090866
0.3340647419972811 0.46262823644357587 0.43429408891060084
0.3343232189981791 0.4684904738641915 0.4333170493404983
0.3345449179978459 0.467513434294089 0.43429408891060084
0.3347726359970693 0.4704445530043966 0.42452369320957506
0.33503922399904695 0.46946751343429405 0.4206155349291647
0.3353260149997368 0.46946751343429405 0.4255007327796776
0.33558375099892146 0.46458231558378116 0.431362970200293
0.33583556200028397 0.4665363947239862 0.43722520762090866
0.3360720019991277 0.46458231558378116 0.4460185637518319
0.33633655199810164 0.4557889594528579 0.45188080117244755
0.33655036299751373 0.4606741573033708 0.4557889594528579
0.3367443409988482 0.4528578407425501 0.4557889594528579
0.3369350969987863 0.45188080117244755 0.4587200781631655
0.3371262420005223 0.4538348803126526 0.4665363947239862
0.33731699800046044 0.4587200781631655 0.4655593551538837
0.33750701299868524 0.45969711773326827 0.46946751343429405
0.33770197199919494 0.4636052760136786 0.4733756717147044
0.33789413499835064 0.46458231558378116 0.4763067904250122
0.33808542800034047 0.467513434294089 0.48216902784562765
0.3382757209983538 0.46165119687347334 0.4831460674157304
0.3384665319972555 0.4606741573033708 0.4851001465559355
0.3386954909983615 0.45676599902296044 0.4831460674157304
0.33888619099889183 0.45676599902296044 0.48216902784562765
0.33907713199732825 0.4557889594528579 0.4811919882755251
0.33926864699969883 0.45188080117244755 0.47728382999511476
0.339459087997966 0.45188080117244755 0.47239863214460187
0.33964975199705805 0.4509037616023448 0.4655593551538837
0.33984167399830767 0.45188080117244755 0.46165119687347334
0.3400314669997897 0.44894968246213973 0.457743038593063
0.3402228889972321 0.44992672203224227 0.4509037616023448
0.3404139790000045 0.457743038593063 0.4450415241817294
0.34060430799945607 0.44992672203224227 0.441133365901319
0.3407981939999445 0.4538348803126526 0.4382022471910112
0.34098883899787324 0.44699560332193444 0.4333170493404983
0.34118040899920743 0.44699560332193444 0.4333170493404983
0.34137110899973777 0.44211040547142155 0.4333170493404983
0.34156171699942206 0.43917928676111373 0.431362970200293
0.3417524729993602 0.44211040547142155 0.4333170493404983
0.3419428399975004 0.4401563263312165 0.4284318514899854
0.34213387300042086 0.4382022471910112 0.4323400097703958
0.34232446199894184 0.43917928676111373 0.4323400097703958
0.3425209220004035 0.4352711284807034 0.4333170493404983
0.3427117149985861 0.43624816805080613 0.441133365901319
0.342902062999201 0.4333170493404983 0.44211040547142155
0.3430936339973414 0.4333170493404983 0.44406448461162684
0.3432840749992465 0.4323400097703958 0.4479726428920372
0.3434745899976406 0.4323400097703958 0.4538348803126526
0.34366523399876314 0.431362970200293 0.45188080117244755
0.3438554349995684 0.4333170493404983 0.4538348803126526
0.3440457090000564 0.4352711284807034 0.4538348803126526
0.34423701999912737 0.43624816805080613 0.45188080117244755
0.3444505349980318 0.43917928676111373 0.44894968246213973
0.34464125399972545 0.4382022471910112 0.44894968246213973
0.3448320280003827 0.43624816805080613 0.44699560332193444
0.3450233949988615 0.43624816805080613 0.44992672203224227
0.3452147799980594 0.4323400097703958 0.4450415241817294
0.3454050729997107 0.4284318514899854 0.4430874450415241
0.34559532899947953 0.4323400097703958 0.44406448461162684
0.34578569599761977 0.4284318514899854 0.4479726428920372
0.34597663699969416 0.4323400097703958 0.44992672203224227
0.3461666889998014 0.4284318514899854 0.4538348803126526
0.34635992599942256 0.4323400097703958 0.4606741573033708
0.34655307099819765 0.4333170493404983 0.4704445530043966
0.34674310499758576 0.4333170493404983 0.4782608695652173
0.3469337859969528 0.4401563263312165 0.4802149487054226
0.3471239680002327 0.4382022471910112 0.48705422569614076
0.34731459399699816 0.44211040547142155 0.48998534440644836
0.34750529499797267 0.4460185637518319 0.4938935026868587
0.34769582799708587 0.45188080117244755 0.4938935026868587
0.3478860649993294 0.457743038593063 0.4938935026868587
0.3480761179998808 0.45188080117244755 0.4938935026868587
0.34826629899907857 0.45188080117244755 0.495847581827064
0.3484583699973882 0.43917928676111373 0.4978016609672691
0.34865869999703136 0.4333170493404983 0.4938935026868587
0.34885093699995195 0.42745481191988266 0.495847581827064
0.3490412299979653 0.42159257449926724 0.486077186126038
0.34923292999883415 0.4255007327796776 0.48216902784562765
0.34942346299794735 0.4333170493404983 0.47923790913532005
0.34961386699797004 0.441133365901319 0.4763067904250122
0.3498040859994944 0.44406448461162684 0.4733756717147044
0.34999530499771936 0.44894968246213973 0.4684904738641915
0.35018746800051304 0.4509037616023448 0.46946751343429405
0.3503892789995007 0.4528578407425501 0.4704445530043966
0.35061596000014106 0.45188080117244755 0.4684904738641915
0.35081591999914963 0.4557889594528579 0.47142159257449934
0.3510217119983281 0.4606741573033708 0.4733756717147044
0.35122328299985384 0.4782608695652173 0.4684904738641915
0.3514367419993505 0.5065950170981925 0.4655593551538837
0.3516438679980638 0.5232046897899365 0.45676599902296044
0.35184245699929306 0.5378602833414754 0.44992672203224227
0.352039582998259 0.533952125061065 0.43917928676111373
0.35224022699912894 0.5319980459208598 0.42745481191988266
0.3524545569998736 0.524181729360039 0.4186614557889594
0.352742754999781 0.5036638983878847 0.41475329750854906
0.3529671579999558 0.4811919882755251 0.4137762579384465
0.35319665399947553 0.46458231558378116 0.40986809965803617
0.3534301689978747 0.4528578407425501 0.4137762579384465
0.35366090499883285 0.44894968246213973 0.4137762579384465
0.3538685129969963 0.4460185637518319 0.42256961406936977
0.35407684199890355 0.4430874450415241 0.42452369320957506
0.3542900229986117 0.43917928676111373 0.42940889106008795
0.3545606849984324 0.4333170493404983 0.431362970200293
0.3547778110005311 0.431362970200293 0.431362970200293
0.3549750109996239 0.4323400097703958 0.4323400097703958
0.35517285899913986 0.43429408891060084 0.4333170493404983
0.3553664849969209 0.4323400097703958 0.4352711284807034
0.35555707499952405 0.43624816805080613 0.4333170493404983
0.3557472009997582 0.44699560332193444 0.4323400097703958
0.35593797500041546 0.4528578407425501 0.4323400097703958
0.35612858300009975 0.46262823644357587 0.4323400097703958
0.35631930099771125 0.46262823644357587 0.43429408891060084
0.3565089829971839 0.45969711773326827 0.431362970200293
0.35669903499729116 0.4509037616023448 0.42940889106008795
0.3568892169969331 0.441133365901319 0.42745481191988266
0.3570819359993038 0.4323400097703958 0.42256961406936977
0.3572721359996649 0.42159257449926724 0.4235466536394723
0.3574770579980395 0.41475329750854906 0.41963849535906195
0.3576757949995226 0.4059599413776258 0.4157303370786516
0.3578873469996324 0.40009770395701016 0.4137762579384465
0.358122416997503 0.40205178309721545 0.40986809965803617
0.3583442279996234 0.41182217879824123 0.41182217879824123
0.35883353399913176 0.4509037616023448 0.4235466536394723
0.35923495200040634 0.48412310698583294 0.4264777723497801
0.36015395399954286 0.47239863214460187 0.441133365901319
0.3604284680004639 0.467513434294089 0.4450415241817294
0.36061863099894254 0.46262823644357587 0.44699560332193444
0.3608074419971672 0.4528578407425501 0.4528578407425501
0.3609954019993893 0.44699560332193444 0.45481191988275516
0.36118506499769865 0.4382022471910112 0.4557889594528579
0.3613726730000053 0.4284318514899854 0.45969711773326827
0.3615608179970877 0.42159257449926724 0.46262823644357587
0.3617488700001559 0.4137762579384465 0.4655593551538837
0.36193816299783066 0.40693698094772834 0.46946751343429405
0.36212597399935476 0.40205178309721545 0.4665363947239862
0.36231352599861566 0.40009770395701016 0.46458231558378116
0.3625374669973098 0.39912066438690763 0.4606741573033708
0.3627504260002752 0.4108451392281387 0.45481191988275516
0.3629470889973163 0.4255007327796776 0.4538348803126526
0.36313680799867143 0.4401563263312165 0.44894968246213973
0.3633253039988631 0.4557889594528579 0.4479726428920372
0.36351296700013336 0.46946751343429405 0.44992672203224227
0.36370075999730034 0.4851001465559355 0.44992672203224227
0.36388890499802073 0.49975574010747437 0.4538348803126526
0.3640801609981281 0.5095261358085001 0.457743038593063
0.36426823099827743 0.5105031753786029 0.4655593551538837
0.3644554499987862 0.5056179775280898 0.4704445530043966
0.36464290999720106 0.495847581827064 0.47728382999511476
0.3648304989983444 0.4831460674157304 0.48216902784562765
0.3650198659997841 0.4763067904250122 0.4880312652662433
0.3652169179986231 0.46458231558378116 0.48705422569614076
0.3654148770001484 0.45969711773326827 0.4851001465559355
0.3656017809989862 0.45676599902296044 0.48412310698583294
0.36578922199987574 0.45188080117244755 0.4802149487054226
0.3659789039993484 0.44992672203224227 0.4811919882755251
0.36616615999810165 0.44699560332193444 0.4782608695652173
0.3663532119971933 0.44699560332193444 0.47728382999511476
0.36654387499947916 0.44211040547142155 0.4753297508549097
0.3667326679969847 0.44406448461162684 0.47239863214460187
0.3669251279970922 0.4450415241817294 0.47142159257449934
0.36711253199973726 0.44699560332193444 0.4684904738641915
0.3672996949972003 0.4479726428920372 0.4655593551538837
0.36748672899921075 0.4460185637518319 0.46165119687347334
0.3676737249988946 0.45188080117244755 0.457743038593063
0.3678609629969287 0.44992672203224227 0.4557889594528579
0.36804819999815663 0.4479726428920372 0.45188080117244755
0.36823688199729077 0.44406448461162684 0.45188080117244755
0.36842337800044334 0.44406448461162684 0.44699560332193444
0.3686108559995773 0.441133365901319 0.4460185637518319
0.3687983349991555 0.43917928676111373 0.4430874450415241
0.3689852019997488 0.43917928676111373 0.4430874450415241
0.369172216996958 0.4401563263312165 0.44211040547142155
0.3693615279989899 0.43917928676111373 0.4382022471910112
0.36956722799732233 0.44211040547142155 0.4401563263312165
0.3697859649983002 0.4460185637518319 0.441133365901319
0.3699871280005027 0.4538348803126526 0.43722520762090866
0.3701756429982197 0.4538348803126526 0.4382022471910112
0.37036325100052636 0.4538348803126526 0.43624816805080613
0.3705557469984342 0.45676599902296044 0.43429408891060084
0.3707447619999584 0.45481191988275516 0.431362970200293
0.370961554999667 0.457743038593063 0.4333170493404983
0.3711502919977647 0.4557889594528579 0.4323400097703958
0.3713375849984004 0.45481191988275516 0.43429408891060084
0.3715246930005378 0.4509037616023448 0.43624816805080613
0.3717126889969222 0.44211040547142155 0.44211040547142155
0.3719017779985734 0.43624816805080613 0.4479726428920372
0.37208936699971673 0.4323400097703958 0.4538348803126526
0.3722770860003948 0.42940889106008795 0.457743038593063
0.3724644529975194 0.42452369320957506 0.4636052760136786
0.3726528019979014 0.42256961406936977 0.4655593551538837
0.3728425759982201 0.42452369320957506 0.4733756717147044
0.37303009099923656 0.4284318514899854 0.4655593551538837
0.3732171429983282 0.4352711284807034 0.46262823644357587
0.37340467700050795 0.4450415241817294 0.4587200781631655
0.3735925250002765 0.45481191988275516 0.46458231558378116
0.37378074399748584 0.4704445530043966 0.4636052760136786
0.37396868499854463 0.4782608695652173 0.4684904738641915
0.3741562189970864 0.48998534440644836 0.4704445530043966
0.37434341900006984 0.4978016609672691 0.4704445530043966
0.3745377859995642 0.5007327796775769 0.47435271128480694
0.3747316159970069 0.49877870053737183 0.4782608695652173
0.37493688999893493 0.49682462139716654 0.4811919882755251
0.3751280159995076 0.4880312652662433 0.47923790913532005
0.37531929000033415 0.4851001465559355 0.47923790913532005
0.37551037999946857 0.4704445530043966 0.4802149487054226
0.37570200600021053 0.46165119687347334 0.4802149487054226
0.3758931689990277 0.457743038593063 0.4782608695652173
0.3760846279983525 0.45676599902296044 0.4763067904250122
0.3762751809990732 0.4557889594528579 0.47239863214460187
0.37646658399899025 0.46262823644357587 0.4763067904250122
0.37665813700004946 0.47142159257449934 0.4636052760136786
0.37684955899749184 0.4753297508549097 0.4587200781631655
0.3770402219997777 0.4753297508549097 0.4538348803126526
0.37723123699834105 0.47435271128480694 0.44992672203224227
0.37742173399965395 0.4753297508549097 0.4479726428920372
0.37761234099889407 0.47239863214460187 0.44406448461162684
0.3778030419998686 0.46946751343429405 0.4460185637518319
0.3780050940004003 0.46458231558378116 0.44894968246213973
0.3782061639976746 0.4606741573033708 0.4479726428920372
0.3784157709997089 0.45481191988275516 0.44699560332193444
0.3786256559978938 0.44699560332193444 0.4401563263312165
0.3788271529992926 0.4430874450415241 0.4333170493404983
0.3790498710004613 0.4352711284807034 0.42745481191988266
0.3792419789970154 0.4323400097703958 0.4186614557889594
0.3794325859998935 0.42256961406936977 0.41670737664875435
0.37962313800017 0.4176844162188569 0.40986809965803617
0.37981435699839494 0.4157303370786516 0.4040058622374205
0.3800080569999409 0.4176844162188569 0.39716658524670256
0.38019936899945606 0.42940889106008795 0.38935026868588185
0.3803898839978501 0.4352711284807034 0.38935026868588185
0.3805799729998398 0.441133365901319 0.38935026868588185
0.380771542997536 0.441133365901319 0.3952125061064973
0.3809623359993566 0.43722520762090866 0.403028822667318
0.38115522199950647 0.4255007327796776 0.4137762579384465
0.38136499599931994 0.42159257449926724 0.41963849535906195
0.38157276999845635 0.4235466536394723 0.42452369320957506
0.3817667289986275 0.41963849535906195 0.4303859306301905
0.3819585029996233 0.42256961406936977 0.4303859306301905
0.38215114799822913 0.42256961406936977 0.4333170493404983
0.3823423299982096 0.4264777723497801 0.4352711284807034
0.3825403629998618 0.42256961406936977 0.43917928676111373
0.3827341010000964 0.42159257449926724 0.4430874450415241
0.38292511599865975 0.4255007327796776 0.4430874450415241
0.38312020499870414 0.4284318514899854 0.44894968246213973
0.38331151599777513 0.431362970200293 0.4509037616023448
0.38350336399889784 0.43722520762090866 0.4509037616023448
0.38369393500033766 0.4450415241817294 0.4509037616023448
0.38388470899735694 0.45188080117244755 0.4479726428920372
0.38407592799921986 0.4557889594528579 0.44406448461162684
0.3842670359990734 0.46165119687347334 0.4479726428920372
0.3844584209982713 0.45481191988275516 0.44406448461162684
0.38465243599785026 0.44894968246213973 0.4450415241817294
0.3848431359983806 0.4460185637518319 0.44894968246213973
0.3850342810001166 0.4382022471910112 0.4538348803126526
0.3852246850001393 0.43429408891060084 0.46165119687347334
0.38541644100041594 0.4323400097703958 0.46458231558378116
0.3856080479999946 0.4333170493404983 0.47435271128480694
0.3858020449988544 0.43722520762090866 0.4733756717147044
0.38599387499925797 0.4430874450415241 0.47923790913532005
0.3861848899978213 0.44699560332193444 0.48216902784562765
0.38637612700040336 0.4557889594528579 0.4831460674157304
0.3865899749980599 0.4665363947239862 0.486077186126038
0.38678289800009225 0.47923790913532005 0.486077186126038
0.38709083600042504 0.486077186126038 0.4831460674157304
0.3873350359972392 0.4851001465559355 0.4811919882755251
0.3875393279995478 0.4782608695652173 0.48216902784562765
0.3877301769971382 0.4606741573033708 0.4753297508549097
0.38792159899821854 0.44699560332193444 0.47728382999511476
0.3881117809978605 0.43917928676111373 0.486077186126038
0.38830555499953334 0.4284318514899854 0.4811919882755251
0.3884961439980543 0.4255007327796776 0.4948705422569615
0.3886868259978655 0.4235466536394723 0.4880312652662433
0.3888771559977613 0.42159257449926724 0.4938935026868587
0.38906800399854546 0.4206155349291647 0.49877870053737183
0.38925951899727806 0.4235466536394723 0.5007327796775769
0.3894507570003043 0.4323400097703958 0.5007327796775769
0.3896427349973237 0.4352711284807034 0.49877870053737183
0.3898335459998634 0.4382022471910112 0.495847581827064
0.3900239499998861 0.43722520762090866 0.4938935026868587
0.3902148169981956 0.43624816805080613 0.486077186126038
0.3904048320000584 0.43429408891060084 0.4802149487054226
0.39061186499748146 0.43917928676111373 0.4753297508549097
0.39080195399947115 0.44894968246213973 0.4733756717147044
0.39099504299883847 0.46262823644357587 0.4665363947239862
0.391186466000363 0.47142159257449934 0.4636052760136786
0.3913787769997725 0.47435271128480694 0.46165119687347334
0.3915699399985897 0.4655593551538837 0.4587200781631655
0.3917604369999026 0.45969711773326827 0.45481191988275516
0.39195069299967145 0.45188080117244755 0.4528578407425501
0.39214189300037106 0.44992672203224227 0.4479726428920372
0.39233287099705194 0.45188080117244755 0.4450415241817294
0.392524422997667 0.4557889594528579 0.44406448461162684
0.39271519699832425 0.45188080117244755 0.44406448461162684
0.39290587899813545 0.4479726428920372 0.44699560332193444
0.39309674600008293 0.45188080117244755 0.44992672203224227
0.39328807600031723 0.45969711773326827 0.45188080117244755
0.3934788499973365 0.47142159257449934 0.4587200781631655
0.39366967999740154 0.4802149487054226 0.46165119687347334
0.3938603799979319 0.4929164631167562 0.46262823644357587
0.3940505069986102 0.49682462139716654 0.46165119687347334
0.39424144799704663 0.5046409379579873 0.4587200781631655
0.3944320369992056 0.5007327796775769 0.4557889594528579
0.3946233669994399 0.4948705422569615 0.44992672203224227
0.39481432599859545 0.4938935026868587 0.4401563263312165
0.39500491499711643 0.4880312652662433 0.4284318514899854
0.3951954299991485 0.4880312652662433 0.41670737664875435
0.3953867790005461 0.4929164631167562 0.4108451392281387
0.39558584899714333 0.49193942354665365 0.4059599413776258
0.39577771599942935 0.486077186126038 0.4010747435271129
0.39596924999932526 0.4753297508549097 0.40205178309721545
0.3961601909977617 0.4636052760136786 0.40889106008793363
0.3963523909987998 0.4528578407425501 0.41670737664875435
0.3965431649994571 0.4430874450415241 0.4255007327796776
0.39673362499888754 0.4382022471910112 0.4333170493404983
0.39692441700026393 0.4303859306301905 0.4401563263312165
0.3971148579985311 0.42745481191988266 0.441133365901319
0.39730537299692514 0.4303859306301905 0.44406448461162684
0.3974952030002896 0.4333170493404983 0.441133365901319
0.3976861809969705 0.4430874450415241 0.4401563263312165
0.3978766039981565 0.4509037616023448 0.43624816805080613
0.39806672999839066 0.46165119687347334 0.4333170493404983
0.3982569669969962 0.46458231558378116 0.4323400097703958
0.3984472599986475 0.4665363947239862 0.431362970200293
0.39863901599892415 0.47142159257449934 0.42940889106008795
0.39882877199852373 0.47142159257449934 0.4333170493404983
0.3990201939996041 0.46946751343429405 0.42745481191988266
0.39921044999937294 0.467513434294089 0.4255007327796776
0.3994013729970902 0.46458231558378116 0.4235466536394723
0.39959199899749365 0.4606741573033708 0.4303859306301905
0.39978923599846894 0.46262823644357587 0.42940889106008795
0.3999812319998455 0.4655593551538837 0.4352711284807034
0.40017233999969903 0.47142159257449934 0.44406448461162684
0.40037570699860225 0.4763067904250122 0.4528578407425501
0.4005797399986477 0.4811919882755251 0.45969711773326827
0.40078006999829086 0.4831460674157304 0.467513434294089
0.4009799919986108 0.4851001465559355 0.4704445530043966
0.4011791369994171 0.4782608695652173 0.47435271128480694
0.4013826139998855 0.47142159257449934 0.4733756717147044
0.4015822589972231 0.4606741573033708 0.47239863214460187
0.4017858849983895 0.4528578407425501 0.47239863214460187
0.4019846589981171 0.4460185637518319 0.4733756717147044
0.40218837799693574 0.441133365901319 0.467513434294089
0.4024347429985937 0.4401563263312165 0.46262823644357587
0.40270708999742055 0.44699560332193444 0.45676599902296044
0.40297947399812983 0.44992672203224227 0.4538348803126526
0.40390366099745734 0.42745481191988266 0.45188080117244755
0.40412628699777997 0.40693698094772834 0.4509037616023448
0.40433163499983493 0.38641914997557403 0.45188080117244755
0.4045423529969412 0.37469467513434296 0.4509037616023448
0.40474783099853084 0.36199316072300936 0.4528578407425501
0.4050169559995993 0.3639472398632144 0.44699560332193444
0.40559790800034534 0.3952125061064973 0.4401563263312165
0.40673807299754117 0.4636052760136786 0.44992672203224227
0.4070953810005449 0.457743038593063 0.45188080117244755
0.40730756300035864 0.4557889594528579 0.44894968246213973
0.40828400799728115 0.431362970200293 0.45188080117244755
0.4085187999990012 0.42940889106008795 0.4479726428920372
0.408714406999934 0.4264777723497801 0.44699560332193444
0.4089066449996608 0.4264777723497801 0.44992672203224227
0.40909604899934493 0.4235466536394723 0.44406448461162684
0.40928548999727354 0.4264777723497801 0.44211040547142155
0.40947394899922074 0.4323400097703958 0.43624816805080613
0.40966359400044894 0.43624816805080613 0.43624816805080613
0.40985179400013294 0.4460185637518319 0.43722520762090866
0.41003967999859015 0.45481191988275516 0.43917928676111373
0.4102296579985705 0.4704445530043966 0.43722520762090866
0.41041750599833904 0.4938935026868587 0.4352711284807034
0.4106457979978586 0.5134342940889105 0.43917928676111373
0.41083372099819826 0.5212506106497312 0.43624816805080613
0.41102427299847477 0.5144113336590133 0.441133365901319
0.41121297299832804 0.5036638983878847 0.4430874450415241
0.41140171100050793 0.4929164631167562 0.44699560332193444
0.41158952199839405 0.4811919882755251 0.44894968246213973
0.4117778330000874 0.467513434294089 0.45481191988275516
0.41196755199780455 0.45676599902296044 0.4528578407425501
0.4121568269983982 0.44894968246213973 0.457743038593063
0.41234467499816674 0.42940889106008795 0.4557889594528579
0.4125324679989717 0.42256961406936977 0.45676599902296044
0.4127200759976404 0.412799218368344 0.45676599902296044
0.4129081459977897 0.41670737664875435 0.45969711773326827
0.4130971239974315 0.4186614557889594 0.4606741573033708
0.41328623200024595 0.4264777723497801 0.45969711773326827
0.41347357999984524 0.4333170493404983 0.46262823644357587
0.4136610589994234 0.4401563263312165 0.4655593551538837
0.41385072199773276 0.4450415241817294 0.46458231558378116
0.4140382919977128 0.4509037616023448 0.4684904738641915
0.414225548000104 0.44894968246213973 0.4733756717147044
0.4144132859983074 0.44699560332193444 0.4763067904250122
0.41461752299801446 0.4450415241817294 0.47923790913532005
0.4148077789977833 0.44699560332193444 0.4831460674157304
0.41499625699725584 0.44894968246213973 0.48998534440644836
0.4151857349970669 0.45188080117244755 0.48900830483634583
0.41542963800020516 0.4509037616023448 0.48900830483634583
0.4156617449989426 0.4557889594528579 0.48998534440644836
0.41585394499998074 0.457743038593063 0.48705422569614076
0.41604573799850186 0.46165119687347334 0.4851001465559355
0.4162336970002798 0.45969711773326827 0.4811919882755251
0.4164217679972353 0.4636052760136786 0.47728382999511476
0.41661970899804146 0.46458231558378116 0.4704445530043966
0.41683475999889197 0.46458231558378116 0.4665363947239862
0.4170263489977515 0.4655593551538837 0.45969711773326827
0.4172150310005236 0.4655593551538837 0.4557889594528579
0.41740295399722527 0.4636052760136786 0.45188080117244755
0.41759017299773404 0.45969711773326827 0.45188080117244755
0.4177775579992158 0.457743038593063 0.4528578407425501
0.41796457300006296 0.4538348803126526 0.4538348803126526
0.41815236599722994 0.4479726428920372 0.4528578407425501
0.41834121399733704 0.44894968246213973 0.4528578407425501
0.41853022999930545 0.4479726428920372 0.4509037616023448
0.4187241149993497 0.44894968246213973 0.4479726428920372
0.4189115739973204 0.4557889594528579 0.4460185637518319
0.4191009040005156 0.46165119687347334 0.441133365901319
0.41960548799761455 0.46262823644357587 0.4352711284807034
0.4198538169985113 0.457743038593063 0.43429408891060084
0.4200585719991068 0.4538348803126526 0.42940889106008795
0.42025379099868587 0.44992672203224227 0.4206155349291647
0.420442157999787 0.44992672203224227 0.4137762579384465
0.42063232099826564 0.44699560332193444 0.4059599413776258
0.4208220769978652 0.44992672203224227 0.403028822667318
0.4210094810005103 0.4538348803126526 0.403028822667318
0.4211965149988828 0.4509037616023448 0.40693698094772834
0.42138371499822824 0.45481191988275516 0.41182217879824123
0.4215714889978699 0.44992672203224227 0.4137762579384465
0.421760170997004 0.4528578407425501 0.4206155349291647
0.4219471119977243 0.4509037616023448 0.4255007327796776
0.42213486800028477 0.4509037616023448 0.4303859306301905
0.4223225129971979 0.44992672203224227 0.43429408891060084
0.42254667499946663 0.4479726428920372 0.43917928676111373
0.4227347829983046 0.44894968246213973 0.441133365901319
0.42292200199881336 0.4479726428920372 0.4401563263312165
0.4231413130000874 0.45188080117244755 0.44211040547142155
0.42333421699731844 0.45188080117244755 0.4450415241817294
0.42352230599863105 0.45481191988275516 0.4460185637518319
0.4237115059986536 0.45969711773326827 0.44992672203224227
0.42393433499819366 0.46165119687347334 0.4538348803126526
0.4241227019992948 0.4587200781631655 0.45676599902296044
0.4243108470000152 0.45481191988275516 0.45969711773326827
0.42449884400048177 0.44992672203224227 0.4606741573033708
0.42468671099777566 0.4460185637518319 0.46262823644357587
0.4248747439996805 0.43917928676111373 0.46262823644357587
0.4250616479985183 0.4333170493404983 0.45481191988275516
0.42524938600035966 0.4264777723497801 0.45188080117244755
0.4254364379994513 0.4186614557889594 0.45188080117244755
0.4256239899987122 0.412799218368344 0.44992672203224227
0.42581148599856533 0.4108451392281387 0.4479726428920372
0.425998778999201 0.40889106008793363 0.44894968246213973
0.42618596099782735 0.412799218368344 0.45188080117244755
0.4263727539982938 0.41670737664875435 0.4509037616023448
0.42658602799929213 0.42256961406936977 0.45481191988275516
0.42677391299730516 0.4255007327796776 0.45481191988275516
0.42696146599701024 0.42940889106008795 0.45676599902296044
0.4271498509988305 0.4323400097703958 0.4538348803126526
0.42733788499754155 0.4303859306301905 0.4538348803126526
0.4275275479994889 0.42940889106008795 0.4538348803126526
0.42771493299733265 0.4323400097703958 0.4479726428920372
0.427901633996953 0.43624816805080613 0.44894968246213973
0.4280964079989644 0.4333170493404983 0.44699560332193444
0.42828468199877534 0.4323400097703958 0.44699560332193444
0.42847178999727475 0.431362970200293 0.44699560332193444
0.42866000899812207 0.431362970200293 0.44894968246213973
0.4288475979992654 0.4303859306301905 0.4509037616023448
0.4290345019981032 0.4264777723497801 0.4538348803126526
0.4292216100002406 0.42745481191988266 0.4528578407425501
0.42940814399844385 0.4303859306301905 0.45481191988275516
0.42959504799728165 0.4333170493404983 0.4509037616023448
0.4297831919975579 0.4401563263312165 0.45188080117244755
0.4299706889978552 0.44894968246213973 0.44894968246213973
0.43015783399823704 0.4636052760136786 0.4460185637518319
0.4303457749992958 0.47923790913532005 0.44406448461162684
0.43053449299986823 0.49682462139716654 0.4479726428920372
0.43072302699874854 0.5007327796775769 0.44894968246213973
0.43091124599959585 0.495847581827064 0.4528578407425501
0.43110431599779986 0.4851001465559355 0.457743038593063
0.43135344199981773 0.47239863214460187 0.4665363947239862
0.43157512299876544 0.46262823644357587 0.4655593551538837
0.4317860629998904 0.4587200781631655 0.4704445530043966
0.4319783559985808 0.45969711773326827 0.47239863214460187
0.43218322299799183 0.4655593551538837 0.47239863214460187
0.43237188599960064 0.4733756717147044 0.47142159257449934
0.4325612899992848 0.47923790913532005 0.4704445530043966
0.4327500830004283 0.48412310698583294 0.4733756717147044
0.4329382830001123 0.48900830483634583 0.47142159257449934
0.4331268909991195 0.4851001465559355 0.4733756717147044
0.4333141280003474 0.4811919882755251 0.47142159257449934
0.4335023839994392 0.47239863214460187 0.4704445530043966
0.4336964549984259 0.4665363947239862 0.467513434294089
0.43389209899760317 0.46262823644357587 0.4636052760136786
0.4340956140003982 0.4509037616023448 0.43917928676111373
0.4366029759985395 0.4733756717147044 0.44992672203224227
0.4372961859990028 0.4684904738641915 0.45676599902296044
0.4378840270001092 0.46262823644357587 0.43429408891060084
0.4393944629991893 0.4509037616023448 0.45676599902296044
0.4409270269970875 0.4303859306301905 0.46165119687347334
0.4412311509986466 0.4323400097703958 0.4528578407425501
0.44154857199828257 0.4323400097703958 0.4401563263312165
0.44186276999971597 0.4333170493404983 0.43624816805080613
0.44229013199947076 0.44211040547142155 0.4352711284807034
0.442533628000092 0.4479726428920372 0.4382022471910112
0.4427299019989732 0.44894968246213973 0.4401563263312165
0.4429192879979382 0.45188080117244755 0.441133365901319
0.4431092289996741 0.4538348803126526 0.44406448461162684
0.44329848399866023 0.45481191988275516 0.4450415241817294
0.443486739997752 0.457743038593063 0.4460185637518319
0.4436748849984724 0.45969711773326827 0.44406448461162684
0.4438799370000197 0.4557889594528579 0.44699560332193444
0.44408858099995996 0.4557889594528579 0.44406448461162684
0.4442774669987557 0.4538348803126526 0.4450415241817294
0.44446883399723447 0.45188080117244755 0.4401563263312165
0.4446581079973839 0.44894968246213973 0.43624816805080613
0.4448473819975334 0.45481191988275516 0.4352711284807034
0.4450352120002208 0.44894968246213973 0.4323400097703958
0.44522591199711314 0.44894968246213973 0.4284318514899854
0.44541342799857375 0.44992672203224227 0.4255007327796776
0.44560131300022476 0.45188080117244755 0.4255007327796776
0.44578845799696865 0.45188080117244755 0.42745481191988266
0.4459765649990004 0.4538348803126526 0.4255007327796776
0.4461637290005456 0.457743038593063 0.4323400097703958
0.4463516329997219 0.4557889594528579 0.4382022471910112
0.44654264799828525 0.44992672203224227 0.44211040547142155
0.4467326809972292 0.43722520762090866 0.4479726428920372
0.4469654360000277 0.42452369320957506 0.4538348803126526
0.44715517399890814 0.40889106008793363 0.4557889594528579
0.44734381799935363 0.40009770395701016 0.46262823644357587
0.44753762999971514 0.3913043478260869 0.46262823644357587
0.447725662997982 0.3903273082559844 0.4636052760136786
0.4479129009996541 0.39716658524670256 0.46946751343429405
0.4481009709998034 0.4059599413776258 0.4684904738641915
0.44829180099986843 0.4186614557889594 0.46946751343429405
0.4484827239975857 0.43429408891060084 0.4684904738641915
0.4486705909985176 0.44699560332193444 0.4636052760136786
0.44886330900044413 0.457743038593063 0.467513434294089
0.44905880599981174 0.46458231558378116 0.4655593551538837
0.4492469689976133 0.46458231558378116 0.4655593551538837
0.4494343359983759 0.4636052760136786 0.4684904738641915
0.44962185099939234 0.45969711773326827 0.4704445530043966
0.4498107549989072 0.4557889594528579 0.4763067904250122
0.4499986219998391 0.4538348803126526 0.4782608695652173
0.4501925629992911 0.45676599902296044 0.4811919882755251
0.4503888740000548 0.45969711773326827 0.48412310698583294
0.45060574099989026 0.4636052760136786 0.4831460674157304
0.4507943669996166 0.46946751343429405 0.4802149487054226
0.4509831969990046 0.4684904738641915 0.4733756717147044
0.45117132299856166 0.46458231558378116 0.46946751343429405
0.45135952299824567 0.4665363947239862 0.46262823644357587
0.45154761300000246 0.46262823644357587 0.4587200781631655
0.45174197999949683 0.46262823644357587 0.4557889594528579
0.45192882799892686 0.46165119687347334 0.4528578407425501
0.45212073199945735 0.4655593551538837 0.4528578407425501
0.45231465399774606 0.46262823644357587 0.4528578407425501
0.4525328540003102 0.467513434294089 0.45481191988275516
0.4527368130002287 0.4655593551538837 0.4538348803126526
0.452941772997292 0.4636052760136786 0.457743038593063
0.45314204699752736 0.4636052760136786 0.457743038593063
0.4533501169971714 0.46165119687347334 0.45969711773326827
0.4535578729992267 0.4606741573033708 0.45676599902296044
0.45374638799694367 0.46458231558378116 0.45481191988275516
0.4539347360005195 0.45969711773326827 0.4538348803126526
0.45412251000016113 0.46262823644357587 0.4509037616023448
0.4543114509979205 0.46458231558378116 0.4479726428920372
0.4545284849991731 0.46946751343429405 0.4450415241817294
0.45471888899919577 0.4704445530043966 0.4430874450415241
0.4549088109997683 0.4684904738641915 0.4401563263312165
0.4551245660004497 0.46458231558378116 0.4382022471910112
0.45531495199975325 0.4557889594528579 0.43917928676111373
0.45550196699696244 0.4509037616023448 0.43917928676111373
0.45568907499909983 0.4450415241817294 0.43917928676111373
0.45587623800020083 0.4382022471910112 0.4382022471910112
0.45606365999992704 0.43624816805080613 0.4333170493404983
0.45625141599884955 0.4303859306301905 0.4303859306301905
0.45643911699880846 0.42940889106008795 0.4264777723497801
0.45662713199999416 0.4303859306301905 0.4235466536394723
0.4568149429978803 0.4323400097703958 0.4186614557889594
0.45700410599965835 0.4255007327796776 0.412799218368344
0.4571945659990888 0.42159257449926724 0.41182217879824123
0.45738239599813824 0.42159257449926724 0.4108451392281387
0.4575695219973568 0.4235466536394723 0.41182217879824123
0.45776070399733726 0.4333170493404983 0.41475329750854906
0.4579493299970636 0.43429408891060084 0.41670737664875435
0.4581368269973609 0.44406448461162684 0.4176844162188569
0.4583251570002176 0.45188080117244755 0.41963849535906195
0.4585246709975763 0.4636052760136786 0.42256961406936977
0.45871925999745145 0.48216902784562765 0.4284318514899854
0.4589108869986376 0.5036638983878847 0.4323400097703958
0.4591016979975393 0.5153883732291158 0.43917928676111373
0.4593049350005458 0.5202735710796287 0.4430874450415241
0.45950272799746017 0.5105031753786029 0.4509037616023448
0.4597112239971466 0.4909623839765511 0.457743038593063
0.4599058129970217 0.4684904738641915 0.4606741573033708
0.46009656899695983 0.4460185637518319 0.46458231558378116
0.4602871389979555 0.4303859306301905 0.46458231558378116
0.4604779689980205 0.42256961406936977 0.4665363947239862
0.4606699659998412 0.4206155349291647 0.46458231558378116
0.46086025899785454 0.41963849535906195 0.46458231558378116
0.4610512179970101 0.42256961406936977 0.467513434294089
0.4612431040004594 0.4264777723497801 0.467513434294089
0.4614348590002919 0.4352711284807034 0.46946751343429405
0.46162626299701515 0.4382022471910112 0.47239863214460187
0.46181807500033756 0.43917928676111373 0.4733756717147044
0.46200797900019097 0.44406448461162684 0.47435271128480694
0.4621984199984581 0.4450415241817294 0.47142159257449934
0.4623923420003848 0.44699560332193444 0.4684904738641915
0.4626177079990157 0.4460185637518319 0.46165119687347334
0.4628235380005208 0.44699560332193444 0.46262823644357587
0.46302873799868394 0.4450415241817294 0.46262823644357587
0.463261770997633 0.44406448461162684 0.4665363947239862
0.4634779329971934 0.4460185637518319 0.46946751343429405
0.4636726520002412 0.4430874450415241 0.47142159257449934
0.46386359299867763 0.4430874450415241 0.47239863214460187
0.46405486699950416 0.4460185637518319 0.47142159257449934
0.4642496599990409 0.4479726428920372 0.4704445530043966
0.4644654339972476 0.4528578407425501 0.46458231558378116
0.46466485599739826 0.45969711773326827 0.46262823644357587
0.4648558899971249 0.4655593551538837 0.4587200781631655
