0 0.486077186126038 0.4401563263312165
0.00032773500061011873 0.48216902784562765 0.4176844162188569
0.0005385090007621329 0.47239863214460187 0.40009770395701016
0.0007390050013782457 0.4636052760136786 0.38446507083536874
0.0009560569997120183 0.45969711773326827 0.3737176355642404
0.0011594790012168232 0.45188080117244755 0.376648754274548
0.0013524380010494497 0.4479726428920372 0.3834880312652662
0.0015419530027429573 0.4479726428920372 0.4010747435271129
0.0017332460010948125 0.44699560332193444 0.4264777723497801
0.0019234470019000582 0.44406448461162684 0.4479726428920372
0.0021202019997872412 0.4430874450415241 0.4753297508549097
0.0023097730008885264 0.44211040547142155 0.4880312652662433
0.0024978990004456136 0.4450415241817294 0.5046409379579873
0.0026866360021813307 0.441133365901319 0.512457254518808
0.0028747440010192804 0.441133365901319 0.5105031753786029
0.0030627590022049844 0.441133365901319 0.5085490962383976
0.0032517370018467773 0.441133365901319 0.5085490962383976
0.003445178001129534 0.4430874450415241 0.49975574010747437
0.0036443410026549827 0.44211040547142155 0.4851001465559355
0.0038643190018774476 0.44699560332193444 0.4782608695652173
0.00406437100173207 0.44894968246213973 0.46262823644357587
0.004258404002030147 0.45188080117244755 0.44894968246213973
0.004461641001398675 0.45481191988275516 0.4352711284807034
0.004651582003134536 0.457743038593063 0.4235466536394723
0.004840135003178148 0.4606741573033708 0.4235466536394723
0.005028798001148971 0.4606741573033708 0.41670737664875435
0.005216869001742452 0.45969711773326827 0.41963849535906195
0.00540543900206103 0.46262823644357587 0.42159257449926724
0.0055922140018083155 0.4606741573033708 0.4303859306301905
0.005780172999948263 0.45969711773326827 0.43624816805080613
0.006013447000441374 0.4587200781631655 0.44406448461162684
0.006218628001079196 0.46458231558378116 0.45676599902296044
0.006412384002032923 0.45676599902296044 0.4684904738641915
0.006702231003146153 0.46165119687347334 0.47923790913532005
0.006941874002222903 0.4606741573033708 0.4929164631167562
0.00716179600203759 0.46165119687347334 0.5046409379579873
0.0073704040005395655 0.46165119687347334 0.5144113336590133
0.007562863000202924 0.46946751343429405 0.5173424523693209
0.007751360000838758 0.4587200781631655 0.5212506106497312
0.007940634000988211 0.45676599902296044 0.5251587689301416
0.008128853001835523 0.4557889594528579 0.5232046897899365
0.008335627000633394 0.4528578407425501 0.5163654127992183
0.00852595700052916 0.45481191988275516 0.5056179775280898
0.00871375000133412 0.4665363947239862 0.4929164631167562
0.008904395002900856 0.457743038593063 0.47435271128480694
0.009099298000364797 0.45969711773326827 0.4636052760136786
0.009287462002248503 0.4606741573033708 0.4528578407425501
0.00947529200129793 0.46165119687347334 0.4430874450415241
0.00970030600001337 0.45676599902296044 0.43722520762090866
0.009904173002723837 0.45676599902296044 0.42940889106008795
0.010191612000198802 0.45481191988275516 0.42745481191988266
0.010394960001576692 0.45481191988275516 0.4206155349291647
0.010594957002467709 0.4528578407425501 0.4108451392281387
0.01079330500215292 0.4479726428920372 0.39716658524670256
0.010995153003023006 0.44992672203224227 0.38153395212506114
0.011200853001355426 0.4479726428920372 0.37274059599413767
0.011395146000722889 0.45188080117244755 0.3659013190034197
0.011601550002524164 0.4479726428920372 0.3659013190034197
0.011814694000349846 0.44406448461162684 0.3678553981436248
0.012026468000840396 0.4460185637518319 0.3737176355642404
0.012228335002873791 0.44894968246213973 0.38251099169516367
0.012433701002009911 0.44894968246213973 0.38641914997557403
0.01263551200099755 0.44699560332193444 0.39716658524670256
0.012828065002395306 0.44894968246213973 0.4108451392281387
0.013031802001933102 0.44699560332193444 0.412799218368344
0.013251501000922872 0.44894968246213973 0.4137762579384465
0.013493738002580358 0.4479726428920372 0.4059599413776258
0.013706919002288487 0.44992672203224227 0.39912066438690763
0.013905915002396796 0.44699560332193444 0.3961895456765998
0.014109966999967583 0.4401563263312165 0.40205178309721545
0.014320538000902161 0.43624816805080613 0.40205178309721545
0.014545052003086312 0.4303859306301905 0.41182217879824123
0.014774270002817502 0.4255007327796776 0.412799218368344
0.014999007002188591 0.4235466536394723 0.412799218368344
0.015205133000563364 0.42452369320957506 0.412799218368344
0.015397389001009287 0.4176844162188569 0.4157303370786516
0.015585774002829567 0.4206155349291647 0.42159257449926724
0.015774993000377435 0.4176844162188569 0.42256961406936977
0.015962601002684096 0.4206155349291647 0.42452369320957506
0.016149505001521902 0.4206155349291647 0.4284318514899854
0.016337353001290467 0.42159257449926724 0.4323400097703958
0.016524850001587765 0.42452369320957506 0.4382022471910112
0.01671173500290024 0.42452369320957506 0.44699560332193444
0.016898824000236345 0.4235466536394723 0.46165119687347334
0.017085969000618206 0.4284318514899854 0.467513434294089
0.017274095000175294 0.4284318514899854 0.4753297508549097
0.01746366600127658 0.43624816805080613 0.4802149487054226
0.01765047700246214 0.4401563263312165 0.48412310698583294
0.017838343999756034 0.44699560332193444 0.49193942354665365
0.018050951999612153 0.4557889594528579 0.4929164631167562
0.0182398370016017 0.4665363947239862 0.49193942354665365
0.01843105599982664 0.4753297508549097 0.4929164631167562
0.01862101600272581 0.4909623839765511 0.48998534440644836
0.01881051199961803 0.5036638983878847 0.4929164631167562
0.018998953000846086 0.5075720566682951 0.4938935026868587
0.019187060999684036 0.5085490962383976 0.49975574010747437
0.01939329800006817 0.5007327796775769 0.5036638983878847
0.019581591001042398 0.48998534440644836 0.5163654127992183
0.019769513000937877 0.4782608695652173 0.5280898876404494
0.019958380002208287 0.46946751343429405 0.5417684416218858
0.020166728001640877 0.4606741573033708 0.5456765999022961
0.020364410000183852 0.45188080117244755 0.5476306790425012
0.020559573000355158 0.4479726428920372 0.5456765999022961
0.02074701400124468 0.4450415241817294 0.5456765999022961
0.02093477000016719 0.4382022471910112 0.533952125061065
0.02112241500071832 0.43722520762090866 0.5310210063507572
0.021310615000402322 0.4323400097703958 0.5192965315095261
0.021498352001799503 0.4303859306301905 0.5075720566682951
0.02168696000080672 0.431362970200293 0.4909623839765511
0.02187660500203492 0.42940889106008795 0.46458231558378116
0.02207891600119183 0.43624816805080613 0.43917928676111373
0.02226713500203914 0.43624816805080613 0.4108451392281387
0.022454669000580907 0.4401563263312165 0.3834880312652662
0.02264518400261295 0.4430874450415241 0.36492427943331696
0.02283419900049921 0.44699560332193444 0.3551538837322912
0.023022344001219608 0.45188080117244755 0.3639472398632144
0.023214988003019243 0.4528578407425501 0.36980947728383007
0.02341031800096971 0.4538348803126526 0.3903273082559844
0.023611833003087668 0.45676599902296044 0.4157303370786516
0.023818570000003092 0.45969711773326827 0.4430874450415241
0.024017048002860975 0.4606741573033708 0.4655593551538837
0.02421017400047276 0.4606741573033708 0.4811919882755251
0.024400689002504805 0.4606741573033708 0.48705422569614076
0.024602852001407882 0.46262823644357587 0.4929164631167562
0.024802588999591535 0.4587200781631655 0.4909623839765511
0.02499358600107371 0.4587200781631655 0.4909623839765511
0.025185026999679394 0.4557889594528579 0.48998534440644836
0.025379134000104386 0.4538348803126526 0.49193942354665365
0.0255821120008477 0.4528578407425501 0.4978016609672691
0.025790089999645716 0.4538348803126526 0.5007327796775769
0.026006826999946497 0.44992672203224227 0.5046409379579873
0.026215416000923142 0.44406448461162684 0.5065950170981925
0.026418356002977816 0.43917928676111373 0.5026868588177822
0.026636834001692478 0.43917928676111373 0.5036638983878847
0.02683423800044693 0.43624816805080613 0.49682462139716654
0.027037382002163213 0.4323400097703958 0.49682462139716654
0.027231156000198098 0.43624816805080613 0.4929164631167562
0.027447874999779742 0.4382022471910112 0.4929164631167562
0.027662519001751207 0.43917928676111373 0.48900830483634583
0.027857016000780277 0.4401563263312165 0.48705422569614076
0.028049049000401283 0.441133365901319 0.4811919882755251
0.028239249000762356 0.44699560332193444 0.4782608695652173
0.028430801001377404 0.4509037616023448 0.4733756717147044
0.028620909000892425 0.4479726428920372 0.47142159257449934
0.028816665002523223 0.44894968246213973 0.4684904738641915
0.02901334600028349 0.44699560332193444 0.467513434294089
0.02920536199962953 0.4460185637518319 0.45188080117244755
0.02940921000117669 0.4450415241817294 0.441133365901319
0.02960583599997335 0.44406448461162684 0.4284318514899854
0.0298098140010552 0.4450415241817294 0.41182217879824123
0.030011217000719626 0.44699560332193444 0.3903273082559844
0.03021980600169627 0.4509037616023448 0.3737176355642404
0.030434413001785288 0.45481191988275516 0.3610161211529066
0.030643891001091106 0.4557889594528579 0.3512457254518808
0.030846795001707505 0.45676599902296044 0.34636052760136793
0.031048143002408324 0.46262823644357587 0.34636052760136793
0.031247158000041964 0.4665363947239862 0.3453834880312652
0.03144400600285735 0.4733756717147044 0.3453834880312652
0.03165794700180413 0.4753297508549097 0.34929164631167553
0.03186399900005199 0.47142159257449934 0.34440644846116264
0.03208095800073352 0.4704445530043966 0.3404982901807523
0.03228471300099045 0.4684904738641915 0.3277967757694187
0.032495802002813434 0.4704445530043966 0.3180263800683927
0.03269313200144097 0.4753297508549097 0.31216414264777725
0.03289277600197238 0.4704445530043966 0.3160723009281876
0.03309219900256721 0.4684904738641915 0.3209574987787005
0.03328847300144844 0.46458231558378116 0.3356130923302394
0.03348289499990642 0.4606741573033708 0.35222276502198335
0.03368033600054332 0.45481191988275516 0.3776257938446508
0.03391103600006318 0.45481191988275516 0.4059599413776258
0.03414927199992235 0.457743038593063 0.43429408891060084
0.034359565001068404 0.45676599902296044 0.45969711773326827
0.03456189500138862 0.4528578407425501 0.486077186126038
0.034770594000292476 0.4479726428920372 0.5251587689301416
0.035013405002246145 0.44406448461162684 0.5593551538837322
0.03527095600293251 0.43624816805080613 0.5896433805569126
0.03548913700069534 0.43429408891060084 0.6042989741084515
0.03569276300186175 0.4284318514899854 0.6072300928187591
0.03589800000190735 0.4284318514899854 0.6013678553981436
0.036105459003010765 0.4284318514899854 0.5906204201270151
0.03633030700075324 0.4255007327796776 0.5798729848558866
0.036549877000652486 0.4235466536394723 0.5701025891548608
0.036751559000549605 0.4255007327796776 0.5642403517342451
0.03695994400186464 0.4303859306301905 0.5622862725940401
0.037192236002738355 0.43917928676111373 0.5564240351734244
0.03739665800094372 0.4352711284807034 0.5466536394723986
0.037604099001327995 0.43917928676111373 0.5378602833414754
0.0378092060018389 0.4450415241817294 0.5232046897899365
0.03800805500213755 0.4479726428920372 0.5026868588177822
0.038200644001335604 0.44894968246213973 0.48412310698583294
0.03839232500104117 0.4528578407425501 0.4684904738641915
0.03858421100085252 0.45676599902296044 0.4509037616023448
0.03877605900197523 0.4587200781631655 0.4323400097703958
0.038987425999948755 0.46262823644357587 0.4206155349291647
0.03918197800157941 0.46458231558378116 0.41182217879824123
0.03937441900052363 0.47435271128480694 0.40693698094772834
0.03956823000044096 0.48216902784562765 0.4040058622374205
0.03976200400211383 0.486077186126038 0.403028822667318
0.0399628160012071 0.4811919882755251 0.4108451392281387
0.040159905001928564 0.4763067904250122 0.4079140205178309
0.0403570859998581 0.47142159257449934 0.4049829018075233
0.040573471000243444 0.4636052760136786 0.40205178309721545
0.04081389299972216 0.457743038593063 0.3883732291157791
0.041076295001403196 0.4528578407425501 0.3883732291157791
0.04128447699986282 0.4509037616023448 0.39423546653639474
0.04151573200215353 0.44699560332193444 0.40693698094772834
0.04174380200129235 0.4479726428920372 0.4206155349291647
0.04199842700109002 0.45481191988275516 0.4284318514899854
0.04222799700073665 0.4528578407425501 0.43429408891060084
0.04246171500199125 0.4509037616023448 0.43722520762090866
0.042747136001707986 0.4528578407425501 0.43429408891060084
0.04297413200038136 0.4509037616023448 0.43429408891060084
0.04319509100241703 0.44699560332193444 0.4323400097703958
0.04340808699998888 0.4460185637518319 0.4264777723497801
0.04364339700259734 0.441133365901319 0.4255007327796776
0.04388589300288004 0.43722520762090866 0.42159257449926724
0.044121426002675435 0.43624816805080613 0.4235466536394723
0.044339736999972956 0.43624816805080613 0.42256961406936977
0.04458567700203275 0.4382022471910112 0.4235466536394723
0.04478459900201415 0.441133365901319 0.4040058622374205
0.04498198399960529 0.44699560332193444 0.3854421104054715
0.04517618400132051 0.44894968246213973 0.36003908158280407
0.04537436600003275 0.4528578407425501 0.34929164631167553
0.04557464000026812 0.45481191988275516 0.3434294088910601
0.04581806200076244 0.4479726428920372 0.3551538837322912
0.046034391001740005 0.44992672203224227 0.3786028334147533
0.046251794999989215 0.44699560332193444 0.40986809965803617
0.046454197999992175 0.4460185637518319 0.4303859306301905
0.04664717600098811 0.44992672203224227 0.4606741573033708
0.04684152499976335 0.4479726428920372 0.47923790913532005
0.04703976200107718 0.44992672203224227 0.5017098192476794
0.04723281400220003 0.44992672203224227 0.5144113336590133
0.047443755000131205 0.45481191988275516 0.5388373229115779
0.047660621003160486 0.4557889594528579 0.5446995603321934
0.04787619100170559 0.45481191988275516 0.5583781143136297
0.04810209500283236 0.457743038593063 0.5642403517342451
0.048336220002966 0.457743038593063 0.5632633121641426
0.04857814200295252 0.4587200781631655 0.5652173913043479
0.04880563700135099 0.4606741573033708 0.5603321934538348
0.0490266890010389 0.45969711773326827 0.5574010747435272
0.049262888001976535 0.4606741573033708 0.5544699560332194
0.04949094000039622 0.45969711773326827 0.5544699560332194
0.04972426899985294 0.457743038593063 0.5525158768930141
0.04994283900305163 0.457743038593063 0.5456765999022961
0.05026111100232811 0.4557889594528579 0.5388373229115779
0.050507218002167065 0.4557889594528579 0.522227650219834
0.05075082500115968 0.44894968246213973 0.4938935026868587
0.051006208999751834 0.4450415241817294 0.441133365901319
0.0512851480016252 0.4460185637518319 0.37469467513434296
0.051607235000119545 0.4509037616023448 0.33268197361993157
0.05188204500154825 0.4509037616023448 0.30727894479726436
0.05221818700010772 0.4538348803126526 0.31704934049829014
0.05250647800130537 0.45676599902296044 0.32681973619931615
0.05272915900059161 0.45969711773326827 0.33952125061064975
0.05296080300104222 0.4587200781631655 0.3551538837322912
0.05326392700226279 0.4557889594528579 0.37957987298485585
0.05354783000075258 0.4528578407425501 0.3952125061064973
0.05377988100008224 0.45481191988275516 0.4157303370786516
0.05404339500091737 0.4557889594528579 0.42745481191988266
0.05429307500162395 0.457743038593063 0.4303859306301905
0.05451733100198908 0.4557889594528579 0.42745481191988266
0.05484701000023051 0.4557889594528579 0.4235466536394723
0.05515402300079586 0.44894968246213973 0.42745481191988266
0.055384573999617714 0.44406448461162684 0.4264777723497801
0.055640292001044145 0.4430874450415241 0.43429408891060084
0.05593226800192497 0.441133365901319 0.44992672203224227
0.056240355002955766 0.4382022471910112 0.4684904738641915
0.05650173899994115 0.4430874450415241 0.486077186126038
0.056746827001916245 0.4352711284807034 0.495847581827064
0.056980286000907654 0.43624816805080613 0.5007327796775769
0.057220874001359334 0.4352711284807034 0.5007327796775769
0.057463944001938216 0.43429408891060084 0.5046409379579873
0.057726125000044703 0.4382022471910112 0.5075720566682951
0.05800526800157968 0.441133365901319 0.5056179775280898
0.05831072500222945 0.44406448461162684 0.5017098192476794
0.05860723800287815 0.44992672203224227 0.486077186126038
0.05889243700221414 0.45676599902296044 0.4763067904250122
0.059179839001444634 0.45676599902296044 0.4684904738641915
0.05943940799988923 0.45969711773326827 0.4665363947239862
0.05970386700209929 0.46262823644357587 0.4665363947239862
0.0599600100031239 0.4606741573033708 0.4655593551538837
0.06022100500194938 0.46458231558378116 0.4606741573033708
0.06049844500012114 0.4587200781631655 0.44992672203224227
0.0607566440012306 0.45481191988275516 0.43429408891060084
0.06108271199991577 0.4538348803126526 0.43429408891060084
0.06137365100221359 0.44992672203224227 0.4479726428920372
0.061653369000850944 0.44992672203224227 0.4684904738641915
0.06201749200045015 0.44406448461162684 0.5056179775280898
0.06248476100154221 0.441133365901319 0.5202735710796287
0.06280277400219347 0.441133365901319 0.5163654127992183
0.06307415800256422 0.441133365901319 0.5026868588177822
0.0633538750007574 0.44211040547142155 0.4782608695652173
0.06361929600097938 0.4430874450415241 0.4450415241817294
0.0639129570008663 0.44699560332193444 0.412799218368344
0.0641998600003717 0.4509037616023448 0.39228138739618945
0.06451459500021883 0.45481191988275516 0.3707865168539326
0.06500997500188532 0.4528578407425501 0.35710796287249624
0.06531396900027175 0.44894968246213973 0.35906204201270153
0.06572098000106052 0.44406448461162684 0.37274059599413767
0.0662136749997444 0.43722520762090866 0.3834880312652662
0.06647467000220786 0.43429408891060084 0.39423546653639474
0.0667164070000581 0.4401563263312165 0.4010747435271129
0.06693344000086654 0.441133365901319 0.41670737664875435
0.06721223100248608 0.44699560332193444 0.4264777723497801
0.06747081900175544 0.4509037616023448 0.44699560332193444
0.06773216600049636 0.44894968246213973 0.47142159257449934
0.06796673600183567 0.44894968246213973 0.4978016609672691
0.06818226900213631 0.44894968246213973 0.5319980459208598
0.0684264310002618 0.4509037616023448 0.5749877870053737
0.0686721120000584 0.4479726428920372 0.6287249633610161
0.06965389100150787 0.4479726428920372 0.6111382510991694
0.0699437190014578 0.4479726428920372 0.5798729848558866
0.0703671370029042 0.4509037616023448 0.5583781143136297
0.07063752100293641 0.44992672203224227 0.5329750854909623
0.07087131300067995 0.4528578407425501 0.5153883732291158
0.0711064940005599 0.4509037616023448 0.5026868588177822
0.07133567500204663 0.4528578407425501 0.4880312652662433
0.07154274600179633 0.45188080117244755 0.47435271128480694
0.07181159300307627 0.45188080117244755 0.4733756717147044
0.07204597700183513 0.45188080117244755 0.47142159257449934
0.07229369500055327 0.45676599902296044 0.4509037616023448
0.07256559800225659 0.4557889594528579 0.4186614557889594
0.07282918500277447 0.457743038593063 0.37176355642403514
0.07307899599982193 0.45676599902296044 0.33268197361993157
0.07332338000196614 0.4557889594528579 0.30923302393746943
0.07363574500050163 0.45481191988275516 0.303370786516854
0.07391633200313663 0.45481191988275516 0.31900341963849543
0.074276474002545 0.45188080117244755 0.32681973619931615
0.07453622899993206 0.4557889594528579 0.32975085490962375
0.07481263100271462 0.45676599902296044 0.3424523693209576
0.07509095900240936 0.457743038593063 0.358085002442599
0.07535067700155196 0.45676599902296044 0.3786028334147533
0.07570880000275793 0.4557889594528579 0.3981436248168051
0.07610714499969617 0.457743038593063 0.4079140205178309
0.07641641700320179 0.45481191988275516 0.40889106008793363
0.07669044900103472 0.4538348803126526 0.4157303370786516
0.07697675900271861 0.45676599902296044 0.4186614557889594
0.07726264200027799 0.45676599902296044 0.42452369320957506
0.07754139700045926 0.45676599902296044 0.4255007327796776
0.07800405500165652 0.4528578407425501 0.4284318514899854
0.07842460300162202 0.44992672203224227 0.4352711284807034
0.07871013499971014 0.44894968246213973 0.44699560332193444
0.0790077960009512 0.44406448461162684 0.4538348803126526
0.07929077200242318 0.441133365901319 0.4684904738641915
0.07958800800042809 0.4352711284807034 0.4782608695652173
0.08007170299970312 0.431362970200293 0.47142159257449934
0.08041214100012439 0.4352711284807034 0.457743038593063
0.0806957290005812 0.4401563263312165 0.4430874450415241
0.08094355700086453 0.4450415241817294 0.4333170493404983
0.08121183000184828 0.4460185637518319 0.42745481191988266
0.08145514100033324 0.45188080117244755 0.4264777723497801
0.08173535800233367 0.45188080117244755 0.42940889106008795
0.08210388800216606 0.4528578407425501 0.43624816805080613
0.08238130900281249 0.4528578407425501 0.4450415241817294
0.08259399100279552 0.4479726428920372 0.44894968246213973
0.08279189400127507 0.44992672203224227 0.457743038593063
0.0829924830031814 0.4460185637518319 0.46458231558378116
0.08319562800170388 0.4460185637518319 0.4753297508549097
0.08339408699976048 0.44699560332193444 0.47728382999511476
0.08362817600209382 0.4430874450415241 0.4753297508549097
0.08389089300180785 0.44406448461162684 0.46946751343429405
0.08408735299963155 0.4460185637518319 0.45969711773326827
0.08428603400170687 0.4450415241817294 0.4528578407425501
0.08448029000282986 0.4479726428920372 0.4479726428920372
0.08466958300050464 0.44894968246213973 0.44894968246213973
0.08485746800215566 0.4479726428920372 0.4509037616023448
0.08505033500114223 0.45188080117244755 0.45676599902296044
0.08523899800275103 0.44992672203224227 0.4655593551538837
0.08542721699996036 0.44992672203224227 0.4831460674157304
0.08561578800072311 0.4509037616023448 0.4909623839765511
0.0858121730016137 0.45188080117244755 0.49682462139716654
0.08601902100053849 0.4509037616023448 0.5065950170981925
0.08621096200295142 0.4509037616023448 0.5056179775280898
0.08640032900075312 0.4557889594528579 0.5036638983878847
0.0865884000013466 0.457743038593063 0.5007327796775769
0.08678893300020718 0.45969711773326827 0.49682462139716654
0.08698804100276902 0.4606741573033708 0.5026868588177822
0.08718551900165039 0.45969711773326827 0.5056179775280898
0.08737971899972763 0.45676599902296044 0.5065950170981925
0.08757488199989893 0.4557889594528579 0.5105031753786029
0.0877759530012554 0.45481191988275516 0.512457254518808
0.08796967099988251 0.45188080117244755 0.512457254518808
0.08818659300231957 0.4528578407425501 0.5144113336590133
0.08843936700213817 0.4509037616023448 0.5202735710796287
0.08869673200024408 0.4528578407425501 0.5153883732291158
0.0890052270005981 0.4460185637518319 0.5153883732291158
0.08924483400187455 0.4538348803126526 0.5036638983878847
0.08948329200211447 0.45481191988275516 0.48216902784562765
0.08975347200248507 0.4538348803126526 0.4557889594528579
0.09003206000124919 0.4528578407425501 0.42256961406936977
0.09028559299986227 0.45676599902296044 0.4040058622374205
0.09051270000054501 0.457743038593063 0.39228138739618945
0.09074151000095299 0.4557889594528579 0.37957987298485585
0.0910118940009852 0.46262823644357587 0.3659013190034197
0.09123916800308507 0.46165119687347334 0.35222276502198335
0.09143814600247424 0.46262823644357587 0.3424523693209576
0.09163686400279403 0.4587200781631655 0.33756717147044446
0.09184763800294604 0.45969711773326827 0.33952125061064975
0.09207015300125931 0.4606741573033708 0.34733756717147046
0.09230966700124554 0.45969711773326827 0.36003908158280407
0.09254377400066005 0.46458231558378116 0.3659013190034197
0.09278021400314174 0.46458231558378116 0.38153395212506114
0.09301378400050453 0.4665363947239862 0.3981436248168051
0.09321946500131162 0.4636052760136786 0.412799218368344
0.09342210999966483 0.46262823644357587 0.4323400097703958
0.09362390300157131 0.4606741573033708 0.4538348803126526
0.09383260300091933 0.4587200781631655 0.4811919882755251
0.09414337500129477 0.457743038593063 0.5046409379579873
0.094361037001363 0.4557889594528579 0.5183194919394236
0.09455481199984206 0.4528578407425501 0.5271128480703469
0.0947492900013458 0.45188080117244755 0.533952125061065
0.09494636000090395 0.44992672203224227 0.5398143624816805
0.09516020800219849 0.44894968246213973 0.5437225207620908
0.09539416700135916 0.44894968246213973 0.5446995603321934
0.09563014400191605 0.44894968246213973 0.5398143624816805
0.0959646570008772 0.44406448461162684 0.5368832437713726
0.09618044899980305 0.4479726428920372 0.5319980459208598
0.09638585300126579 0.4460185637518319 0.5280898876404494
0.09658925700205145 0.4509037616023448 0.5173424523693209
0.0967974380000669 0.4479726428920372 0.5105031753786029
0.09702495199962868 0.4460185637518319 0.4948705422569615
0.09725055899980362 0.4430874450415241 0.48216902784562765
0.09749014800036093 0.4450415241817294 0.47239863214460187
0.09777173499969649 0.4450415241817294 0.45188080117244755
0.0981323580017488 0.4430874450415241 0.44406448461162684
0.09841635300108464 0.43917928676111373 0.4382022471910112
0.0987088660003792 0.4352711284807034 0.4352711284807034
0.0989682690014888 0.43429408891060084 0.4323400097703958
0.09917822799980058 0.42256961406936977 0.42940889106008795
0.09937820600316627 0.42452369320957506 0.42452369320957506
0.09957679500075756 0.41182217879824123 0.42452369320957506
0.09980805000304827 0.40693698094772834 0.4206155349291647
0.1000080470003013 0.4059599413776258 0.4186614557889594
0.10021352400144679 0.4040058622374205 0.4157303370786516
0.10041768700102693 0.40205178309721545 0.4108451392281387
0.1006119800003944 0.4059599413776258 0.4108451392281387
0.10080229199957103 0.4040058622374205 0.4059599413776258
0.10099082500164513 0.4040058622374205 0.4049829018075233
0.10117804400215391 0.41475329750854906 0.4108451392281387
0.10136618900287431 0.40986809965803617 0.40986809965803617
0.10155351900175447 0.4157303370786516 0.4137762579384465
0.1017410340027709 0.4186614557889594 0.40889106008793363
0.10192841900061467 0.42159257449926724 0.403028822667318
0.10212230500110309 0.4284318514899854 0.39716658524670256
0.10231096800271189 0.43624816805080613 0.4010747435271129
0.10249844600184588 0.44406448461162684 0.403028822667318
0.10268592400097987 0.4528578407425501 0.40889106008793363
0.10287308800252504 0.4636052760136786 0.4186614557889594
0.10306117700019968 0.4704445530043966 0.4284318514899854
0.10324941400176613 0.4782608695652173 0.43722520762090866
0.10343774400098482 0.4938935026868587 0.4538348803126526
0.10362549999990733 0.5114802149487054 0.4538348803126526
0.10381247800251003 0.524181729360039 0.4509037616023448
0.1039996230028919 0.5300439667806547 0.45188080117244755
0.10418689700236428 0.5232046897899365 0.44211040547142155
0.10437413500039838 0.5144113336590133 0.4352711284807034
0.10456148299999768 0.5036638983878847 0.4264777723497801
0.10475114600194502 0.48900830483634583 0.4157303370786516
0.10497214200222516 0.47728382999511476 0.41475329750854906
0.10517334200267214 0.46946751343429405 0.40205178309721545
0.10536700600277982 0.46165119687347334 0.4079140205178309
0.10562757500156295 0.46262823644357587 0.4206155349291647
0.10583144200063543 0.46262823644357587 0.441133365901319
0.10609036300229491 0.4606741573033708 0.44992672203224227
0.10631211800136953 0.46946751343429405 0.467513434294089
0.10652985500200884 0.46262823644357587 0.4753297508549097
0.10675086900300812 0.4606741573033708 0.48900830483634583
0.1069767730004969 0.4528578407425501 0.49682462139716654
0.10719210200113594 0.44894968246213973 0.49682462139716654
0.10740670900122495 0.44699560332193444 0.4948705422569615
0.10762620500099729 0.44211040547142155 0.4909623839765511
0.10784644200248295 0.44211040547142155 0.4880312652662433
0.1080651049996959 0.4509037616023448 0.4753297508549097
0.1084173950002878 0.4538348803126526 0.4655593551538837
0.10870135300137918 0.45676599902296044 0.457743038593063
0.10897320000003674 0.457743038593063 0.46262823644357587
0.10925369500182569 0.457743038593063 0.46946751343429405
0.10951598600149737 0.4538348803126526 0.4880312652662433
0.1097942590022285 0.45676599902296044 0.4811919882755251
0.1102259729996149 0.45481191988275516 0.4763067904250122
0.11050767200140399 0.4538348803126526 0.4665363947239862
0.11072263100140844 0.4528578407425501 0.4538348803126526
0.11092646100223646 0.4528578407425501 0.4430874450415241
0.11113466100141522 0.4509037616023448 0.43429408891060084
0.11133058300038101 0.44894968246213973 0.4284318514899854
0.1115254870019271 0.44894968246213973 0.42452369320957506
0.11172950200125342 0.4460185637518319 0.42159257449926724
0.111987312000565 0.44406448461162684 0.4323400097703958
0.11227899200093816 0.44406448461162684 0.4323400097703958
0.11258854200059432 0.44211040547142155 0.4382022471910112
0.11293044299964095 0.4430874450415241 0.4401563263312165
0.11326910400021006 0.4460185637518319 0.43917928676111373
0.11358304200257408 0.44406448461162684 0.4401563263312165
0.1139088880008785 0.44406448461162684 0.441133365901319
0.11423917900174274 0.44406448461162684 0.4323400097703958
0.11451665500135277 0.4430874450415241 0.42452369320957506
0.11474426200220478 0.44992672203224227 0.41475329750854906
0.11497657300060382 0.4528578407425501 0.41670737664875435
0.11521469800209161 0.4587200781631655 0.4157303370786516
0.11544841599970823 0.46165119687347334 0.4235466536394723
0.11565550500017707 0.4606741573033708 0.4323400097703958
0.11584605700045358 0.457743038593063 0.441133365901319
0.11603677600214723 0.4528578407425501 0.4450415241817294
0.11622619800255052 0.44699560332193444 0.44992672203224227
0.11641439900267869 0.4450415241817294 0.45188080117244755
0.11660211799971876 0.44211040547142155 0.4557889594528579
0.11679704000198399 0.441133365901319 0.4606741573033708
0.11698807400171063 0.43917928676111373 0.4655593551538837
0.11717688499993528 0.4401563263312165 0.4704445530043966
0.11736454800120555 0.441133365901319 0.47435271128480694
0.11755276700205286 0.43624816805080613 0.4831460674157304
0.11774941200201283 0.4430874450415241 0.48998534440644836
0.11794027900032233 0.4430874450415241 0.4948705422569615
0.11818177399982233 0.4450415241817294 0.4948705422569615
0.11837082599959103 0.4460185637518319 0.5017098192476794
0.11858582300192211 0.4450415241817294 0.5085490962383976
0.11877422700126772 0.44699560332193444 0.5105031753786029
0.11896168600287638 0.4450415241817294 0.5134342940889105
0.11914957200133358 0.44211040547142155 0.5105031753786029
0.11933675300315372 0.4401563263312165 0.5036638983878847
0.11952450900207623 0.43917928676111373 0.4948705422569615
0.1197169870029029 0.441133365901319 0.4880312652662433
0.11990694700216409 0.441133365901319 0.4811919882755251
0.12009838800076977 0.44211040547142155 0.47239863214460187
0.12028944000121555 0.44992672203224227 0.47142159257449934
0.12047695500223199 0.4509037616023448 0.46458231558378116
0.12066491500081611 0.44992672203224227 0.4587200781631655
0.12085152200234006 0.4509037616023448 0.4557889594528579
0.12103901900263736 0.4557889594528579 0.4538348803126526
0.12122594200263848 0.4557889594528579 0.44699560332193444
0.1214127710009052 0.4538348803126526 0.4450415241817294
0.1215991760000179 0.4538348803126526 0.44992672203224227
0.12178713500179583 0.45481191988275516 0.4479726428920372
0.12199429800239159 0.45188080117244755 0.4528578407425501
0.122185239000828 0.44992672203224227 0.45481191988275516
0.12237301300046965 0.4479726428920372 0.4587200781631655
0.12256767700091586 0.44992672203224227 0.4636052760136786
0.12277341400113073 0.44992672203224227 0.45481191988275516
0.12297211400073138 0.45188080117244755 0.45481191988275516
0.12318440600211034 0.4460185637518319 0.4479726428920372
0.12340666100135422 0.44894968246213973 0.43624816805080613
0.1236063060023298 0.44894968246213973 0.4284318514899854
0.12382276500284206 0.45188080117244755 0.4255007327796776
0.12409711200234597 0.45188080117244755 0.4255007327796776
0.12430281200067839 0.4509037616023448 0.4323400097703958
0.12450221600010991 0.45676599902296044 0.4450415241817294
0.12470623100307421 0.4509037616023448 0.457743038593063
0.12491237500216812 0.44992672203224227 0.4704445530043966
0.1251263160011149 0.44894968246213973 0.4851001465559355
0.1253617190013756 0.44992672203224227 0.495847581827064
0.12557034500059672 0.44992672203224227 0.5017098192476794
0.12577795200195396 0.45188080117244755 0.5046409379579873
0.12601789200198255 0.44992672203224227 0.512457254518808
0.126221925002028 0.44894968246213973 0.5153883732291158
0.12643406999995932 0.4509037616023448 0.5212506106497312
0.12664460300220526 0.4528578407425501 0.524181729360039
0.12684272900150972 0.45188080117244755 0.5271128480703469
0.12705813300271984 0.4538348803126526 0.5251587689301416
0.12728861000141478 0.4479726428920372 0.5114802149487054
0.12749019900002168 0.45188080117244755 0.495847581827064
0.127707621002628 0.4538348803126526 0.4802149487054226
0.12793020900062402 0.4538348803126526 0.4557889594528579
0.12814726100259577 0.457743038593063 0.4352711284807034
0.1283428870010539 0.45969711773326827 0.41475329750854906
0.128532606002409 0.4587200781631655 0.3952125061064973
0.12872041700029513 0.46165119687347334 0.3786028334147533
0.12890819200038095 0.4636052760136786 0.3610161211529066
0.12909742900228593 0.4606741573033708 0.3512457254518808
0.12928536999970675 0.4636052760136786 0.3385442110405472
0.1294731630005117 0.4606741573033708 0.3258426966292134
0.12966271500044968 0.46165119687347334 0.31704934049829014
0.1298494340007892 0.4606741573033708 0.30923302393746943
0.1300861520030594 0.4587200781631655 0.3053248656570591
0.13027496300128405 0.45969711773326827 0.30727894479726436
0.13046240400217357 0.4587200781631655 0.30923302393746943
0.13065080800151918 0.457743038593063 0.31021006350757196
0.13083947199993418 0.46165119687347334 0.30923302393746943
0.13102669100044295 0.457743038593063 0.3150952613580851
0.13121376100025373 0.45676599902296044 0.3229115779189058
0.13140105400088942 0.45676599902296044 0.3356130923302394
0.1315927730029216 0.4538348803126526 0.35417684416218864
0.13178399200114654 0.44992672203224227 0.37274059599413767
0.1319725989997096 0.44699560332193444 0.3903273082559844
0.13216028100214317 0.44699560332193444 0.41182217879824123
0.1323477960031596 0.4450415241817294 0.4333170493404983
0.1325374970001576 0.44211040547142155 0.45481191988275516
0.13272534499992616 0.44211040547142155 0.4763067904250122
0.13291269399996963 0.44211040547142155 0.4909623839765511
0.13310020900098607 0.44211040547142155 0.5026868588177822
0.13328742800149485 0.43917928676111373 0.5105031753786029
0.1334748130029766 0.43917928676111373 0.5144113336590133
0.1336619020003127 0.43722520762090866 0.5163654127992183
0.13385054700120236 0.43624816805080613 0.5202735710796287
0.1340643950024969 0.43722520762090866 0.5212506106497312
0.13425187300163088 0.43624816805080613 0.5212506106497312
0.13444398100182298 0.43624816805080613 0.5251587689301416
0.13463242200305103 0.43917928676111373 0.5202735710796287
0.13482073300110642 0.43917928676111373 0.5202735710796287
0.1350079710027785 0.441133365901319 0.5144113336590133
0.13519672600159538 0.44699560332193444 0.5153883732291158
0.13538442700155429 0.4479726428920372 0.5202735710796287
0.13561481100259698 0.4538348803126526 0.5280898876404494
0.13580462300160434 0.457743038593063 0.5310210063507572
0.13599413799965987 0.46262823644357587 0.533952125061065
0.1361824310006341 0.467513434294089 0.533952125061065
0.1363704650029831 0.47239863214460187 0.5329750854909623
0.1365743679998559 0.4753297508549097 0.5271128480703469
0.13676438300171867 0.47728382999511476 0.5173424523693209
0.1369589910027571 0.46946751343429405 0.5046409379579873
0.13715676500214613 0.46458231558378116 0.4929164631167562
0.13735946500310092 0.4587200781631655 0.48216902784562765
0.13758318300097017 0.4509037616023448 0.47435271128480694
0.13778512400313048 0.44406448461162684 0.4704445530043966
0.1380180090018257 0.43917928676111373 0.4763067904250122
0.13823056100227404 0.43429408891060084 0.4733756717147044
0.1384299090022978 0.4352711284807034 0.4802149487054226
0.13862562800204614 0.43722520762090866 0.4811919882755251
0.1388557900027081 0.43429408891060084 0.48216902784562765
0.13911656300115283 0.4382022471910112 0.4782608695652173
0.1393674290011404 0.43917928676111373 0.47239863214460187
0.13963366500320262 0.44211040547142155 0.46458231558378116
0.13988647500082152 0.44699560332193444 0.457743038593063
0.14014354500250192 0.4479726428920372 0.4450415241817294
0.14038352200077497 0.4460185637518319 0.4352711284807034
0.14063081400308874 0.44699560332193444 0.42452369320957506
0.1408685130008962 0.4450415241817294 0.40986809965803617
0.14114636000158498 0.44699560332193444 0.3981436248168051
0.14141922500130022 0.4460185637518319 0.3854421104054715
0.14168686900302419 0.4450415241817294 0.3786028334147533
0.14203280700166943 0.44894968246213973 0.38153395212506114
0.14232741300293128 0.44699560332193444 0.39228138739618945
0.14258444500228507 0.44894968246213973 0.4059599413776258
0.14283284799967078 0.4479726428920372 0.41182217879824123
0.14304549200096517 0.44699560332193444 0.42159257449926724
0.14326458100185846 0.45188080117244755 0.4323400097703958
0.14347450300192577 0.4528578407425501 0.43917928676111373
0.14367933300309232 0.4538348803126526 0.45188080117244755
0.14387807000093744 0.4557889594528579 0.45676599902296044
0.1440705480017641 0.4528578407425501 0.4557889594528579
0.14427169200280332 0.4557889594528579 0.4557889594528579
0.14449815100306296 0.4538348803126526 0.44894968246213973
0.14473564700165298 0.4538348803126526 0.44406448461162684
0.1449563650021446 0.4538348803126526 0.44894968246213973
0.14519810100318864 0.45188080117244755 0.4509037616023448
0.14540250500067486 0.4557889594528579 0.457743038593063
0.14560766800059355 0.4557889594528579 0.467513434294089
0.14582001600138028 0.45481191988275516 0.4733756717147044
0.14603988300223136 0.4587200781631655 0.4782608695652173
0.14625704500213033 0.457743038593063 0.4684904738641915
0.146484060001967 0.4587200781631655 0.4655593551538837
0.14670896300231107 0.4587200781631655 0.4606741573033708
0.14693295899996883 0.4557889594528579 0.4557889594528579
0.14714193700274336 0.44992672203224227 0.45481191988275516
0.1473476920000394 0.4460185637518319 0.45481191988275516
0.1475562630002969 0.4430874450415241 0.45676599902296044
0.1477620370023942 0.4430874450415241 0.4665363947239862
0.14796760700119194 0.4460185637518319 0.46262823644357587
0.1481756960019993 0.4479726428920372 0.46946751343429405
0.14837821100081783 0.45969711773326827 0.467513434294089
0.14861616900088848 0.467513434294089 0.4655593551538837
0.1488699430010456 0.467513434294089 0.4655593551538837
0.1490947900019819 0.46458231558378116 0.4636052760136786
0.1492903610014764 0.4636052760136786 0.46165119687347334
0.14948578300027293 0.45676599902296044 0.4557889594528579
0.14968237200082513 0.45481191988275516 0.44992672203224227
0.14987446200029808 0.45481191988275516 0.43429408891060084
0.15011138300178573 0.4557889594528579 0.4255007327796776
0.1503019170013431 0.4528578407425501 0.412799218368344
0.15050520899967523 0.4479726428920372 0.4049829018075233
0.15071490900299978 0.45188080117244755 0.39228138739618945
0.15095744200152694 0.44992672203224227 0.38251099169516367
0.15117943800214562 0.45188080117244755 0.3756717147044455
0.15140976700058673 0.44699560332193444 0.3756717147044455
0.15167574400038575 0.45188080117244755 0.38935026868588185
0.15190944300047704 0.4538348803126526 0.40009770395701016
0.15215199399972335 0.44894968246213973 0.4186614557889594
0.15243695200115326 0.44992672203224227 0.4284318514899854
0.15272761400046875 0.4479726428920372 0.42940889106008795
0.15305116300078225 0.4460185637518319 0.43429408891060084
0.1532942890007689 0.4450415241817294 0.4333170493404983
0.15351441399980104 0.44699560332193444 0.441133365901319
0.15378372400300577 0.44894968246213973 0.44894968246213973
0.15403107200108934 0.4460185637518319 0.46165119687347334
0.15422921600111295 0.44992672203224227 0.46946751343429405
0.15441975000067032 0.44699560332193444 0.4763067904250122
0.15464202400107752 0.44699560332193444 0.4753297508549097
0.15483153900277102 0.44699560332193444 0.4733756717147044
0.15501883199976874 0.44699560332193444 0.46458231558378116
0.15521021700260462 0.4460185637518319 0.4606741573033708
0.15539799100224627 0.4460185637518319 0.44992672203224227
0.15558515500015346 0.4460185637518319 0.44406448461162684
0.15577300299992203 0.4450415241817294 0.441133365901319
0.15596101800110773 0.44211040547142155 0.43624816805080613
0.15614868200282217 0.4460185637518319 0.42256961406936977
0.15633749300104682 0.4430874450415241 0.4186614557889594
0.1565299710018735 0.4430874450415241 0.4235466536394723
0.15673130100185517 0.441133365901319 0.4264777723497801
0.15696425900023314 0.44211040547142155 0.4401563263312165
0.15719370000078925 0.441133365901319 0.4538348803126526
0.1573964369999885 0.441133365901319 0.4655593551538837
0.1575850450026337 0.43917928676111373 0.4733756717147044
0.15777452300244477 0.4382022471910112 0.47923790913532005
0.15801462899980834 0.44992672203224227 0.4880312652662433
0.15820760700080427 0.44211040547142155 0.495847581827064
0.15839566000067862 0.4401563263312165 0.495847581827064
0.15858343400032027 0.44211040547142155 0.49877870053737183
0.158770819001802 0.44211040547142155 0.49975574010747437
0.1589607790010632 0.44699560332193444 0.5007327796775769
0.15914951600279892 0.4460185637518319 0.5075720566682951
0.15933719800159452 0.4460185637518319 0.5153883732291158
0.15952473200013628 0.44699560332193444 0.5280898876404494
0.1597120430014911 0.44699560332193444 0.5378602833414754
0.1599001880022115 0.4450415241817294 0.5476306790425012
0.16008799900009762 0.4460185637518319 0.550561797752809
0.16027627400035271 0.4460185637518319 0.550561797752809
0.16046410400304012 0.4450415241817294 0.5437225207620908
0.16065239700037637 0.4450415241817294 0.5290669272105519
0.16083930100285215 0.44211040547142155 0.5144113336590133
0.16102844499982893 0.44406448461162684 0.4978016609672691
0.16121649799970328 0.4450415241817294 0.47923790913532005
0.16140443900076207 0.4450415241817294 0.4636052760136786
0.1615951200001291 0.4460185637518319 0.45188080117244755
0.1617827469999611 0.4479726428920372 0.44211040547142155
0.1619840950006619 0.44699560332193444 0.43722520762090866
0.16217442500055768 0.4479726428920372 0.43722520762090866
0.1623622549996071 0.44992672203224227 0.43917928676111373
0.16254989899971406 0.4538348803126526 0.4382022471910112
0.16273837799963076 0.4538348803126526 0.4430874450415241
0.16294911400109413 0.4557889594528579 0.44211040547142155
0.16313733300194144 0.45676599902296044 0.44699560332193444
0.1633286450014566 0.45676599902296044 0.4460185637518319
0.16351651200238848 0.4587200781631655 0.4479726428920372
0.16370402699976694 0.457743038593063 0.4460185637518319
0.16389139400052954 0.4606741573033708 0.4509037616023448
0.16408922300252016 0.457743038593063 0.4528578407425501
0.16427692400247906 0.45969711773326827 0.4606741573033708
0.1644645690030302 0.46165119687347334 0.4528578407425501
0.164652510000451 0.4655593551538837 0.44699560332193444
0.1648401910024404 0.46165119687347334 0.441133365901319
0.16502796600252623 0.46165119687347334 0.43624816805080613
0.1652161480014911 0.4606741573033708 0.431362970200293
0.16540475500005414 0.46262823644357587 0.4284318514899854
0.16559286300253007 0.46165119687347334 0.4255007327796776
0.16578113700234098 0.46165119687347334 0.4284318514899854
0.1659808750009688 0.46165119687347334 0.431362970200293
0.1661701860030007 0.457743038593063 0.431362970200293
0.16635853400293854 0.457743038593063 0.43917928676111373
0.166546198001015 0.4528578407425501 0.43917928676111373
0.1667335460006143 0.44992672203224227 0.4430874450415241
0.16692608000084874 0.4450415241817294 0.44894968246213973
0.16712792800171883 0.44211040547142155 0.44992672203224227
0.1673219610020169 0.4382022471910112 0.45481191988275516
0.1675104950008972 0.4382022471910112 0.4587200781631655
0.16769901000225218 0.43624816805080613 0.4733756717147044
0.16789389600307913 0.43429408891060084 0.48412310698583294
0.16808274400318624 0.4323400097703958 0.49682462139716654
0.1682702040016011 0.4333170493404983 0.5046409379579873
0.1684577000014542 0.43429408891060084 0.5095261358085001
0.16864767800143454 0.43429408891060084 0.5085490962383976
0.1688356560007378 0.43722520762090866 0.5114802149487054
0.16902417100209277 0.4382022471910112 0.5065950170981925
0.1692151310016925 0.43917928676111373 0.5017098192476794
0.1694043130009959 0.43917928676111373 0.48998534440644836
0.16962377200252376 0.43722520762090866 0.47923790913532005
0.16981812000085483 0.43917928676111373 0.467513434294089
0.1700299130025087 0.441133365901319 0.4587200781631655
0.1702293529997405 0.4460185637518319 0.4509037616023448
0.17042457200295758 0.4479726428920372 0.4528578407425501
0.1706317910029611 0.4538348803126526 0.4479726428920372
0.1708559350008727 0.4587200781631655 0.44894968246213973
0.17105978300241986 0.46262823644357587 0.4528578407425501
0.1713300560004427 0.4753297508549097 0.45188080117244755
0.17154425600165268 0.48705422569614076 0.4460185637518319
0.17175778900127625 0.48900830483634583 0.4450415241817294
0.17196478500045487 0.4880312652662433 0.4450415241817294
0.17217383699971833 0.4802149487054226 0.44406448461162684
0.1723778890009271 0.47923790913532005 0.43429408891060084
0.17260019999957876 0.46946751343429405 0.4323400097703958
0.1727991400002793 0.4636052760136786 0.41963849535906195
0.17302398800165975 0.457743038593063 0.40009770395701016
0.17321929900208488 0.4538348803126526 0.38935026868588185
0.17341177700291155 0.44992672203224227 0.37957987298485585
0.17361131100187777 0.44992672203224227 0.37469467513434296
0.17382510300012655 0.44894968246213973 0.37957987298485585
0.17413567200128455 0.4557889594528579 0.39716658524670256
0.17440872200313606 0.46458231558378116 0.4255007327796776
0.17465331100174808 0.467513434294089 0.4450415241817294
0.17487388100198586 0.47142159257449934 0.46262823644357587
0.17507639600080438 0.4636052760136786 0.46946751343429405
0.17527561400129343 0.45676599902296044 0.46946751343429405
0.17547483300222666 0.45188080117244755 0.4606741573033708
0.17567399600011413 0.44992672203224227 0.4479726428920372
0.1758749370019359 0.44211040547142155 0.4333170493404983
0.17609291400003713 0.43917928676111373 0.4264777723497801
0.1763117990012688 0.4401563263312165 0.41182217879824123
0.1765431650019309 0.43917928676111373 0.4040058622374205
0.1768467710026016 0.4401563263312165 0.4040058622374205
0.1771512100021937 0.441133365901319 0.4186614557889594
0.17750436999995145 0.44211040547142155 0.4352711284807034
0.1778442350005207 0.43722520762090866 0.4636052760136786
0.17817950600147014 0.43429408891060084 0.486077186126038
0.17846768600065843 0.43429408891060084 0.4978016609672691
0.17874208899957011 0.43429408891060084 0.48998534440644836
0.17900560199996107 0.4352711284807034 0.4802149487054226
0.1792529310005193 0.43917928676111373 0.47239863214460187
0.17945946500185528 0.4401563263312165 0.4684904738641915
0.17966149800122366 0.43917928676111373 0.467513434294089
0.17986880900207325 0.4401563263312165 0.47239863214460187
0.18008073100281763 0.43722520762090866 0.46946751343429405
0.18031165300271823 0.431362970200293 0.47142159257449934
0.18053970400069375 0.4264777723497801 0.4684904738641915
0.1807487010009936 0.4264777723497801 0.46946751343429405
0.18093856800260255 0.4303859306301905 0.4636052760136786
0.18115113800013205 0.4303859306301905 0.4450415241817294
0.18134113400083152 0.4352711284807034 0.44211040547142155
0.1815286870005366 0.43624816805080613 0.4303859306301905
0.181716368002526 0.4382022471910112 0.4303859306301905
0.1819055690029927 0.43917928676111373 0.4206155349291647
0.18213765700056683 0.43917928676111373 0.42256961406936977
0.18232670900033554 0.4382022471910112 0.4235466536394723
0.18251479800164816 0.431362970200293 0.42940889106008795
0.18270229500194546 0.4333170493404983 0.43624816805080613
0.18288984700120636 0.4323400097703958 0.44406448461162684
0.18307793600251898 0.43917928676111373 0.4479726428920372
0.1832656920014415 0.44211040547142155 0.4606741573033708
0.18345346700152732 0.4382022471910112 0.46458231558378116
0.18364066700087278 0.44894968246213973 0.4665363947239862
0.18382786700021825 0.4538348803126526 0.467513434294089
0.18401582700244035 0.4606741573033708 0.467513434294089
0.18420389800303383 0.46946751343429405 0.46458231558378116
0.18439159800254856 0.48216902784562765 0.4528578407425501
0.18457900200155564 0.49682462139716654 0.4401563263312165
0.1847666650028259 0.5056179775280898 0.4284318514899854
0.1849536250010715 0.5065950170981925 0.42159257449926724
0.18514402900109417 0.5026868588177822 0.41475329750854906
0.18533411800308386 0.49682462139716654 0.4157303370786516
0.1855218180025986 0.48900830483634583 0.4206155349291647
0.1857097040010558 0.48216902784562765 0.4206155349291647
0.18589681100274902 0.4763067904250122 0.4235466536394723
0.18608662300175638 0.4704445530043966 0.42452369320957506
0.18627476800247678 0.4655593551538837 0.42745481191988266
0.18646183800228755 0.46165119687347334 0.4284318514899854
0.1866513720015064 0.46262823644357587 0.4264777723497801
0.1868384800000058 0.45969711773326827 0.42745481191988266
0.18702640199990128 0.46262823644357587 0.4206155349291647
0.18721454700062168 0.46165119687347334 0.4108451392281387
0.18740206200163811 0.4606741573033708 0.39912066438690763
0.18758957700265455 0.45969711773326827 0.38641914997557403
0.18777724000028684 0.46165119687347334 0.3786028334147533
0.18796442200255115 0.4528578407425501 0.3737176355642404
0.18815203000121983 0.45481191988275516 0.3737176355642404
0.1883391190021939 0.4509037616023448 0.3737176355642404
0.18852918999982649 0.4460185637518319 0.3854421104054715
0.1887211120010761 0.441133365901319 0.39716658524670256
0.18891934900238994 0.4382022471910112 0.412799218368344
0.18917473400142626 0.4352711284807034 0.42745481191988266
0.18939235899961204 0.43722520762090866 0.441133365901319
0.18959357800122234 0.4382022471910112 0.4382022471910112
0.18978900000001886 0.44894968246213973 0.43624816805080613
0.19001042200034135 0.4430874450415241 0.4333170493404983
0.1902027710020775 0.441133365901319 0.441133365901319
0.1904123599997547 0.44406448461162684 0.44406448461162684
0.19060254100259044 0.4450415241817294 0.4538348803126526
0.19079313000111142 0.4430874450415241 0.4684904738641915
0.19098227500217035 0.4450415241817294 0.47142159257449934
0.19116993799980264 0.44894968246213973 0.4831460674157304
0.19135902800189797 0.44992672203224227 0.49193942354665365
0.19154722800158197 0.4528578407425501 0.49877870053737183
0.1917348540009698 0.4557889594528579 0.512457254518808
0.19192218399984995 0.45969711773326827 0.5183194919394236
0.19211216199983028 0.46262823644357587 0.5280898876404494
0.19229952900059288 0.46946751343429405 0.5388373229115779
0.19248767400131328 0.4753297508549097 0.5437225207620908
0.1926777080007014 0.48216902784562765 0.5466536394723986
0.19286583400025847 0.48216902784562765 0.5446995603321934
0.19306370100093773 0.48216902784562765 0.540791402051783
0.1932537710017641 0.47923790913532005 0.5319980459208598
0.19344160100081353 0.47239863214460187 0.5192965315095261
0.19363054200221086 0.4655593551538837 0.5056179775280898
0.19381870500001241 0.45969711773326827 0.4929164631167562
0.1940082210021501 0.45481191988275516 0.4831460674157304
0.19419721700251102 0.45481191988275516 0.4733756717147044
0.1943848060000164 0.44992672203224227 0.4636052760136786
0.19457389600211172 0.45188080117244755 0.4538348803126526
0.19476141100312816 0.45188080117244755 0.4479726428920372
0.1949491850027698 0.44894968246213973 0.44406448461162684
0.1951377190016501 0.4460185637518319 0.441133365901319
0.19532538200292038 0.4460185637518319 0.43624816805080613
0.19551311900067958 0.4479726428920372 0.42940889106008795
0.19570182000097702 0.44894968246213973 0.41182217879824123
0.19588927900258568 0.44894968246213973 0.4049829018075233
0.19607749799979501 0.44699560332193444 0.3903273082559844
0.19626508700093837 0.4430874450415241 0.3805569125549584
0.19645238000157406 0.4450415241817294 0.37274059599413767
0.19664046900288668 0.4460185637518319 0.3688324377137273
0.19682883600034984 0.4430874450415241 0.36003908158280407
0.1970167590006895 0.44406448461162684 0.35710796287249624
0.1972054220022983 0.4430874450415241 0.3610161211529066
0.19741282600080012 0.44211040547142155 0.36492427943331696
0.19760104500164744 0.44211040547142155 0.3756717147044455
0.19778874500116217 0.44211040547142155 0.38739618954567656
0.198002463002922 0.441133365901319 0.40693698094772834
0.19819207100226777 0.44211040547142155 0.4255007327796776
0.19838053100102115 0.44211040547142155 0.441133365901319
0.1985674530005781 0.44211040547142155 0.4587200781631655
0.1987558020009601 0.44211040547142155 0.4753297508549097
0.19894342800034792 0.4401563263312165 0.48900830483634583
0.19913057300072978 0.44894968246213973 0.5046409379579873
0.1993181249999907 0.44699560332193444 0.5153883732291158
0.19950684400100727 0.44211040547142155 0.5271128480703469
0.19969774800119922 0.4450415241817294 0.5359062042012701
0.19988539200130617 0.44894968246213973 0.5300439667806547
0.2000739440009056 0.45188080117244755 0.5300439667806547
0.2002616259997012 0.44894968246213973 0.5202735710796287
0.2004496970002947 0.4460185637518319 0.5105031753786029
0.2006373229996825 0.4430874450415241 0.49877870053737183
0.20082483800069895 0.4460185637518319 0.48705422569614076
0.20101261300078477 0.4450415241817294 0.4802149487054226
0.20120038700042642 0.44406448461162684 0.47239863214460187
0.20138795800085063 0.44406448461162684 0.4655593551538837
0.20162539800003287 0.44406448461162684 0.4587200781631655
0.20182504200056428 0.44211040547142155 0.44699560332193444
0.20203324199974304 0.441133365901319 0.43917928676111373
0.20223551700109965 0.43917928676111373 0.4284318514899854
0.20243086499976926 0.4460185637518319 0.42745481191988266
0.2026518610000494 0.44406448461162684 0.4255007327796776
0.20285139400220942 0.44699560332193444 0.4255007327796776
0.2030573350020859 0.4430874450415241 0.4255007327796776
0.20326351600306225 0.4430874450415241 0.42745481191988266
0.203482957000233 0.44406448461162684 0.4333170493404983
0.203734341001109 0.44406448461162684 0.4352711284807034
0.2039624110002478 0.44406448461162684 0.441133365901319
0.2041764260029595 0.44894968246213973 0.45188080117244755
0.20438040400040336 0.44992672203224227 0.4557889594528579
0.20457664100104012 0.4509037616023448 0.457743038593063
0.20477898900207947 0.45188080117244755 0.4587200781631655
0.20498481899994658 0.45188080117244755 0.4557889594528579
0.20518724100111285 0.4538348803126526 0.45188080117244755
0.20538299700274365 0.45481191988275516 0.44992672203224227
0.2055827340009273 0.457743038593063 0.441133365901319
0.2057846750030876 0.45676599902296044 0.4333170493404983
0.2060957989997405 0.46262823644357587 0.42745481191988266
0.2063341280008899 0.46165119687347334 0.42159257449926724
0.20654947600269224 0.46262823644357587 0.4235466536394723
0.20676571300282376 0.4636052760136786 0.4255007327796776
0.20698287500272272 0.46262823644357587 0.43722520762090866
0.2072067050030455 0.45969711773326827 0.44894968246213973
0.2074096450014622 0.4606741573033708 0.4684904738641915
0.20760743800201453 0.457743038593063 0.4831460674157304
0.20781262000309653 0.45969711773326827 0.49877870053737183
0.20801287500216858 0.457743038593063 0.5065950170981925
0.20821902000170667 0.457743038593063 0.5105031753786029
0.2084165900014341 0.46165119687347334 0.5134342940889105
0.20861042000251473 0.45969711773326827 0.5251587689301416
0.20881228700091015 0.45969711773326827 0.5349291646311676
0.20900113500101725 0.457743038593063 0.5446995603321934
0.20918946500023594 0.457743038593063 0.5554469956033219
0.20937729500292335 0.4557889594528579 0.5583781143136297
0.20958901300036814 0.45481191988275516 0.5603321934538348
0.20978062100039097 0.4528578407425501 0.5593551538837322
0.20999074700011988 0.4509037616023448 0.5534929164631168
0.21018239200202515 0.4528578407425501 0.5437225207620908
0.2103700360021321 0.45188080117244755 0.5378602833414754
0.21055723700192175 0.4509037616023448 0.5290669272105519
0.210756141001184 0.4528578407425501 0.5144113336590133
0.21095358100137673 0.4479726428920372 0.49975574010747437
0.2111554850016546 0.4479726428920372 0.4811919882755251
0.21135257400237606 0.45188080117244755 0.457743038593063
0.21155099700263236 0.4460185637518319 0.4284318514899854
0.21174599300138652 0.44992672203224227 0.403028822667318
0.21194782300153747 0.44992672203224227 0.38251099169516367
0.21214472700012266 0.44699560332193444 0.35710796287249624
0.2123470010010351 0.4509037616023448 0.3424523693209576
0.2125522380010807 0.4587200781631655 0.3336590131900341
0.21276897500138148 0.4479726428920372 0.33463605276013686
0.21301730300183408 0.4460185637518319 0.3336590131900341
0.21324852100224234 0.4450415241817294 0.3365901319003419
0.21348340600161464 0.44406448461162684 0.3434294088910601
0.21369738400244387 0.44699560332193444 0.3531998045920859
0.21389960200031055 0.441133365901319 0.3629702002931119
0.21411069100213354 0.44211040547142155 0.3639472398632144
0.21430755800247425 0.4430874450415241 0.3678553981436248
0.21453007200034335 0.4509037616023448 0.37176355642403514
0.21480825300022843 0.45969711773326827 0.3688324377137273
0.21503754500008654 0.46165119687347334 0.38153395212506114
0.2152422450017184 0.46262823644357587 0.37957987298485585
0.21544574099971214 0.457743038593063 0.39423546653639474
0.2156559590002871 0.4528578407425501 0.40693698094772834
0.21586901100090472 0.4509037616023448 0.42745481191988266
0.21615676500005065 0.441133365901319 0.4479726428920372
0.2163898720027646 0.44406448461162684 0.467513434294089
0.21660403500209213 0.441133365901319 0.47923790913532005
0.21681080900089 0.44406448461162684 0.48900830483634583
0.21702080500108423 0.4401563263312165 0.495847581827064
0.21721463500216487 0.441133365901319 0.49877870053737183
0.21740939099981915 0.441133365901319 0.5026868588177822
0.21761175800202182 0.441133365901319 0.5046409379579873
0.21780693900291226 0.4430874450415241 0.5173424523693209
0.2180258610023884 0.4450415241817294 0.5163654127992183
0.2182443020028586 0.44406448461162684 0.5105031753786029
0.21851146400149446 0.44406448461162684 0.5036638983878847
0.21870077499988838 0.4430874450415241 0.5007327796775769
0.2188901600020472 0.4450415241817294 0.5007327796775769
0.2190783790028945 0.44406448461162684 0.5036638983878847
0.2192659310021554 0.43917928676111373 0.512457254518808
0.219453613000951 0.4382022471910112 0.5212506106497312
0.21964136899987352 0.4401563263312165 0.5212506106497312
0.2199672520000604 0.441133365901319 0.512457254518808
0.22015706300226157 0.441133365901319 0.5046409379579873
0.22034452300067642 0.4430874450415241 0.49975574010747437
0.22053433400287759 0.4450415241817294 0.4938935026868587
0.2207216269998753 0.4450415241817294 0.4938935026868587
0.22091079100209754 0.4460185637518319 0.4880312652662433
0.22109847200044896 0.44699560332193444 0.4851001465559355
0.22128635800254415 0.4479726428920372 0.4782608695652173
0.22147416900043027 0.44992672203224227 0.46262823644357587
0.22168348000195692 0.4528578407425501 0.4538348803126526
0.22187488400231814 0.45188080117244755 0.4430874450415241
0.22209652800302138 0.45676599902296044 0.43722520762090866
0.22228519200143637 0.4528578407425501 0.42940889106008795
0.22247283600154333 0.457743038593063 0.42159257449926724
0.2226616850020946 0.457743038593063 0.41475329750854906
0.22285733000171604 0.45676599902296044 0.41475329750854906
0.22304573400106165 0.45676599902296044 0.41670737664875435
0.22323391499958234 0.45481191988275516 0.4157303370786516
0.22344602300290717 0.45481191988275516 0.41670737664875435
0.22363744500034954 0.4538348803126526 0.4137762579384465
0.22383221900236094 0.45188080117244755 0.4176844162188569
0.2240439930028515 0.4538348803126526 0.4206155349291647
0.2242618410018622 0.45676599902296044 0.4186614557889594
0.22445202300150413 0.45676599902296044 0.4264777723497801
0.22464050100097666 0.4557889594528579 0.42745481191988266
0.2248295900026278 0.4557889594528579 0.42745481191988266
0.22501910500068334 0.45188080117244755 0.4284318514899854
0.22520700899985968 0.44992672203224227 0.4255007327796776
0.225395228000707 0.44992672203224227 0.4206155349291647
0.22558300300079281 0.44992672203224227 0.4157303370786516
0.22577083200303605 0.4528578407425501 0.41475329750854906
0.22598629200001596 0.4557889594528579 0.412799218368344
0.22620534300222062 0.46262823644357587 0.4186614557889594
0.22639611799968407 0.4557889594528579 0.42256961406936977
0.22658442900137743 0.45969711773326827 0.4323400097703958
0.226773148002394 0.4557889594528579 0.441133365901319
0.22696040400114725 0.4557889594528579 0.45676599902296044
0.22714780800015433 0.4557889594528579 0.45969711773326827
0.22733476700159372 0.4538348803126526 0.46946751343429405
0.22752246800155262 0.4557889594528579 0.47728382999511476
0.22771107500011567 0.4538348803126526 0.486077186126038
0.22789829400062445 0.4557889594528579 0.4909623839765511
0.22808534599971608 0.4557889594528579 0.4948705422569615
0.22827286100073252 0.457743038593063 0.4948705422569615
0.22846043200115673 0.45481191988275516 0.4938935026868587
0.22864863200084073 0.45481191988275516 0.495847581827064
0.22886175800158526 0.45481191988275516 0.49877870053737183
0.2290525330026867 0.45481191988275516 0.4978016609672691
0.22924017700279364 0.4587200781631655 0.4978016609672691
0.22942760000296403 0.45676599902296044 0.49975574010747437
0.22964533699996537 0.4587200781631655 0.4978016609672691
0.22983270400072797 0.4587200781631655 0.4909623839765511
0.23002210800041212 0.457743038593063 0.4880312652662433
0.23021197500202106 0.46165119687347334 0.4802149487054226
0.230399211999611 0.45676599902296044 0.4782608695652173
0.23058669000238297 0.4557889594528579 0.4802149487054226
0.2307747790000576 0.45481191988275516 0.48216902784562765
0.23096216500198352 0.4528578407425501 0.48900830483634583
0.23114971700124443 0.4538348803126526 0.5017098192476794
0.2313375840021763 0.44992672203224227 0.5065950170981925
0.23152548800135264 0.44699560332193444 0.5046409379579873
0.2317265950005094 0.44894968246213973 0.5095261358085001
0.23191464800038375 0.4460185637518319 0.5046409379579873
0.2321017739996023 0.44992672203224227 0.49877870053737183
0.23228925200237427 0.4479726428920372 0.48998534440644836
0.23247730400180444 0.44699560332193444 0.4753297508549097
0.23266498600060004 0.4479726428920372 0.46262823644357587
0.23285274200316053 0.44699560332193444 0.44406448461162684
0.23304018300041207 0.4479726428920372 0.4284318514899854
0.23322727200138615 0.4479726428920372 0.412799218368344
0.23341480599992792 0.4479726428920372 0.40009770395701016
0.23363859800156206 0.4460185637518319 0.37957987298485585
0.23384422399976756 0.44406448461162684 0.3639472398632144
0.23411925600157701 0.44406448461162684 0.3531998045920859
0.23433945600118022 0.44406448461162684 0.3424523693209576
0.23455469200052903 0.4430874450415241 0.3277967757694187
0.2347508189996006 0.44406448461162684 0.3229115779189058
0.23494713000036427 0.4430874450415241 0.31998045920859797
0.23514116300066235 0.4460185637518319 0.31704934049829014
0.23534064100022078 0.44699560332193444 0.3180263800683927
0.23553902700223261 0.4479726428920372 0.3238886174890083
0.23573505999956978 0.44699560332193444 0.33170493404982904
0.23594887100261985 0.4479726428920372 0.33952125061064975
0.23615833000076236 0.44699560332193444 0.34733756717147046
0.23634719700203277 0.44894968246213973 0.3561309233023937
0.23653612000271096 0.4479726428920372 0.3688324377137273
0.2367249310009356 0.4479726428920372 0.3854421104054715
0.23691568700087373 0.44699560332193444 0.40205178309721545
0.23710338700038847 0.4430874450415241 0.4186614557889594
0.2372916800013627 0.4430874450415241 0.4323400097703958
0.23747949199969298 0.44211040547142155 0.44406448461162684
0.23766730300121708 0.4401563263312165 0.4538348803126526
0.23785491099988576 0.44211040547142155 0.4665363947239862
0.23808151800039923 0.4401563263312165 0.47142159257449934
0.23827481100306613 0.4382022471910112 0.4753297508549097
0.2384634920017561 0.4401563263312165 0.47923790913532005
0.2386543590000656 0.441133365901319 0.4831460674157304
0.23884613400150556 0.44406448461162684 0.4929164631167562
0.2390342970029451 0.4430874450415241 0.5017098192476794
0.23922186799973133 0.4430874450415241 0.5134342940889105
0.2394091970018053 0.441133365901319 0.5085490962383976
0.23959743500017794 0.4450415241817294 0.5065950170981925
0.23978572800115217 0.44406448461162684 0.5036638983878847
0.23997378000058234 0.4460185637518319 0.4978016609672691
0.24019214600048144 0.4450415241817294 0.5007327796775769
0.24039264300154173 0.44699560332193444 0.5026868588177822
0.24058293600319303 0.44699560332193444 0.4938935026868587
0.24077185799978906 0.4479726428920372 0.4929164631167562
0.24096261399972718 0.44406448461162684 0.4948705422569615
0.24116198100091424 0.4460185637518319 0.4978016609672691
0.24135012500119046 0.44211040547142155 0.4948705422569615
0.24153736300286255 0.44211040547142155 0.49877870053737183
0.2417246740005794 0.44211040547142155 0.5026868588177822
0.24191200400309754 0.441133365901319 0.5036638983878847
0.24210483400020166 0.441133365901319 0.5046409379579873
0.2422937940027623 0.441133365901319 0.5026868588177822
0.24248123500001384 0.44406448461162684 0.495847581827064
0.24266865699974005 0.4430874450415241 0.48900830483634583
0.24285687600058736 0.44894968246213973 0.47923790913532005
0.2430444100027671 0.4528578407425501 0.467513434294089
0.24323270300010336 0.457743038593063 0.45188080117244755
0.2434202730000834 0.46262823644357587 0.43917928676111373
0.24360838100255933 0.46458231558378116 0.4284318514899854
0.24379606300135492 0.46946751343429405 0.42256961406936977
0.24398455900154659 0.4684904738641915 0.4186614557889594
0.24417220400209771 0.467513434294089 0.4186614557889594
0.24435918200106244 0.46946751343429405 0.4323400097703958
0.24455814199973247 0.4684904738641915 0.43722520762090866
0.24474719400313916 0.467513434294089 0.4479726428920372
0.24493556100060232 0.46458231558378116 0.4538348803126526
0.2451231680024648 0.46458231558378116 0.46165119687347334
0.24531075800041435 0.46262823644357587 0.46165119687347334
0.24549836500227684 0.4606741573033708 0.4636052760136786
0.24568508400261635 0.4606741573033708 0.46165119687347334
0.24587382200115826 0.45676599902296044 0.467513434294089
0.24606911400042009 0.45676599902296044 0.46946751343429405
0.24625607400230365 0.4538348803126526 0.47923790913532005
0.24644312600139529 0.4509037616023448 0.4831460674157304
0.24663062300169258 0.44894968246213973 0.4851001465559355
0.24681782300103805 0.45188080117244755 0.4802149487054226
0.24700504200154683 0.4450415241817294 0.47239863214460187
0.24719239000114612 0.44211040547142155 0.4636052760136786
0.2473794050019933 0.44211040547142155 0.45188080117244755
0.2475669020022906 0.4401563263312165 0.44992672203224227
0.24775356499958434 0.44211040547142155 0.44992672203224227
0.2479411920030543 0.441133365901319 0.44992672203224227
0.2481367250002222 0.4430874450415241 0.45481191988275516
0.24832451800102717 0.44211040547142155 0.457743038593063
0.2485120890014514 0.44211040547142155 0.4636052760136786
0.24869995600238326 0.4430874450415241 0.4665363947239862
0.24888810000265948 0.44211040547142155 0.47239863214460187
0.24907557900223765 0.44894968246213973 0.4733756717147044
0.24926281599982758 0.45188080117244755 0.4782608695652173
0.24945049800226116 0.4587200781631655 0.4811919882755251
0.24963782800114132 0.4636052760136786 0.48998534440644836
0.2498246579998522 0.46458231558378116 0.4929164631167562
0.2500133020002977 0.46458231558378116 0.4929164631167562
0.2502019100029429 0.46946751343429405 0.4909623839765511
0.2503914810004062 0.4636052760136786 0.486077186126038
0.25058751400138135 0.4606741573033708 0.4811919882755251
0.2507824550011719 0.46262823644357587 0.4684904738641915
0.2509723410003062 0.45676599902296044 0.4538348803126526
0.25116137400254956 0.45676599902296044 0.44699560332193444
0.25134970400176826 0.46165119687347334 0.43917928676111373
0.2515369600005215 0.46262823644357587 0.431362970200293
0.25172436400316656 0.46262823644357587 0.42159257449926724
0.2519113609996566 0.4587200781631655 0.41182217879824123
0.25209928300319007 0.45481191988275516 0.4059599413776258
0.25228715000048396 0.4509037616023448 0.403028822667318
0.252474147000612 0.44699560332193444 0.4059599413776258
0.2526607729996613 0.4430874450415241 0.41182217879824123
0.25284804799957783 0.43917928676111373 0.4235466536394723
0.2530355810013134 0.4352711284807034 0.441133365901319
0.253236985001422 0.4352711284807034 0.4538348803126526
0.25343511100072647 0.4352711284807034 0.457743038593063
0.2536329590002424 0.43722520762090866 0.45676599902296044
0.25382840000020224 0.43722520762090866 0.44992672203224227
0.2540278779997607 0.4382022471910112 0.4382022471910112
0.2542238930000167 0.44211040547142155 0.42940889106008795
0.25442463000217685 0.44406448461162684 0.42256961406936977
0.2546201450022636 0.44699560332193444 0.4186614557889594
0.25481812300131423 0.4450415241817294 0.4186614557889594
0.2550115830017603 0.4479726428920372 0.42256961406936977
0.25521598600244033 0.4479726428920372 0.4264777723497801
0.2554290560001391 0.4528578407425501 0.4333170493404983
0.2556584230005683 0.44894968246213973 0.4401563263312165
0.2558831780006585 0.4509037616023448 0.44406448461162684
0.2560961369999859 0.44699560332193444 0.4450415241817294
0.2563653910001449 0.4479726428920372 0.4430874450415241
0.25656835100016906 0.44699560332193444 0.44211040547142155
0.25677006900150445 0.4450415241817294 0.441133365901319
0.25697102900085156 0.4450415241817294 0.4401563263312165
0.2572390790010104 0.4460185637518319 0.44211040547142155
0.25745033500061254 0.44406448461162684 0.4528578407425501
0.25764542400065693 0.44406448461162684 0.4509037616023448
0.2578448460008076 0.4450415241817294 0.46262823644357587
0.25807976800206234 0.44406448461162684 0.47142159257449934
0.25827433800077415 0.4430874450415241 0.4704445530043966
0.2584721500024898 0.44406448461162684 0.47142159257449934
0.25867273900075816 0.44406448461162684 0.47142159257449934
0.25886730900310795 0.44406448461162684 0.4655593551538837
0.2590621950002969 0.441133365901319 0.46458231558378116
0.25925976500002434 0.43917928676111373 0.4606741573033708
0.259456391002459 0.4401563263312165 0.45676599902296044
0.25965359100155183 0.43917928676111373 0.4538348803126526
0.2598495140009618 0.4382022471910112 0.45188080117244755
0.2600441770009638 0.43917928676111373 0.44894968246213973
0.26023661799990805 0.4401563263312165 0.45188080117244755
0.26044005900257616 0.44211040547142155 0.4606741573033708
0.2606422589997237 0.44211040547142155 0.4684904738641915
0.2608408110027085 0.4450415241817294 0.47728382999511476
0.26103988100294373 0.44406448461162684 0.4831460674157304
0.2612457480026933 0.4450415241817294 0.4880312652662433
0.2614589660006459 0.4450415241817294 0.4909623839765511
0.2616525740013458 0.4450415241817294 0.48705422569614076
0.26184671800001524 0.4430874450415241 0.47728382999511476
0.2621174539999629 0.45188080117244755 0.46165119687347334
0.26232793199960724 0.45481191988275516 0.4479726428920372
0.26255722400310333 0.45676599902296044 0.43429408891060084
0.2628021640011866 0.46165119687347334 0.4264777723497801
0.26302869700157316 0.46165119687347334 0.431362970200293
0.26323560099990573 0.45969711773326827 0.4303859306301905
0.2634395420027431 0.45481191988275516 0.4323400097703958
0.26364063100118074 0.4509037616023448 0.43429408891060084
0.26385251600004267 0.44894968246213973 0.43429408891060084
0.2640596410019498 0.4460185637518319 0.43624816805080613
0.2642717670023558 0.4430874450415241 0.43917928676111373
0.2645068740021088 0.4450415241817294 0.43917928676111373
0.2647336290028761 0.44699560332193444 0.4401563263312165
0.2649548480003432 0.44894968246213973 0.4430874450415241
0.2651773249999678 0.45188080117244755 0.4479726428920372
0.26544311700126855 0.4557889594528579 0.4665363947239862
0.2658624050018261 0.4557889594528579 0.47728382999511476
0.26621810300275683 0.4528578407425501 0.4753297508549097
0.26644832100282656 0.4528578407425501 0.47435271128480694
0.2666797790006967 0.4587200781631655 0.4665363947239862
0.266910108999582 0.45188080117244755 0.4587200781631655
0.2672379540017573 0.4557889594528579 0.45188080117244755
0.2674528770003235 0.4557889594528579 0.44699560332193444
0.267672947000392 0.45676599902296044 0.441133365901319
0.26790464599980623 0.45969711773326827 0.43917928676111373
0.26813890100311255 0.4636052760136786 0.4352711284807034
0.26834823100216454 0.4684904738641915 0.43624816805080613
0.2685601900011534 0.47142159257449934 0.43917928676111373
0.26877820400113706 0.47239863214460187 0.4401563263312165
0.26899066400073934 0.4704445530043966 0.4382022471910112
0.26920343800156843 0.46458231558378116 0.4323400097703958
0.26940724900123314 0.45481191988275516 0.4264777723497801
0.26962159700269694 0.4509037616023448 0.4206155349291647
0.26983470400227816 0.4450415241817294 0.41670737664875435
0.2700419220018375 0.44406448461162684 0.4157303370786516
0.270232382001268 0.4382022471910112 0.4108451392281387
0.2704201930027921 0.4382022471910112 0.4040058622374205
0.27060761600296246 0.4352711284807034 0.40009770395701016
0.2707952609998756 0.43429408891060084 0.3961895456765998
0.2709885900003428 0.4333170493404983 0.39716658524670256
0.2712271420023171 0.42940889106008795 0.39912066438690763
0.27141860100164195 0.42940889106008795 0.40205178309721545
0.27160733900018386 0.43429408891060084 0.40986809965803617
0.27179540900033317 0.4333170493404983 0.41670737664875435
0.27198270200096886 0.43429408891060084 0.4284318514899854
0.27217090200065286 0.44211040547142155 0.4323400097703958
0.27235832500082324 0.4460185637518319 0.43624816805080613
0.2725468400021782 0.44894968246213973 0.4401563263312165
0.27274011400004383 0.46262823644357587 0.44406448461162684
0.27294829600214143 0.4606741573033708 0.4450415241817294
0.2731490890000714 0.4655593551538837 0.4450415241817294
0.2733391960027802 0.47239863214460187 0.4430874450415241
0.27352676700320444 0.4831460674157304 0.44406448461162684
0.2737171520020638 0.4851001465559355 0.4430874450415241
0.27390435300185345 0.4880312652662433 0.44699560332193444
0.27409840499967686 0.4831460674157304 0.44406448461162684
0.274286457002745 0.4802149487054226 0.43917928676111373
0.27447519400084275 0.47239863214460187 0.43624816805080613
0.27469115300118574 0.4684904738641915 0.43624816805080613
0.2748823350011662 0.467513434294089 0.4333170493404983
0.2750710540021828 0.45481191988275516 0.43722520762090866
0.27525827300269157 0.45676599902296044 0.4430874450415241
0.27544658400074695 0.4460185637518319 0.44992672203224227
0.27563413600000786 0.44211040547142155 0.457743038593063
0.2758214850000513 0.43917928676111373 0.4665363947239862
0.2760083890025271 0.43722520762090866 0.47923790913532005
0.27619557100115344 0.4352711284807034 0.4831460674157304
0.27638345600280445 0.43429408891060084 0.4851001465559355
0.27657093400193844 0.43429408891060084 0.4851001465559355
0.2767581900006917 0.43429408891060084 0.4831460674157304
0.27694522400270216 0.43429408891060084 0.4753297508549097
0.27713262800170924 0.43624816805080613 0.4655593551538837
0.2773307540010137 0.4352711284807034 0.4557889594528579
0.27752125000188244 0.43624816805080613 0.4479726428920372
0.27770843200050876 0.441133365901319 0.441133365901319
0.2778953920023923 0.43917928676111373 0.43722520762090866
0.2780860550010402 0.4382022471910112 0.43917928676111373
0.2782732000014221 0.441133365901319 0.43917928676111373
0.2784614190022694 0.4401563263312165 0.44211040547142155
0.2786481740004092 0.44211040547142155 0.44406448461162684
0.2788348380017851 0.44406448461162684 0.45188080117244755
0.27902189000087674 0.4479726428920372 0.46458231558378116
0.27920879399971454 0.4479726428920372 0.4782608695652173
0.27939636500013876 0.44894968246213973 0.48705422569614076
0.27958362100253 0.4509037616023448 0.4929164631167562
0.2797878760029562 0.45188080117244755 0.49682462139716654
0.2799778360022174 0.44992672203224227 0.4938935026868587
0.28016542499972275 0.44699560332193444 0.4929164631167562
0.28035258800082374 0.4479726428920372 0.4880312652662433
0.2805393440030457 0.4460185637518319 0.4831460674157304
0.28072658100063563 0.4450415241817294 0.4763067904250122
0.2809132080001291 0.4450415241817294 0.4665363947239862
0.2811002600028587 0.44406448461162684 0.46165119687347334
0.2812866820022464 0.4460185637518319 0.4587200781631655
0.2814931230022921 0.44211040547142155 0.45481191988275516
0.2816821570013417 0.4430874450415241 0.4557889594528579
0.28186928300056024 0.44406448461162684 0.4587200781631655
0.2820740940005635 0.44406448461162684 0.45969711773326827
0.2822612570016645 0.4430874450415241 0.4528578407425501
0.2824489580016234 0.4479726428920372 0.45188080117244755
0.2826442320001661 0.4479726428920372 0.4509037616023448
0.2828324510010134 0.4450415241817294 0.45481191988275516
0.283019818001776 0.44894968246213973 0.4636052760136786
0.2832074260004447 0.4479726428920372 0.47142159257449934
0.2833945330021379 0.44992672203224227 0.4753297508549097
0.28358186300101806 0.4528578407425501 0.4802149487054226
0.2837691189997713 0.4538348803126526 0.48412310698583294
0.2839603009997518 0.45676599902296044 0.48412310698583294
0.28415368599962676 0.4587200781631655 0.48216902784562765
0.28434729400032666 0.45969711773326827 0.4851001465559355
0.2845359390012163 0.4636052760136786 0.4851001465559355
0.2847232690000965 0.46165119687347334 0.48705422569614076
0.2849108390000765 0.46165119687347334 0.4909623839765511
0.2850985400000354 0.46165119687347334 0.49682462139716654
0.2852857030011364 0.46165119687347334 0.4978016609672691
0.2854729770006088 0.4587200781631655 0.49877870053737183
0.28566064100232325 0.46262823644357587 0.49682462139716654
0.28584741500162636 0.4587200781631655 0.48900830483634583
0.28605367000272963 0.45676599902296044 0.4782608695652173
0.28624176000084844 0.45676599902296044 0.4665363947239862
0.28642931200010935 0.45481191988275516 0.46458231558378116
0.28661714200279675 0.45481191988275516 0.45676599902296044
0.28682808200028376 0.4538348803126526 0.44992672203224227
0.287020357001893 0.4528578407425501 0.4430874450415241
0.287224038002023 0.4538348803126526 0.43722520762090866
0.28742981200048234 0.44894968246213973 0.43429408891060084
0.28762903100141557 0.45188080117244755 0.4284318514899854
0.28782417600086774 0.45188080117244755 0.42452369320957506
0.2880258570003207 0.4509037616023448 0.41475329750854906
0.2882309270025871 0.45188080117244755 0.40693698094772834
0.2884469609998632 0.45481191988275516 0.4040058622374205
0.2886890490008227 0.44992672203224227 0.403028822667318
0.2889307479999843 0.4538348803126526 0.4059599413776258
0.2891479290010466 0.45481191988275516 0.40986809965803617
0.28935444400121924 0.4509037616023448 0.4157303370786516
0.28958381000120426 0.4538348803126526 0.4235466536394723
0.2897909730018 0.44992672203224227 0.4284318514899854
0.29002296900216606 0.44894968246213973 0.4352711284807034
0.2902235399997153 0.4479726428920372 0.441133365901319
0.2904382209999312 0.4479726428920372 0.4479726428920372
0.2907256230027997 0.44894968246213973 0.4479726428920372
0.2909778780012857 0.4528578407425501 0.4382022471910112
0.2912559650030744 0.4509037616023448 0.431362970200293
0.2914992940022785 0.4538348803126526 0.43624816805080613
0.29173051200268674 0.45481191988275516 0.4479726428920372
0.29196293400309514 0.45676599902296044 0.45969711773326827
0.2921856150023814 0.4538348803126526 0.4753297508549097
0.29240670400031377 0.457743038593063 0.4909623839765511
0.2927404200017918 0.4528578407425501 0.49682462139716654
0.2930142490004073 0.4528578407425501 0.49877870053737183
0.29326268800286925 0.4528578407425501 0.49877870053737183
0.29347137000149814 0.4528578407425501 0.49682462139716654
0.2936691630020505 0.44894968246213973 0.4948705422569615
0.29386293700008537 0.44894968246213973 0.486077186126038
0.2941386730017257 0.4450415241817294 0.47435271128480694
0.29434992800088366 0.44406448461162684 0.46458231558378116
0.29457886800082633 0.441133365901319 0.44699560332193444
0.2948226970001997 0.441133365901319 0.4352711284807034
0.29503299000134575 0.44211040547142155 0.42256961406936977
0.2952473010009271 0.4401563263312165 0.41670737664875435
0.29545470400262275 0.4401563263312165 0.40889106008793363
0.2956822930027556 0.43917928676111373 0.40205178309721545
0.2959076040024229 0.43917928676111373 0.40205178309721545
0.2961491919995751 0.4401563263312165 0.39228138739618945
0.29638779900051304 0.441133365901319 0.38935026868588185
0.2966288310017262 0.441133365901319 0.3854421104054715
0.2968587900031707 0.44211040547142155 0.38641914997557403
0.29710117500144406 0.4430874450415241 0.3961895456765998
0.2973304110018944 0.4450415241817294 0.3981436248168051
0.29756038900086423 0.4450415241817294 0.4108451392281387
0.29778669900042587 0.44699560332193444 0.42452369320957506
0.29809362000014517 0.4430874450415241 0.4509037616023448
0.2984155580015795 0.4430874450415241 0.46946751343429405
0.2986598320021585 0.44406448461162684 0.48900830483634583
0.2988996420026524 0.4460185637518319 0.5036638983878847
0.299197730000742 0.4460185637518319 0.512457254518808
0.29945241000314127 0.44406448461162684 0.5114802149487054
0.2996692400010943 0.4479726428920372 0.5095261358085001
0.2998949579996406 0.4430874450415241 0.4978016609672691
0.30012980500032427 0.4479726428920372 0.48900830483634583
0.3003495789998851 0.4479726428920372 0.47239863214460187
0.3005792600015411 0.44699560332193444 0.46165119687347334
0.3008025710005313 0.44699560332193444 0.45188080117244755
0.30104417800248484 0.44699560332193444 0.441133365901319
0.3012655630009249 0.4509037616023448 0.44211040547142155
0.3015403720019094 0.457743038593063 0.44699560332193444
0.3017555540027388 0.4538348803126526 0.44992672203224227
0.3020576410017384 0.4557889594528579 0.45676599902296044
0.3023199140006909 0.45676599902296044 0.45481191988275516
0.30258381699968595 0.457743038593063 0.44211040547142155
0.30283423800210585 0.45969711773326827 0.4255007327796776
0.3030873999996402 0.457743038593063 0.4079140205178309
0.30332830300176283 0.45969711773326827 0.412799218368344
0.3035345589996723 0.45969711773326827 0.4040058622374205
0.303734703000373 0.45676599902296044 0.41670737664875435
0.30393955100225867 0.45676599902296044 0.43429408891060084
0.3041374180029379 0.4587200781631655 0.45188080117244755
0.3043481000022439 0.4538348803126526 0.4665363947239862
0.3045505590016546 0.4557889594528579 0.4763067904250122
0.3047517400009383 0.4538348803126526 0.48216902784562765
0.3049534780002432 0.45188080117244755 0.4831460674157304
0.3051458440022543 0.4528578407425501 0.48705422569614076
0.3053411740002048 0.4509037616023448 0.4831460674157304
0.3055397999996785 0.4528578407425501 0.4811919882755251
0.3057370370006538 0.4538348803126526 0.4733756717147044
0.30593651500021224 0.4528578407425501 0.4684904738641915
0.3062903420031944 0.4557889594528579 0.46946751343429405
0.3065283560026728 0.45969711773326827 0.46946751343429405
0.3067662780013052 0.4587200781631655 0.4753297508549097
0.306991552002728 0.4528578407425501 0.47435271128480694
0.3072141590018873 0.4538348803126526 0.4733756717147044
0.30744385800062446 0.45188080117244755 0.4704445530043966
0.30773276100080693 0.4528578407425501 0.47142159257449934
0.3079536270015524 0.4528578407425501 0.4636052760136786
0.3082186410028953 0.457743038593063 0.45969711773326827
0.30845287700140034 0.4538348803126526 0.4509037616023448
0.30865878100303235 0.4528578407425501 0.4450415241817294
0.3088547590014059 0.4538348803126526 0.43624816805080613
0.30905242200242355 0.45188080117244755 0.4284318514899854
0.3092491589995916 0.44992672203224227 0.4186614557889594
0.3094381000009889 0.44699560332193444 0.4108451392281387
0.3096305970029789 0.44699560332193444 0.40693698094772834
0.30982790800044313 0.4479726428920372 0.40693698094772834
0.31004062600186444 0.44699560332193444 0.4040058622374205
0.3102952510016621 0.4509037616023448 0.40205178309721545
0.31050171100287116 0.4528578407425501 0.40205178309721545
0.310697873999743 0.4509037616023448 0.40009770395701016
0.3108979070020723 0.4538348803126526 0.3854421104054715
0.31113145900235395 0.4538348803126526 0.38153395212506114
0.3113328250001359 0.45481191988275516 0.3805569125549584
0.3115301920006459 0.4509037616023448 0.37274059599413767
0.3117280770020443 0.4528578407425501 0.3737176355642404
0.3119250550007564 0.4538348803126526 0.3756717147044455
0.3121246440023242 0.45481191988275516 0.3688324377137273
0.31232691900004284 0.45481191988275516 0.3756717147044455
0.3125247300013143 0.45969711773326827 0.38446507083536874
0.3127175410008931 0.45676599902296044 0.39716658524670256
0.3129138520016568 0.45481191988275516 0.41182217879824123
0.31310834900068585 0.45676599902296044 0.4333170493404983
0.3133013270016818 0.4587200781631655 0.45481191988275516
0.3134979710011976 0.46458231558378116 0.4802149487054226
0.3136958200011577 0.467513434294089 0.5017098192476794
0.3138905010018789 0.4704445530043966 0.5202735710796287
0.3141258120012935 0.4704445530043966 0.5280898876404494
0.3143212900031358 0.47142159257449934 0.533952125061065
0.3145534340001177 0.4636052760136786 0.5378602833414754
0.3147667450029985 0.46165119687347334 0.5388373229115779
0.31496122300086427 0.4509037616023448 0.5310210063507572
0.3151542560008238 0.44894968246213973 0.5310210063507572
0.31534810500306776 0.441133365901319 0.524181729360039
0.31554713800142054 0.4401563263312165 0.524181729360039
0.31574361599996337 0.4401563263312165 0.5173424523693209
0.31594000100085395 0.441133365901319 0.5183194919394236
0.31613484999979846 0.4382022471910112 0.512457254518808
0.3163316050013236 0.4401563263312165 0.5065950170981925
0.31652652800039505 0.441133365901319 0.49877870053737183
0.31673152400253457 0.441133365901319 0.486077186126038
0.31696289000319666 0.441133365901319 0.47923790913532005
0.3171942940025474 0.4382022471910112 0.4733756717147044
0.31739514200307894 0.43429408891060084 0.4684904738641915
0.31762117499965825 0.4352711284807034 0.4587200781631655
0.31784644900108106 0.43624816805080613 0.44992672203224227
0.3181193880009232 0.4430874450415241 0.4401563263312165
0.31836873500287766 0.43429408891060084 0.4333170493404983
0.3185985830023128 0.4401563263312165 0.431362970200293
0.31880943100259174 0.43429408891060084 0.4264777723497801
0.31901370500054327 0.43624816805080613 0.42452369320957506
0.31921992400020827 0.43624816805080613 0.42745481191988266
0.31941056800133083 0.4382022471910112 0.42256961406936977
0.3196438790000684 0.43917928676111373 0.4264777723497801
0.3198644680014695 0.43722520762090866 0.43624816805080613
0.32007440800225595 0.4401563263312165 0.45481191988275516
0.3202818120007578 0.4382022471910112 0.467513434294089
0.32049697500042384 0.4430874450415241 0.4802149487054226
0.3207078970008297 0.4450415241817294 0.49193942354665365
0.3210030400005053 0.4450415241817294 0.4811919882755251
0.32134620000215364 0.4460185637518319 0.47239863214460187
0.3216211580001982 0.44406448461162684 0.457743038593063
0.3218952269999136 0.4479726428920372 0.4538348803126526
0.3221826480003074 0.4479726428920372 0.4479726428920372
0.3224277360022825 0.44699560332193444 0.4538348803126526
0.32270460200015805 0.44699560332193444 0.4557889594528579
0.32303315100216423 0.4528578407425501 0.46165119687347334
0.32331773900295957 0.44992672203224227 0.4636052760136786
0.3236054930021055 0.44894968246213973 0.4538348803126526
0.3238737290012068 0.4528578407425501 0.44211040547142155
0.3240913730005559 0.45481191988275516 0.42745481191988266
0.32429525800034753 0.45676599902296044 0.41182217879824123
0.3244935319999058 0.457743038593063 0.3952125061064973
0.324695306000649 0.457743038593063 0.3854421104054715
0.3248940070006938 0.457743038593063 0.38153395212506114
0.3251060030015651 0.457743038593063 0.376648754274548
0.3253442580025876 0.457743038593063 0.38641914997557403
0.32559032700009993 0.45969711773326827 0.4079140205178309
0.3258184530022845 0.4587200781631655 0.43624816805080613
0.32611402200200246 0.45676599902296044 0.4606741573033708
0.32639836800080957 0.4636052760136786 0.4802149487054226
0.32667093700001715 0.4587200781631655 0.49975574010747437
0.3268824710030458 0.45969711773326827 0.5065950170981925
0.3270889300001727 0.4606741573033708 0.5183194919394236
0.3272999630025879 0.45969711773326827 0.512457254518808
0.32750186700286577 0.45676599902296044 0.512457254518808
0.32769610400282545 0.45481191988275516 0.5144113336590133
0.32789626700105146 0.4509037616023448 0.5144113336590133
0.3281185779997031 0.45188080117244755 0.5085490962383976
0.3283426660018449 0.44992672203224227 0.49975574010747437
0.328550885002187 0.4479726428920372 0.4811919882755251
0.328758863000985 0.45188080117244755 0.4557889594528579
0.32900976600285503 0.44699560332193444 0.4303859306301905
0.32922857599987765 0.44992672203224227 0.40986809965803617
0.3294535540007928 0.4479726428920372 0.3883732291157791
0.32976119600061793 0.44894968246213973 0.37957987298485585
0.3300489690009272 0.45188080117244755 0.36980947728383007
0.3302563170000212 0.4538348803126526 0.3707865168539326
0.3304568690000451 0.4528578407425501 0.3776257938446508
0.3306576800023322 0.4538348803126526 0.3854421104054715
0.33086339900182793 0.4557889594528579 0.3932584269662922
0.33106604299973696 0.46165119687347334 0.39912066438690763
0.33126374300263706 0.4655593551538837 0.4040058622374205
0.33147522100261995 0.4665363947239862 0.4137762579384465
0.3317005130011239 0.467513434294089 0.42256961406936977
0.33191749100296875 0.46262823644357587 0.43624816805080613
0.33212396900125896 0.46165119687347334 0.44992672203224227
0.33236352000312763 0.4557889594528579 0.4528578407425501
0.332568664001883 0.45676599902296044 0.45188080117244755
0.33276901300268946 0.45481191988275516 0.44406448461162684
0.33296780500313616 0.4538348803126526 0.4333170493404983
0.3331675980007276 0.45481191988275516 0.42745481191988266
0.3333762239999487 0.45188080117244755 0.4186614557889594
0.33360938600162626 0.45188080117244755 0.41670737664875435
0.3338355670020974 0.4509037616023448 0.4186614557889594
0.3341276730025129 0.44894968246213973 0.42452369320957506
0.3343388360008248 0.4460185637518319 0.43624816805080613
0.3345322960012709 0.4479726428920372 0.44406448461162684
0.33471994000137784 0.44699560332193444 0.45188080117244755
0.33490827000059653 0.44699560332193444 0.457743038593063
0.3350970080027764 0.4450415241817294 0.45969711773326827
0.3352844860019104 0.44406448461162684 0.4606741573033708
0.33547205600189045 0.4430874450415241 0.4636052760136786
0.3356602200001362 0.44406448461162684 0.46262823644357587
0.3358770310005639 0.44211040547142155 0.4655593551538837
0.3360659720019612 0.44406448461162684 0.46458231558378116
0.33625402400139137 0.4450415241817294 0.4636052760136786
0.33644194600128685 0.441133365901319 0.46165119687347334
0.3366307760006748 0.4460185637518319 0.457743038593063
0.336821458000486 0.4460185637518319 0.4538348803126526
0.3370472320020781 0.44211040547142155 0.44992672203224227
0.3372354130005988 0.4430874450415241 0.44699560332193444
0.33742276200064225 0.4401563263312165 0.44699560332193444
0.33761038800003007 0.4450415241817294 0.44894968246213973
0.33779786600280204 0.44211040547142155 0.45188080117244755
0.33799165900200023 0.43917928676111373 0.457743038593063
0.3381806930010498 0.4401563263312165 0.45969711773326827
0.33837465200122097 0.44211040547142155 0.4636052760136786
0.338577130001795 0.44211040547142155 0.46458231558378116
0.3388171630031138 0.43917928676111373 0.4684904738641915
0.33901577000142424 0.4509037616023448 0.4684904738641915
0.33922011800314067 0.441133365901319 0.46946751343429405
0.3394115219998639 0.4401563263312165 0.47142159257449934
0.3395998520027206 0.44211040547142155 0.47435271128480694
0.33978757099976065 0.441133365901319 0.47728382999511476
0.33997795700270217 0.4430874450415241 0.4782608695652173
0.34016978600266157 0.4450415241817294 0.4802149487054226
0.34038663400133373 0.4460185637518319 0.4733756717147044
0.34057663100247737 0.44699560332193444 0.46946751343429405
0.3407641830017383 0.44894968246213973 0.4655593551538837
0.3409516800020356 0.4460185637518319 0.46165119687347334
0.3411393060014234 0.45188080117244755 0.46262823644357587
0.34132696900269366 0.4509037616023448 0.4557889594528579
0.34151457700136234 0.44992672203224227 0.457743038593063
0.3417016660023364 0.44992672203224227 0.457743038593063
0.34188864400130115 0.44992672203224227 0.4538348803126526
0.3420879920013249 0.44699560332193444 0.4509037616023448
0.34227521100183367 0.4509037616023448 0.44699560332193444
0.3424625780025963 0.44992672203224227 0.4450415241817294
0.34265013100230135 0.44992672203224227 0.4460185637518319
0.3428374970026198 0.44894968246213973 0.44699560332193444
0.34302523500082316 0.44699560332193444 0.4528578407425501
0.343212861000211 0.4460185637518319 0.457743038593063
0.34340000600059284 0.4460185637518319 0.46165119687347334
0.3435874099995999 0.44992672203224227 0.46458231558378116
0.34377533200313337 0.44894968246213973 0.46262823644357587
0.3439629770000465 0.4528578407425501 0.4587200781631655
0.3441502519999631 0.45481191988275516 0.45188080117244755
0.3443375630013179 0.45676599902296044 0.4450415241817294
0.34452683700146736 0.45969711773326827 0.441133365901319
0.34471574100098223 0.46165119687347334 0.441133365901319
0.34490259000085643 0.46165119687347334 0.43917928676111373
0.3450896050017036 0.4587200781631655 0.441133365901319
0.3452792310017685 0.4587200781631655 0.4460185637518319
0.3454670610008179 0.4538348803126526 0.4450415241817294
0.345655336001073 0.4509037616023448 0.44406448461162684
0.34584377700230107 0.4538348803126526 0.4401563263312165
0.34604742100054864 0.457743038593063 0.43722520762090866
0.3462354180010152 0.4606741573033708 0.4333170493404983
0.3464227850017778 0.4636052760136786 0.42745481191988266
0.34661113300171564 0.4665363947239862 0.4186614557889594
0.34679990700169583 0.47142159257449934 0.4108451392281387
0.34701412600043113 0.4733756717147044 0.403028822667318
0.3472029000004113 0.47728382999511476 0.39912066438690763
0.34739113800242194 0.4782608695652173 0.39912066438690763
0.3475782640016405 0.4811919882755251 0.403028822667318
0.3477662600016629 0.4851001465559355 0.40986809965803617
0.3479625350009883 0.486077186126038 0.4176844162188569
0.34815025300122215 0.48900830483634583 0.4284318514899854
0.34833852800147724 0.4909623839765511 0.4333170493404983
0.3485262470021553 0.48412310698583294 0.44406448461162684
0.3487147990017547 0.4763067904250122 0.45676599902296044
0.34890366600302514 0.4733756717147044 0.4753297508549097
0.34909184800199 0.47142159257449934 0.4831460674157304
0.3492794550002145 0.4587200781631655 0.4938935026868587
0.34946776700235205 0.457743038593063 0.5065950170981925
0.3496552819997305 0.45188080117244755 0.5105031753786029
0.3498431120024179 0.44699560332193444 0.5114802149487054
0.3500492010025482 0.4479726428920372 0.5114802149487054
0.3502367340006458 0.4430874450415241 0.5095261358085001
0.35042399000303703 0.4430874450415241 0.5114802149487054
0.350623746002384 0.4450415241817294 0.5095261358085001
0.3508297050029796 0.44406448461162684 0.5105031753786029
0.3510219420022622 0.44699560332193444 0.5105031753786029
0.35120984600143856 0.44699560332193444 0.5105031753786029
0.35140065800078446 0.4479726428920372 0.5046409379579873
0.3515897840006801 0.4479726428920372 0.5017098192476794
0.35177778100114665 0.4460185637518319 0.49975574010747437
0.35196596199966734 0.4460185637518319 0.49975574010747437
0.3521534400024393 0.4450415241817294 0.495847581827064
0.3523411960013618 0.4460185637518319 0.4929164631167562
0.3525286190015322 0.44406448461162684 0.4909623839765511
0.3527160600024217 0.44406448461162684 0.48412310698583294
0.3529041680012597 0.44211040547142155 0.48705422569614076
0.35309149800013984 0.43917928676111373 0.46946751343429405
0.3532801239998662 0.43722520762090866 0.44699560332193444
0.35350797200226225 0.43917928676111373 0.4186614557889594
0.3537093750019267 0.43429408891060084 0.3913043478260869
0.3539022050026688 0.4352711284807034 0.3678553981436248
0.3541352200008987 0.4333170493404983 0.35906204201270153
0.3543355120018532 0.43429408891060084 0.36199316072300936
0.35453537899957155 0.4303859306301905 0.3707865168539326
0.3547277830002713 0.4303859306301905 0.38641914997557403
0.35493468700224184 0.4284318514899854 0.4059599413776258
0.35517412700210116 0.42940889106008795 0.42159257449926724
0.35537571600070805 0.4303859306301905 0.43722520762090866
0.35557237900138716 0.4352711284807034 0.441133365901319
0.3557838560009259 0.4352711284807034 0.4450415241817294
0.35602113000277313 0.44406448461162684 0.4430874450415241
0.3563199020027241 0.43722520762090866 0.4401563263312165
0.3565634910009976 0.4352711284807034 0.431362970200293
0.35687441100162687 0.431362970200293 0.42256961406936977
0.3571055550019082 0.4303859306301905 0.4137762579384465
0.3573169770024833 0.4303859306301905 0.40693698094772834
0.35752127000159817 0.431362970200293 0.4049829018075233
0.3577298210002482 0.4352711284807034 0.40986809965803617
0.3579378180002095 0.43722520762090866 0.4137762579384465
0.3581714060019294 0.4450415241817294 0.42256961406936977
0.35839305000263266 0.441133365901319 0.43722520762090866
0.35866593399987323 0.44211040547142155 0.44992672203224227
0.3589117810006428 0.4450415241817294 0.46165119687347334
0.35913344400250935 0.44406448461162684 0.4753297508549097
0.35936890300217783 0.4450415241817294 0.4811919882755251
0.3596013060014229 0.4460185637518319 0.4763067904250122
0.35984874600035255 0.44699560332193444 0.467513434294089
0.3601429629998165 0.45188080117244755 0.4538348803126526
0.3604299020007602 0.44894968246213973 0.441133365901319
0.360631565003132 0.4479726428920372 0.431362970200293
0.3608212100007222 0.4557889594528579 0.4235466536394723
0.3610093360002793 0.4538348803126526 0.4206155349291647
0.36119759200300905 0.4557889594528579 0.4206155349291647
0.3614078660029918 0.4557889594528579 0.4235466536394723
0.3615958810005395 0.4557889594528579 0.4323400097703958
0.36178484100310015 0.45969711773326827 0.4460185637518319
0.3620007630015607 0.45676599902296044 0.457743038593063
0.36219229600101244 0.45481191988275516 0.4665363947239862
0.36238090400001965 0.45676599902296044 0.4763067904250122
0.36257036400274956 0.4557889594528579 0.4831460674157304
0.3627578600026027 0.457743038593063 0.4831460674157304
0.3629458750001504 0.4557889594528579 0.48412310698583294
0.36313313100254163 0.45676599902296044 0.4880312652662433
0.3633209239997086 0.4538348803126526 0.4880312652662433
0.36350864300038666 0.4538348803126526 0.4909623839765511
0.3636968800019531 0.4528578407425501 0.4929164631167562
0.36388426600024104 0.4528578407425501 0.4948705422569615
0.3641702790009731 0.4509037616023448 0.4978016609672691
0.364369794002414 0.4450415241817294 0.49975574010747437
0.36455797600137885 0.44406448461162684 0.5007327796775769
0.3647455650025222 0.441133365901319 0.5007327796775769
0.36493302500093705 0.441133365901319 0.49975574010747437
0.3651205210007902 0.43917928676111373 0.49682462139716654
0.3653098510003474 0.4382022471910112 0.4909623839765511
0.3655025510015548 0.43917928676111373 0.48998534440644836
0.3656900290006888 0.43917928676111373 0.4782608695652173
0.36587704500198015 0.4401563263312165 0.4763067904250122
0.3660783369996352 0.441133365901319 0.467513434294089
0.36626711200005957 0.4430874450415241 0.4587200781631655
0.3664545339997858 0.44894968246213973 0.45969711773326827
0.3666418460015848 0.4538348803126526 0.45676599902296044
0.3668294529998093 0.45676599902296044 0.45969711773326827
0.36701658000311 0.4606741573033708 0.4636052760136786
0.36720433500158833 0.46458231558378116 0.46262823644357587
0.36739231400133576 0.467513434294089 0.467513434294089
0.3675801620011043 0.47728382999511476 0.4704445530043966
0.3677677510022477 0.4782608695652173 0.4704445530043966
0.36795556300057797 0.486077186126038 0.4733756717147044
0.36814309600231354 0.4938935026868587 0.4763067904250122
0.36833148200094 0.495847581827064 0.4763067904250122
0.36851873799969326 0.4948705422569615 0.47435271128480694
0.36871884500214946 0.48900830483634583 0.47142159257449934
0.36890624900115654 0.48216902784562765 0.47239863214460187
0.36909400500007905 0.47435271128480694 0.4782608695652173
0.36928098300268175 0.4665363947239862 0.4831460674157304
0.36946866500147735 0.45969711773326827 0.4880312652662433
0.36965564300044207 0.4557889594528579 0.4938935026868587
0.3698432140008663 0.45188080117244755 0.4948705422569615
0.3700618580005539 0.44699560332193444 0.48998534440644836
0.37025053999968804 0.4460185637518319 0.4880312652662433
0.3704380730014236 0.4430874450415241 0.48216902784562765
0.370625496001594 0.4460185637518319 0.47923790913532005
0.3708142890027375 0.4430874450415241 0.4753297508549097
0.371002211002633 0.44406448461162684 0.4782608695652173
0.37118981900130166 0.4450415241817294 0.47728382999511476
0.3713767790031852 0.4450415241817294 0.47728382999511476
0.3715678120024677 0.4557889594528579 0.4684904738641915
0.37175930900048115 0.44699560332193444 0.46165119687347334
0.3719467500013707 0.44992672203224227 0.45188080117244755
0.37213415400037775 0.44894968246213973 0.441133365901319
0.37232211400259985 0.44894968246213973 0.4323400097703958
0.37252564700247603 0.44894968246213973 0.4235466536394723
0.37272164300156874 0.4528578407425501 0.4206155349291647
0.3729346580003039 0.45188080117244755 0.41963849535906195
0.37316983900018386 0.45481191988275516 0.41475329750854906
0.3733823910006322 0.4509037616023448 0.41182217879824123
0.37357399800021085 0.4509037616023448 0.4040058622374205
0.3738036419999844 0.44992672203224227 0.4079140205178309
0.3740133790015534 0.4460185637518319 0.4010747435271129
0.3742042459998629 0.4479726428920372 0.3952125061064973
0.3743913540020003 0.4450415241817294 0.38935026868588185
0.37457881400041515 0.44406448461162684 0.38739618954567656
0.3747660139997606 0.4460185637518319 0.3834880312652662
0.3749535470014962 0.44699560332193444 0.3834880312652662
0.37514095200094744 0.4460185637518319 0.38739618954567656
0.37532818900217535 0.44699560332193444 0.3913043478260869
0.3755161480003153 0.44992672203224227 0.3932584269662922
0.37570446000245283 0.44894968246213973 0.3961895456765998
0.37589219700021204 0.44699560332193444 0.38739618954567656
0.3760808229999384 0.44699560332193444 0.3776257938446508
0.37626887599981274 0.4479726428920372 0.36687835857352225
0.3764692790027766 0.4450415241817294 0.35906204201270153
0.3766628680023132 0.4430874450415241 0.35417684416218864
0.3768508840003051 0.44406448461162684 0.35417684416218864
0.37703845400028513 0.44406448461162684 0.35906204201270153
0.37722765500075184 0.441133365901319 0.3737176355642404
0.3774286320003739 0.441133365901319 0.38935026868588185
0.37761720300113666 0.44211040547142155 0.4079140205178309
0.3778046630031895 0.441133365901319 0.4264777723497801
0.3779951960023027 0.4401563263312165 0.43917928676111373
0.37818395200156374 0.44406448461162684 0.4538348803126526
0.37837111500266474 0.44406448461162684 0.46165119687347334
0.3785578160022851 0.4450415241817294 0.47239863214460187
0.3787451640018844 0.44699560332193444 0.46946751343429405
0.3789325680008915 0.4460185637518319 0.4753297508549097
0.3791203430009773 0.44699560332193444 0.4782608695652173
0.37930739500006894 0.44699560332193444 0.4811919882755251
0.3794954280019738 0.4479726428920372 0.4802149487054226
0.37968298100167885 0.4460185637518319 0.47728382999511476
0.37987040300140507 0.4460185637518319 0.4753297508549097
0.38005769600204076 0.4479726428920372 0.4684904738641915
0.38024491500254953 0.4460185637518319 0.4587200781631655
0.3804386340016208 0.4479726428920372 0.4538348803126526
0.38062640800126246 0.4479726428920372 0.44894968246213973
0.38084068200259935 0.4479726428920372 0.45481191988275516
0.38105612300205394 0.45188080117244755 0.4636052760136786
0.3812446930023725 0.44699560332193444 0.46946751343429405
0.38143187500099884 0.44699560332193444 0.4811919882755251
0.3816187420015922 0.4479726428920372 0.48705422569614076
0.38180666500193183 0.4479726428920372 0.4948705422569615
0.3819954940008756 0.4479726428920372 0.495847581827064
0.3821832870016806 0.4479726428920372 0.4978016609672691
0.3823709140015126 0.4460185637518319 0.49877870053737183
0.3825581510027405 0.4479726428920372 0.49877870053737183
0.3827463510024245 0.4460185637518319 0.495847581827064
0.38293355200221413 0.44894968246213973 0.49877870053737183
0.38312117800160195 0.4460185637518319 0.4880312652662433
0.3833092860004399 0.44699560332193444 0.4802149487054226
0.3834971160031273 0.44894968246213973 0.4733756717147044
0.3836848530008865 0.44894968246213973 0.46458231558378116
0.3838724240013107 0.44992672203224227 0.4509037616023448
0.3840642530012701 0.44894968246213973 0.43429408891060084
0.3842701200010197 0.4528578407425501 0.4137762579384465
0.38446954200117034 0.4528578407425501 0.39716658524670256
0.3846582610021869 0.4557889594528579 0.38739618954567656
0.3848478319996502 0.4557889594528579 0.37957987298485585
0.3850362730008783 0.45676599902296044 0.376648754274548
0.38522365800236 0.45676599902296044 0.3786028334147533
0.38541154400081723 0.457743038593063 0.3854421104054715
0.3856000590021722 0.457743038593063 0.38641914997557403
0.3857874630011793 0.45969711773326827 0.38446507083536874
0.38600334800139535 0.45676599902296044 0.3854421104054715
0.3861937889996625 0.46165119687347334 0.38739618954567656
0.38638093400004436 0.45969711773326827 0.39423546653639474
0.3865698190020339 0.457743038593063 0.4108451392281387
0.3867607050015067 0.45676599902296044 0.4176844162188569
0.3869565720015089 0.45676599902296044 0.4284318514899854
0.38714949400309706 0.457743038593063 0.4401563263312165
0.38738813800227945 0.457743038593063 0.44894968246213973
0.3875867820024723 0.4587200781631655 0.45481191988275516
0.38778348300184007 0.4587200781631655 0.46165119687347334
0.38798823800243554 0.46165119687347334 0.46458231558378116
0.38818386400089366 0.4636052760136786 0.46946751343429405
0.38837954600239755 0.46165119687347334 0.4733756717147044
0.38857263500176487 0.467513434294089 0.4802149487054226
0.38878007600214914 0.46262823644357587 0.4929164631167562
0.3890617370016116 0.46262823644357587 0.4948705422569615
0.3892792330007069 0.4636052760136786 0.4978016609672691
0.3894889700022759 0.46262823644357587 0.5065950170981925
0.3897140590015624 0.4636052760136786 0.5105031753786029
0.3899454250022245 0.46262823644357587 0.5319980459208598
0.39024325300124474 0.45969711773326827 0.5495847581827065
0.3904541750016506 0.45969711773326827 0.5632633121641426
0.3906563199998345 0.457743038593063 0.5632633121641426
0.3908596490000491 0.4557889594528579 0.5603321934538348
0.3910654050014273 0.4557889594528579 0.5466536394723986
0.391264753001451 0.45676599902296044 0.5378602833414754
0.3914603420016647 0.45188080117244755 0.5290669272105519
0.3916522090003127 0.4538348803126526 0.5232046897899365
0.3918420390000392 0.45481191988275516 0.5134342940889105
0.3920325360013521 0.4538348803126526 0.5105031753786029
0.39222044000052847 0.44992672203224227 0.5026868588177822
0.3924083990023064 0.44699560332193444 0.4938935026868587
0.39260117300000275 0.44699560332193444 0.4909623839765511
0.39280335500006913 0.4450415241817294 0.4851001465559355
0.3929925370030105 0.44406448461162684 0.4811919882755251
0.3931806440014043 0.44406448461162684 0.4763067904250122
0.3933690670019132 0.4401563263312165 0.467513434294089
0.39355697100108955 0.4382022471910112 0.45188080117244755
0.3937479490014084 0.43917928676111373 0.44211040547142155
0.39394066800014116 0.4401563263312165 0.42745481191988266
0.39418984800067847 0.43624816805080613 0.42159257449926724
0.3944380110006023 0.43624816805080613 0.41670737664875435
0.39467539500037674 0.43624816805080613 0.41963849535906195
0.3949113540002145 0.43429408891060084 0.4206155349291647
0.3951977380020253 0.4333170493404983 0.4137762579384465
0.39544710400150507 0.4323400097703958 0.40986809965803617
0.39570185800039326 0.431362970200293 0.40889106008793363
0.3959111880030832 0.431362970200293 0.40693698094772834
0.39611290600078064 0.4303859306301905 0.40009770395701016
0.39635860600174055 0.43624816805080613 0.3961895456765998
0.3965821390011115 0.43429408891060084 0.38641914997557403
0.3967853570029547 0.4352711284807034 0.3805569125549584
0.3969777430029353 0.43722520762090866 0.37957987298485585
0.39716542400128674 0.4401563263312165 0.37176355642403514
0.3973543100000825 0.44211040547142155 0.37176355642403514
0.39754302900109906 0.4479726428920372 0.3805569125549584
0.3977328770015447 0.45188080117244755 0.3932584269662922
0.3979938720003702 0.4587200781631655 0.41670737664875435
0.3981863320004777 0.4606741573033708 0.4255007327796776
0.39837468000041554 0.46165119687347334 0.4382022471910112
0.39856386199971894 0.46262823644357587 0.4450415241817294
0.3987514140026178 0.4606741573033708 0.4479726428920372
0.39893898500304203 0.4557889594528579 0.4509037616023448
0.39913435200287495 0.4509037616023448 0.4509037616023448
0.3993217189999996 0.4528578407425501 0.4538348803126526
0.39950966000105836 0.4509037616023448 0.4538348803126526
0.39969706400006544 0.4557889594528579 0.45676599902296044
0.3998846530012088 0.457743038593063 0.4606741573033708
0.40007198300008895 0.4606741573033708 0.46165119687347334
0.4002593130026071 0.4665363947239862 0.4636052760136786
0.4004477170019527 0.46165119687347334 0.4655593551538837
0.40063504700083286 0.4587200781631655 0.4704445530043966
0.40082259900009376 0.45676599902296044 0.4704445530043966
0.4010100400009833 0.44992672203224227 0.47142159257449934
0.40119887000037124 0.4450415241817294 0.47239863214460187
0.40142010700219544 0.4450415241817294 0.4684904738641915
0.40161040000020876 0.4430874450415241 0.4655593551538837
0.40179761900071753 0.4460185637518319 0.46262823644357587
0.4019876710008248 0.44406448461162684 0.46262823644357587
0.40217676000247593 0.441133365901319 0.4587200781631655
0.4023639600018214 0.4450415241817294 0.45969711773326827
0.4025515310022456 0.4430874450415241 0.45969711773326827
0.4027387310015911 0.44406448461162684 0.4557889594528579
0.40292639400286134 0.441133365901319 0.45676599902296044
0.40311383600055706 0.44406448461162684 0.4557889594528579
0.4033025730022928 0.44699560332193444 0.45969711773326827
0.4034900140031823 0.44992672203224227 0.4606741573033708
0.4036775660024432 0.45188080117244755 0.4636052760136786
0.40386567400128115 0.4587200781631655 0.4665363947239862
0.4040526890021283 0.45188080117244755 0.46458231558378116
0.4042395739998028 0.45188080117244755 0.4606741573033708
0.4044269969999732 0.44992672203224227 0.45188080117244755
0.40461642000082065 0.45676599902296044 0.4430874450415241
0.40480443500200636 0.45481191988275516 0.43624816805080613
0.4049920050019864 0.4538348803126526 0.4255007327796776
0.4051800760025799 0.4538348803126526 0.4176844162188569
0.4053677760020946 0.4528578407425501 0.4108451392281387
0.4055553100006364 0.45481191988275516 0.4049829018075233
0.40574291800294304 0.45481191988275516 0.4049829018075233
0.40593513600106235 0.45481191988275516 0.4079140205178309
0.40619303900166415 0.4557889594528579 0.41182217879824123
0.40640138700109674 0.457743038593063 0.4186614557889594
0.4066140870017989 0.45969711773326827 0.4235466536394723
0.40680510200036224 0.46165119687347334 0.42940889106008795
0.40699350599970785 0.4587200781631655 0.4303859306301905
0.4071819660020992 0.4587200781631655 0.42745481191988266
0.40736953700252343 0.46165119687347334 0.4284318514899854
0.4075571810026304 0.4606741573033708 0.4284318514899854
0.4077448080024624 0.46165119687347334 0.42745481191988266
0.4079323780024424 0.46165119687347334 0.431362970200293
0.4081198929998209 0.46262823644357587 0.4352711284807034
0.40830783400087967 0.45969711773326827 0.4382022471910112
0.4084954980025941 0.46165119687347334 0.44406448461162684
0.4086834390000149 0.45969711773326827 0.4509037616023448
0.4088713060009468 0.4587200781631655 0.457743038593063
0.40905887600092683 0.45969711773326827 0.4665363947239862
0.40928601999985403 0.45481191988275516 0.4763067904250122
0.4094735540020338 0.4538348803126526 0.486077186126038
0.4096620510026696 0.44992672203224227 0.4938935026868587
0.4098515470031998 0.44894968246213973 0.5017098192476794
0.41007304300001124 0.44894968246213973 0.5036638983878847
0.4102605950029101 0.44894968246213973 0.5075720566682951
0.41044844400312286 0.4450415241817294 0.5095261358085001
0.4106357550008397 0.4479726428920372 0.5114802149487054
0.41082277100213105 0.44699560332193444 0.5192965315095261
0.4110106750013074 0.4450415241817294 0.5212506106497312
0.41119857900048373 0.44699560332193444 0.5290669272105519
0.41140920399993774 0.44992672203224227 0.5280898876404494
0.41159664500082727 0.4460185637518319 0.5280898876404494
0.4117841240004054 0.4479726428920372 0.5232046897899365
0.4119721200004278 0.44992672203224227 0.5173424523693209
0.4121601910010213 0.44894968246213973 0.5114802149487054
0.4123475580017839 0.44894968246213973 0.5026868588177822
0.4125572020020627 0.44992672203224227 0.4929164631167562
0.4127445140002237 0.44992672203224227 0.4831460674157304
0.4129329180032073 0.44894968246213973 0.47239863214460187
0.4131203220022144 0.44992672203224227 0.467513434294089
0.41330817000198294 0.44894968246213973 0.46262823644357587
0.41349637000166695 0.4479726428920372 0.4636052760136786
0.41368381100255647 0.44894968246213973 0.46262823644357587
0.41387095600293833 0.44699560332193444 0.46165119687347334
0.4140688420011429 0.4460185637518319 0.45676599902296044
0.41425746800086927 0.4479726428920372 0.44406448461162684
0.41446157500104164 0.44992672203224227 0.4264777723497801
0.41465018300004886 0.44894968246213973 0.40693698094772834
0.41483960500045214 0.44894968246213973 0.3883732291157791
0.4150281760012149 0.4509037616023448 0.3756717147044455
0.41521578399988357 0.44894968246213973 0.3610161211529066
0.4154031510006462 0.44699560332193444 0.3512457254518808
0.4155914440016204 0.44699560332193444 0.3453834880312652
0.41578020000088145 0.4460185637518319 0.3453834880312652
0.41596845500316704 0.44699560332193444 0.348314606741573
0.41615634100162424 0.4450415241817294 0.358085002442599
0.4163440780030214 0.4450415241817294 0.3659013190034197
0.41653263000262086 0.44406448461162684 0.376648754274548
0.41672005300279125 0.4430874450415241 0.3883732291157791
0.4169081420004659 0.44406448461162684 0.39912066438690763
0.41710119400158874 0.4430874450415241 0.4108451392281387
0.4172991720006394 0.4401563263312165 0.4264777723497801
0.41751648300123634 0.43917928676111373 0.4479726428920372
0.4177101830027823 0.4401563263312165 0.46458231558378116
0.41789760600295267 0.43917928676111373 0.48216902784562765
0.4180923800013261 0.441133365901319 0.4938935026868587
0.4182808580007986 0.43917928676111373 0.5026868588177822
0.4184687990018574 0.44211040547142155 0.5065950170981925
0.4186560920024931 0.44211040547142155 0.5085490962383976
0.41884342200137326 0.4401563263312165 0.5114802149487054
0.4190310480007611 0.44211040547142155 0.5105031753786029
0.419220507999853 0.441133365901319 0.5065950170981925
0.4194079299995792 0.441133365901319 0.5007327796775769
0.41959577899979195 0.4430874450415241 0.4909623839765511
0.41978349800047 0.44211040547142155 0.48412310698583294
0.4199810680001974 0.4430874450415241 0.4753297508549097
0.42016878700087545 0.44211040547142155 0.4655593551538837
0.42035672800193424 0.441133365901319 0.46165119687347334
0.42054437300248537 0.4460185637518319 0.4509037616023448
0.4207321100002446 0.4430874450415241 0.44992672203224227
0.4209200140030589 0.4450415241817294 0.44406448461162684
0.4211083629998029 0.44406448461162684 0.441133365901319
0.4212962849996984 0.4460185637518319 0.4401563263312165
0.4214838560001226 0.4450415241817294 0.4333170493404983
0.42167587100266246 0.44699560332193444 0.4284318514899854
0.42186521900293883 0.44699560332193444 0.42452369320957506
0.4220674930002133 0.45188080117244755 0.42745481191988266
0.4222568229997705 0.45481191988275516 0.43722520762090866
0.42246559700288344 0.4538348803126526 0.4528578407425501
0.4226538160000928 0.4528578407425501 0.47239863214460187
0.4228441090017441 0.4538348803126526 0.4948705422569615
0.42303158700087806 0.4557889594528579 0.5144113336590133
0.4232189169997582 0.4557889594528579 0.5251587689301416
0.42340682100257254 0.45676599902296044 0.5310210063507572
0.42360381800244795 0.4557889594528579 0.5271128480703469
0.42379233300016494 0.45481191988275516 0.522227650219834
0.42397968099976424 0.457743038593063 0.5105031753786029
0.4241670110022824 0.45481191988275516 0.4978016609672691
0.4243547480000416 0.457743038593063 0.48705422569614076
0.42454217100021197 0.4557889594528579 0.4704445530043966
0.42473003800114384 0.4538348803126526 0.46165119687347334
0.42491696100114495 0.4587200781631655 0.45188080117244755
0.4251097530031984 0.4538348803126526 0.44211040547142155
0.42529791700144415 0.45188080117244755 0.4333170493404983
0.4254865430011705 0.4509037616023448 0.4264777723497801
0.4256748730003892 0.45188080117244755 0.4176844162188569
0.4258628690004116 0.45481191988275516 0.412799218368344
0.42607627300094464 0.45188080117244755 0.40986809965803617
0.4262637880019611 0.44894968246213973 0.40693698094772834
0.4264524509999319 0.45188080117244755 0.4059599413776258
0.4266404850022809 0.44992672203224227 0.4040058622374205
0.42682811100166873 0.4538348803126526 0.39912066438690763
0.42701523800133145 0.45676599902296044 0.39423546653639474
0.42720325300251716 0.46165119687347334 0.38739618954567656
0.4273988790009753 0.4636052760136786 0.3834880312652662
0.42759474600097747 0.4655593551538837 0.37274059599413767
0.4277844090029248 0.46946751343429405 0.36980947728383007
0.427973904999817 0.46458231558378116 0.37176355642403514
0.4281616430016584 0.4655593551538837 0.37957987298485585
0.4283492880022095 0.4636052760136786 0.3913043478260869
0.4285368400014704 0.4636052760136786 0.4079140205178309
0.42872441000145045 0.4636052760136786 0.4235466536394723
0.42891235100250924 0.4606741573033708 0.44406448461162684
0.4291020700002264 0.4606741573033708 0.45676599902296044
0.42929069599995273 0.46165119687347334 0.47435271128480694
0.4294792670007155 0.46165119687347334 0.48900830483634583
0.42966719000105513 0.45969711773326827 0.5007327796775769
0.42985533400133136 0.45676599902296044 0.5114802149487054
0.43005525700209546 0.4528578407425501 0.5183194919394236
0.43024397600311204 0.4509037616023448 0.522227650219834
0.430441509000957 0.44992672203224227 0.5251587689301416
0.4306362090028415 0.4479726428920372 0.524181729360039
0.4308244840030966 0.44992672203224227 0.524181729360039
0.43101175800256897 0.4479726428920372 0.5192965315095261
0.4311991440008569 0.44992672203224227 0.5163654127992183
0.43138678800096386 0.45188080117244755 0.5114802149487054
0.43157495200284757 0.4509037616023448 0.5056179775280898
0.4317627810014528 0.45188080117244755 0.49877870053737183
0.43195035200187704 0.4557889594528579 0.4909623839765511
0.4321376450025127 0.457743038593063 0.47923790913532005
