0 0.41182217879824123 0.44699560332193444
0.0003557899981387891 0.4323400097703958 0.441133365901319
0.000565471997106215 0.4460185637518319 0.44406448461162684
0.0007659490001969971 0.44894968246213973 0.441133365901319
0.0009843529987847432 0.45481191988275516 0.4450415241817294
0.0011883119987032842 0.44406448461162684 0.44699560332193444
0.0013798090003547259 0.44406448461162684 0.4460185637518319
0.0015776379987073597 0.4460185637518319 0.4479726428920372
0.00176915299743996 0.4479726428920372 0.44406448461162684
0.0019590569972933736 0.45481191988275516 0.4450415241817294
0.0021502759991562925 0.46165119687347334 0.44699560332193444
0.0023384579981211573 0.4704445530043966 0.4460185637518319
0.0025498799986962695 0.47923790913532005 0.4460185637518319
0.0027375249992473982 0.4909623839765511 0.4460185637518319
0.00292509499922744 0.48900830483634583 0.4460185637518319
0.0031124809975153767 0.48900830483634583 0.45188080117244755
0.0033007370002451353 0.4851001465559355 0.4479726428920372
0.0034891219984274358 0.4763067904250122 0.4479726428920372
0.00367637799718068 0.47142159257449934 0.45188080117244755
0.003863170997647103 0.4665363947239862 0.45188080117244755
0.004054315999383107 0.4655593551538837 0.45188080117244755
0.00424934900001972 0.4636052760136786 0.45481191988275516
0.00445288300034008 0.45676599902296044 0.4587200781631655
0.004650119997677393 0.4538348803126526 0.4587200781631655
0.004848300999583444 0.4509037616023448 0.45481191988275516
0.005050537998613436 0.45188080117244755 0.457743038593063
0.005253145998722175 0.44992672203224227 0.4587200781631655
0.005453826997836586 0.4557889594528579 0.4557889594528579
0.005656841996824369 0.45969711773326827 0.4557889594528579
0.00585143100033747 0.4655593551538837 0.4509037616023448
0.006050205996871227 0.47239863214460187 0.44992672203224227
0.006244386997423135 0.48216902784562765 0.44699560332193444
0.006525937998958398 0.48216902784562765 0.44894968246213973
0.006748210998921422 0.4753297508549097 0.457743038593063
0.006985725998674752 0.46946751343429405 0.44894968246213973
0.007239090999064501 0.4606741573033708 0.44699560332193444
0.007480827996914741 0.45969711773326827 0.44699560332193444
0.007725563998974394 0.457743038593063 0.4460185637518319
0.007972207997227088 0.4655593551538837 0.4479726428920372
0.008194332996936282 0.4753297508549097 0.44992672203224227
0.00841423699966981 0.4753297508549097 0.44699560332193444
0.008654768997075735 0.47728382999511476 0.44699560332193444
0.008872894999512937 0.4782608695652173 0.4460185637518319
0.009081946998776402 0.4802149487054226 0.4460185637518319
0.009283016999688698 0.48216902784562765 0.44406448461162684
0.009479846998146968 0.48412310698583294 0.43917928676111373
0.009678305999841541 0.4880312652662433 0.441133365901319
0.009915301998262294 0.48705422569614076 0.44406448461162684
0.010127890996955102 0.48412310698583294 0.4460185637518319
0.010329516997444443 0.47923790913532005 0.4460185637518319
0.010647547998814844 0.47239863214460187 0.44894968246213973
0.010885506999329664 0.46165119687347334 0.45481191988275516
0.011082984998211032 0.45481191988275516 0.4557889594528579
0.011286017997917952 0.4450415241817294 0.45481191988275516
0.011499347998324083 0.4333170493404983 0.4587200781631655
0.0117162879978423 0.4323400097703958 0.4606741573033708
0.011935579997953027 0.4303859306301905 0.4636052760136786
0.012137113997596316 0.42159257449926724 0.46262823644357587
0.012328813998465193 0.41670737664875435 0.46458231558378116
0.012553494998428505 0.41182217879824123 0.46458231558378116
0.012746954998874571 0.40986809965803617 0.467513434294089
0.012934932998177828 0.4157303370786516 0.4684904738641915
0.013122410997311817 0.40986809965803617 0.46458231558378116
0.013313147999724606 0.4079140205178309 0.4655593551538837
0.013525680999009637 0.40986809965803617 0.4636052760136786
0.013736102999246214 0.40889106008793363 0.45969711773326827
0.013933599999290891 0.40889106008793363 0.45969711773326827
0.01413200399838388 0.4049829018075233 0.45969711773326827
0.014320518999738852 0.40889106008793363 0.45969711773326827
0.014513625999825308 0.4079140205178309 0.45969711773326827
0.014700677998916944 0.40986809965803617 0.45676599902296044
0.014887878998706583 0.4108451392281387 0.457743038593063
0.015077172000019345 0.40889106008793363 0.457743038593063
0.015266446000168798 0.412799218368344 0.45969711773326827
0.015464904998225393 0.41475329750854906 0.4528578407425501
0.01565597599983448 0.42159257449926724 0.45676599902296044
0.015843379998841556 0.4255007327796776 0.4557889594528579
0.01609546799954842 0.431362970200293 0.45188080117244755
0.01628418699692702 0.4401563263312165 0.4538348803126526
0.016471219998493325 0.44406448461162684 0.4460185637518319
0.01665829099874827 0.45188080117244755 0.44699560332193444
0.016844251000293298 0.45969711773326827 0.4450415241817294
0.017029709997586906 0.4606741573033708 0.44211040547142155
0.017216724998434074 0.46165119687347334 0.441133365901319
0.017403406996891135 0.46165119687347334 0.441133365901319
0.017591347997949924 0.4655593551538837 0.43917928676111373
0.017781770999135915 0.47142159257449934 0.4382022471910112
0.017968322998058284 0.47142159257449934 0.4382022471910112
0.018154356999730226 0.4704445530043966 0.4382022471910112
0.01836155699857045 0.467513434294089 0.4352711284807034
0.018551571996795246 0.46946751343429405 0.43917928676111373
0.01874843800032977 0.467513434294089 0.43917928676111373
0.01893717599887168 0.45676599902296044 0.441133365901319
0.01912667199940188 0.4509037616023448 0.43917928676111373
0.01931520599828218 0.44699560332193444 0.44406448461162684
0.019501961996866157 0.4460185637518319 0.441133365901319
0.019688976997713326 0.44992672203224227 0.44211040547142155
0.019875065998348873 0.4460185637518319 0.44211040547142155
0.020061580999026773 0.44894968246213973 0.4450415241817294
0.020248577999154804 0.4479726428920372 0.4450415241817294
0.02043703699746402 0.45481191988275516 0.44894968246213973
0.020623755997803528 0.457743038593063 0.44992672203224227
0.020811716000025626 0.45676599902296044 0.4557889594528579
0.02100317499935045 0.45676599902296044 0.44894968246213973
0.02119000499806134 0.44992672203224227 0.4509037616023448
0.021376427997893188 0.44406448461162684 0.4538348803126526
0.02156340599685791 0.4333170493404983 0.4538348803126526
0.021750031999545172 0.4255007327796776 0.4538348803126526
0.021936657998594455 0.4264777723497801 0.45481191988275516
0.022124487997643882 0.4264777723497801 0.4509037616023448
0.02233615099976305 0.431362970200293 0.4509037616023448
0.02254059199913172 0.43917928676111373 0.4538348803126526
0.022727865998604102 0.44406448461162684 0.44992672203224227
0.022914158998901257 0.4460185637518319 0.4528578407425501
0.023113340997952037 0.44699560332193444 0.4528578407425501
0.02329967100013164 0.4509037616023448 0.44894968246213973
0.02348709299985785 0.4479726428920372 0.44992672203224227
0.02367412699823035 0.4460185637518319 0.44699560332193444
0.023861530997237423 0.45481191988275516 0.45188080117244755
0.024048786999628646 0.45969711773326827 0.4479726428920372
0.024235764998593368 0.46165119687347334 0.44211040547142155
0.024422779999440536 0.4704445530043966 0.4430874450415241
0.024612461998913204 0.4802149487054226 0.4450415241817294
0.02479951399800484 0.48216902784562765 0.4460185637518319
0.02498697400005767 0.4733756717147044 0.44699560332193444
0.025173728998197475 0.467513434294089 0.44992672203224227
0.025360299998283153 0.4636052760136786 0.44894968246213973
0.025546759999997448 0.46262823644357587 0.44894968246213973
0.02574120099961874 0.4636052760136786 0.4509037616023448
0.025930271000106586 0.4655593551538837 0.45188080117244755
0.02611785999761196 0.4665363947239862 0.457743038593063
0.02630470899748616 0.4665363947239862 0.45969711773326827
0.026497704999201233 0.47728382999511476 0.45481191988275516
0.026702256996941287 0.48900830483634583 0.4587200781631655
0.026889271997788455 0.49877870053737183 0.46165119687347334
0.027078749997599516 0.5036638983878847 0.4606741573033708
0.027267820998531533 0.5017098192476794 0.46458231558378116
0.027454465998744126 0.49682462139716654 0.4606741573033708
0.027641628999845125 0.48900830483634583 0.46262823644357587
0.02782821799701196 0.4802149487054226 0.46262823644357587
0.028014973999233916 0.47728382999511476 0.457743038593063
0.028202007997606415 0.4704445530043966 0.45481191988275516
0.028389281997078797 0.467513434294089 0.45969711773326827
0.028575500997249037 0.4636052760136786 0.4557889594528579
0.028763349997461773 0.45676599902296044 0.457743038593063
0.028950290998182027 0.4528578407425501 0.45481191988275516
0.02913662100036163 0.45188080117244755 0.45481191988275516
0.029323079997993773 0.4479726428920372 0.4557889594528579
0.029509910000342643 0.4460185637518319 0.4509037616023448
0.029697535999730462 0.4430874450415241 0.44699560332193444
0.02988442199784913 0.4430874450415241 0.4509037616023448
0.03007173299920396 0.44406448461162684 0.4509037616023448
0.030258692997449543 0.4430874450415241 0.4509037616023448
0.030459003999567358 0.4479726428920372 0.4509037616023448
0.030645926999568474 0.4479726428920372 0.4528578407425501
0.03083251600037329 0.44699560332193444 0.4538348803126526
0.031020215999888023 0.4460185637518319 0.4528578407425501
0.0312306380001246 0.4460185637518319 0.4557889594528579
0.0314178569969954 0.4460185637518319 0.4528578407425501
0.031604742998752045 0.44211040547142155 0.45481191988275516
0.03179146099864738 0.44406448461162684 0.44992672203224227
0.03197784700023476 0.44406448461162684 0.45188080117244755
0.03216434400019352 0.4479726428920372 0.45188080117244755
0.032350839999708114 0.44699560332193444 0.45188080117244755
0.03254333699806011 0.44699560332193444 0.45676599902296044
0.03274707399759791 0.44894968246213973 0.45188080117244755
0.03297358799682115 0.44211040547142155 0.45481191988275516
0.033190954996825894 0.44211040547142155 0.4538348803126526
0.033413746998121496 0.43624816805080613 0.45188080117244755
0.033641427999100415 0.4323400097703958 0.45188080117244755
0.033888571997522376 0.43429408891060084 0.4509037616023448
0.03411071599839488 0.4352711284807034 0.45188080117244755
0.03431128599913791 0.43722520762090866 0.44894968246213973
0.03451031999793486 0.4430874450415241 0.44992672203224227
0.03471933399850968 0.44211040547142155 0.4479726428920372
0.034912033999717096 0.44699560332193444 0.44699560332193444
0.03510027199808974 0.4479726428920372 0.44699560332193444
0.035287471997435205 0.44699560332193444 0.44992672203224227
0.03547502400033409 0.44699560332193444 0.4450415241817294
0.03566211299767019 0.4460185637518319 0.44894968246213973
0.03584933199817897 0.4528578407425501 0.4460185637518319
0.036036198998772306 0.457743038593063 0.44699560332193444
0.03622356599953491 0.4636052760136786 0.4430874450415241
0.03641032199811889 0.4753297508549097 0.4430874450415241
0.03659702199729509 0.4811919882755251 0.4450415241817294
0.03678444499746547 0.4948705422569615 0.4430874450415241
0.03697158999784733 0.49193942354665365 0.4479726428920372
0.03715854899928672 0.4909623839765511 0.4460185637518319
0.03734510199865326 0.47923790913532005 0.4479726428920372
0.03753180199782946 0.4587200781631655 0.44992672203224227
0.03771852099816897 0.4450415241817294 0.44894968246213973
0.03790538799876231 0.42256961406936977 0.4538348803126526
0.03809379199810792 0.41182217879824123 0.44894968246213973
0.03828126999724191 0.40693698094772834 0.45188080117244755
0.03847104399756063 0.3932584269662922 0.4557889594528579
0.038658206998661626 0.3961895456765998 0.45188080117244755
0.03884518499762635 0.39716658524670256 0.4509037616023448
0.03903232999800821 0.41670737664875435 0.44992672203224227
0.03921997499855934 0.41963849535906195 0.4509037616023448
0.03940706399953342 0.43429408891060084 0.4509037616023448
0.039593505000084406 0.4450415241817294 0.44699560332193444
0.03978076099883765 0.45481191988275516 0.4479726428920372
0.03997529499974917 0.46262823644357587 0.4479726428920372
0.040178808998462046 0.46458231558378116 0.44699560332193444
0.04036984299818869 0.46458231558378116 0.44699560332193444
0.04055993200017838 0.4636052760136786 0.4450415241817294
0.04075248399749398 0.45969711773326827 0.4450415241817294
0.04095101799975964 0.45676599902296044 0.44211040547142155
0.04114342199682142 0.44992672203224227 0.4430874450415241
0.04135726999811595 0.45188080117244755 0.4460185637518319
0.04155850699680741 0.4460185637518319 0.44894968246213973
0.04176015099801589 0.4450415241817294 0.4509037616023448
0.0419559809997736 0.441133365901319 0.44894968246213973
0.04216623599859304 0.4401563263312165 0.45481191988275516
0.04246245299873408 0.43722520762090866 0.4509037616023448
0.04272691099686199 0.44406448461162684 0.45188080117244755
0.04298305499833077 0.4460185637518319 0.4587200781631655
0.04322030999901472 0.4557889594528579 0.4587200781631655
0.04354406299898983 0.46262823644357587 0.45188080117244755
0.043786169997474644 0.47728382999511476 0.45188080117244755
0.044015535997459665 0.4831460674157304 0.4509037616023448
0.044240568997338414 0.48705422569614076 0.4509037616023448
0.04446249099783017 0.48900830483634583 0.44894968246213973
0.04467887599821552 0.48412310698583294 0.44992672203224227
0.04489714999726857 0.47923790913532005 0.4509037616023448
0.045132867999200244 0.4811919882755251 0.44894968246213973
0.045354418998613255 0.48705422569614076 0.4450415241817294
0.045564470998215256 0.495847581827064 0.44406448461162684
0.04577089299709769 0.5026868588177822 0.441133365901319
0.046062055000220425 0.5007327796775769 0.441133365901319
0.046257624999270774 0.4929164631167562 0.4460185637518319
0.04652078700019047 0.4763067904250122 0.4460185637518319
0.046753486996749416 0.467513434294089 0.44699560332193444
0.04697857499922975 0.4528578407425501 0.44406448461162684
0.0472080889994686 0.4450415241817294 0.44699560332193444
0.047415103999810526 0.431362970200293 0.44992672203224227
0.0476435450000281 0.4206155349291647 0.44699560332193444
0.04788789200028987 0.4176844162188569 0.45481191988275516
0.048156719996768516 0.4137762579384465 0.4606741573033708
0.04839104999700794 0.412799218368344 0.46458231558378116
0.04861569399872678 0.40889106008793363 0.4636052760136786
0.04883683799926075 0.41475329750854906 0.45969711773326827
0.04903598199962289 0.4264777723497801 0.46165119687347334
0.04922453399922233 0.43917928676111373 0.45676599902296044
0.04941169799712952 0.44406448461162684 0.45676599902296044
0.049598304998653475 0.4509037616023448 0.4557889594528579
0.049785505998443114 0.44894968246213973 0.4528578407425501
0.049990242998319445 0.4450415241817294 0.44992672203224227
0.05019290599739179 0.44211040547142155 0.4450415241817294
0.05040916099824244 0.4352711284807034 0.4460185637518319
0.05061113899864722 0.4333170493404983 0.4460185637518319
0.0508148019980581 0.4382022471910112 0.44992672203224227
0.05101379799816641 0.441133365901319 0.4479726428920372
0.05121696099740802 0.44211040547142155 0.44699560332193444
0.051416716996754985 0.4430874450415241 0.44894968246213973
0.05162589799874695 0.44699560332193444 0.4509037616023448
0.05187161599678802 0.441133365901319 0.45188080117244755
0.05207733499992173 0.4460185637518319 0.4538348803126526
0.05227879399899393 0.44211040547142155 0.45188080117244755
0.052475900996796554 0.4430874450415241 0.44992672203224227
0.05267400899901986 0.4460185637518319 0.4479726428920372
0.05293126399919856 0.4479726428920372 0.4479726428920372
0.053146296999329934 0.4430874450415241 0.4479726428920372
0.05336982999870088 0.441133365901319 0.4460185637518319
0.053571418997307774 0.4382022471910112 0.44211040547142155
0.05378056299741729 0.4333170493404983 0.44992672203224227
0.05400555899905157 0.4352711284807034 0.4460185637518319
0.05423236999922665 0.43624816805080613 0.4460185637518319
0.05452141999921878 0.4352711284807034 0.44894968246213973
0.05475735999789322 0.4401563263312165 0.4528578407425501
0.05497483799990732 0.441133365901319 0.44894968246213973
0.055175981997308554 0.44699560332193444 0.4538348803126526
0.055368737997923745 0.45188080117244755 0.45188080117244755
0.05560262299695751 0.45481191988275516 0.45188080117244755
0.055806766999012325 0.457743038593063 0.45188080117244755
0.05601007799850777 0.45676599902296044 0.4538348803126526
0.05620390799958841 0.4538348803126526 0.4557889594528579
0.056424644997605355 0.457743038593063 0.45969711773326827
0.05662467799993465 0.46262823644357587 0.4557889594528579
0.05681176699727075 0.46946751343429405 0.45676599902296044
0.05699891199765261 0.4704445530043966 0.45676599902296044
0.057186334997822996 0.47239863214460187 0.4557889594528579
0.05737725699873408 0.4733756717147044 0.457743038593063
0.057564493999961996 0.4684904738641915 0.45676599902296044
0.0577547129978484 0.46262823644357587 0.4538348803126526
0.0579412279985263 0.45969711773326827 0.4538348803126526
0.05812809499911964 0.457743038593063 0.4587200781631655
0.05831883299833862 0.4509037616023448 0.4528578407425501
0.05853016199762351 0.4479726428920372 0.45188080117244755
0.05873567699745763 0.441133365901319 0.4509037616023448
0.058949857997504296 0.43917928676111373 0.4509037616023448
0.059147150997887366 0.4352711284807034 0.45188080117244755
0.05936296199797653 0.44211040547142155 0.45188080117244755
0.059562754999205936 0.4333170493404983 0.44894968246213973
0.05978362099995138 0.4323400097703958 0.44992672203224227
0.05998298799750046 0.43429408891060084 0.45188080117244755
0.06020389100012835 0.431362970200293 0.44894968246213973
0.06041588699736167 0.43429408891060084 0.4538348803126526
0.060615105998294894 0.43429408891060084 0.45481191988275516
0.060824027998023666 0.4323400097703958 0.4509037616023448
0.06102259799808962 0.43624816805080613 0.44992672203224227
0.061228131999087054 0.44211040547142155 0.4479726428920372
0.06146351599818445 0.4460185637518319 0.4479726428920372
0.06168693799918401 0.4538348803126526 0.44699560332193444
0.06188923099762178 0.46165119687347334 0.44894968246213973
0.06208654199872399 0.467513434294089 0.4450415241817294
0.06228864999866346 0.4753297508549097 0.4479726428920372
0.062495479000062915 0.4753297508549097 0.4479726428920372
0.06268880899733631 0.4763067904250122 0.45188080117244755
0.06288756499998271 0.47239863214460187 0.44992672203224227
0.06378445599693805 0.43624816805080613 0.44894968246213973
0.06406024699754198 0.42745481191988266 0.44894968246213973
0.06429668700002367 0.4303859306301905 0.44894968246213973
0.06452544199783006 0.4352711284807034 0.4509037616023448
0.06474840099690482 0.441133365901319 0.44992672203224227
0.06496352699832642 0.4460185637518319 0.4509037616023448
0.0651872269991145 0.44894968246213973 0.4528578407425501
0.06542759299918544 0.45969711773326827 0.44894968246213973
0.06564234799952828 0.4606741573033708 0.44894968246213973
0.06586843699915335 0.4636052760136786 0.44992672203224227
0.06609332099833409 0.4655593551538837 0.44992672203224227
0.06633194699679734 0.4636052760136786 0.44699560332193444
0.06673593899904517 0.4665363947239862 0.44699560332193444
0.06702995299929171 0.4782608695652173 0.4479726428920372
0.0673009109996201 0.47923790913532005 0.44894968246213973
0.06769797800006927 0.4811919882755251 0.45188080117244755
0.06801500899746316 0.4802149487054226 0.4538348803126526
0.06826792999709141 0.47435271128480694 0.44894968246213973
0.06848085199817433 0.47142159257449934 0.44992672203224227
0.0686930339979881 0.467513434294089 0.44992672203224227
0.06889754799703951 0.4606741573033708 0.4430874450415241
0.06910248900021543 0.45676599902296044 0.4430874450415241
0.06930102299884311 0.4528578407425501 0.4401563263312165
0.06951094499891042 0.44894968246213973 0.44211040547142155
0.06972094099910464 0.44992672203224227 0.44211040547142155
0.06992775199978496 0.44992672203224227 0.44992672203224227
0.0701441370001703 0.4479726428920372 0.44894968246213973
0.07043489100033185 0.4479726428920372 0.4528578407425501
0.07066171999758808 0.44699560332193444 0.45676599902296044
0.0708655499984161 0.4450415241817294 0.457743038593063
0.07106486100019538 0.4450415241817294 0.45481191988275516
0.07126520899691968 0.4460185637518319 0.457743038593063
0.07146989099783241 0.4450415241817294 0.4557889594528579
0.0716694059992733 0.4430874450415241 0.45676599902296044
0.07186986499800696 0.44406448461162684 0.45676599902296044
0.07211441599793034 0.4450415241817294 0.4557889594528579
0.0723317269985273 0.44406448461162684 0.4587200781631655
0.07255050099774962 0.44406448461162684 0.46262823644357587
0.07289019800009555 0.44211040547142155 0.467513434294089
0.0731147679980495 0.44406448461162684 0.46165119687347334
0.07335428199803573 0.44406448461162684 0.45969711773326827
0.07359585199810681 0.43917928676111373 0.45676599902296044
0.07382445899929735 0.4401563263312165 0.45481191988275516
0.07407378799689468 0.43722520762090866 0.4509037616023448
0.07433063499775017 0.4323400097703958 0.4538348803126526
0.07465899999806425 0.42745481191988266 0.457743038593063
0.07488775499950862 0.42745481191988266 0.45481191988275516
0.07515460200011148 0.43722520762090866 0.45188080117244755
0.07543242999963695 0.4303859306301905 0.4509037616023448
0.07572462799726054 0.4333170493404983 0.45188080117244755
0.07600664199708262 0.4382022471910112 0.4509037616023448
0.07626658200024394 0.43722520762090866 0.4509037616023448
0.07647700399684254 0.4352711284807034 0.44992672203224227
0.07669292599894106 0.43722520762090866 0.4460185637518319
0.07691832899945439 0.4382022471910112 0.4479726428920372
0.07722926799760899 0.44211040547142155 0.44699560332193444
0.07750500399924931 0.4401563263312165 0.4401563263312165
0.07773448099760571 0.441133365901319 0.43624816805080613
0.07797258799837437 0.4460185637518319 0.43722520762090866
0.07820932399772573 0.45188080117244755 0.43722520762090866
0.07850378199873376 0.4587200781631655 0.43917928676111373
0.07878340599927469 0.47142159257449934 0.44406448461162684
0.0789850139990449 0.47239863214460187 0.44992672203224227
0.0791862879996188 0.4782608695652173 0.44699560332193444
0.07938546999866958 0.47435271128480694 0.44894968246213973
0.07958544699795311 0.47435271128480694 0.44992672203224227
0.07979825799702667 0.4704445530043966 0.45188080117244755
0.08001993899961235 0.467513434294089 0.4538348803126526
0.08024241699968115 0.467513434294089 0.44699560332193444
0.08045709799989709 0.46946751343429405 0.4509037616023448
0.0806882789984229 0.4733756717147044 0.45188080117244755
0.08090434899713728 0.47239863214460187 0.4509037616023448
0.08117295599731733 0.4733756717147044 0.45188080117244755
0.08140398799878312 0.4782608695652173 0.4509037616023448
0.08166209499904653 0.467513434294089 0.4509037616023448
0.0819641079979192 0.4509037616023448 0.4587200781631655
0.08220102999985102 0.43429408891060084 0.4528578407425501
0.08240452599784476 0.4176844162188569 0.4557889594528579
0.08261002200015355 0.40986809965803617 0.457743038593063
0.08279674099685508 0.403028822667318 0.457743038593063
0.08298395999736385 0.3952125061064973 0.45188080117244755
0.08317054899816867 0.39716658524670256 0.45188080117244755
0.08335726799850818 0.3952125061064973 0.4479726428920372
0.08354435699948226 0.39716658524670256 0.4430874450415241
0.0837716489986633 0.4059599413776258 0.44211040547142155
0.08396183099830523 0.42452369320957506 0.43917928676111373
0.08414956799970241 0.4382022471910112 0.4352711284807034
0.08433745399815962 0.45969711773326827 0.4382022471910112
0.08452443199712434 0.4782608695652173 0.43429408891060084
0.08471281699894462 0.4978016609672691 0.43429408891060084
0.08490001799873426 0.5144113336590133 0.4352711284807034
0.08508993999930681 0.533952125061065 0.431362970200293
0.0852776219981024 0.550561797752809 0.4303859306301905
0.08546469299835735 0.5583781143136297 0.431362970200293
0.08565242999975453 0.5613092330239375 0.43429408891060084
0.08583909299704828 0.540791402051783 0.4284318514899854
0.08602658999734558 0.522227650219834 0.431362970200293
0.08621423499789671 0.5007327796775769 0.43429408891060084
0.08640261999971699 0.4811919882755251 0.4352711284807034
0.08659002399872406 0.4655593551538837 0.4352711284807034
0.08677657599764643 0.457743038593063 0.4401563263312165
0.08696316599889542 0.4538348803126526 0.4450415241817294
0.08717816199714434 0.4430874450415241 0.4479726428920372
0.0873649729983299 0.43917928676111373 0.4528578407425501
0.08755156199913472 0.43624816805080613 0.45481191988275516
0.0877375399977609 0.43722520762090866 0.45481191988275516
0.08792411099784658 0.43624816805080613 0.45969711773326827
0.08811064499968779 0.44211040547142155 0.4606741573033708
0.08829728999990039 0.4509037616023448 0.45676599902296044
0.08848369399856892 0.4509037616023448 0.4587200781631655
0.08867035699950065 0.4538348803126526 0.4587200781631655
0.08885685299901525 0.44894968246213973 0.457743038593063
0.08904307199918549 0.441133365901319 0.457743038593063
0.08922980999705032 0.441133365901319 0.4587200781631655
0.08941741699891281 0.43624816805080613 0.45969711773326827
0.08960395099711604 0.4333170493404983 0.46165119687347334
0.0897925769968424 0.4352711284807034 0.4636052760136786
0.08997940699919127 0.4333170493404983 0.4704445530043966
0.09016623699790216 0.431362970200293 0.46946751343429405
0.09038351100025466 0.431362970200293 0.4753297508549097
0.09058196999831125 0.42940889106008795 0.4782608695652173
0.09078142999715055 0.42745481191988266 0.4782608695652173
0.09096916699854773 0.4284318514899854 0.47923790913532005
0.09115668199956417 0.4235466536394723 0.47435271128480694
0.09134408599857124 0.4264777723497801 0.4811919882755251
0.09153354599766317 0.4255007327796776 0.47239863214460187
0.0917223569995258 0.4284318514899854 0.47239863214460187
0.09190957600003458 0.4323400097703958 0.4665363947239862
0.09209649799959152 0.4333170493404983 0.45969711773326827
0.09228334699946572 0.441133365901319 0.4636052760136786
0.09247156600031303 0.441133365901319 0.4606741573033708
0.09266845099773491 0.43429408891060084 0.4606741573033708
0.09286803999930271 0.4323400097703958 0.4587200781631655
0.09305975899769692 0.4255007327796776 0.457743038593063
0.09325303299920051 0.42159257449926724 0.45481191988275516
0.093445973998314 0.4157303370786516 0.45676599902296044
0.09363391499937279 0.40986809965803617 0.4557889594528579
0.09382085600009304 0.40693698094772834 0.45481191988275516
0.09400790799918468 0.40693698094772834 0.45676599902296044
0.09419499700015876 0.4079140205178309 0.457743038593063
0.09440112299853354 0.4108451392281387 0.4538348803126526
0.09459171299749869 0.4157303370786516 0.4538348803126526
0.09481981999851996 0.42256961406936977 0.4557889594528579
0.09501731599812047 0.4255007327796776 0.4528578407425501
0.09520446099850233 0.42745481191988266 0.45481191988275516
0.09539158699772088 0.4284318514899854 0.45969711773326827
0.09557932399911806 0.4284318514899854 0.4509037616023448
0.09577130199977546 0.4333170493404983 0.4509037616023448
0.09595926199835958 0.44211040547142155 0.44992672203224227
0.09614594399681664 0.4430874450415241 0.44894968246213973
0.09633253299762146 0.45188080117244755 0.44894968246213973
0.09651902899713605 0.4684904738641915 0.44992672203224227
0.09670523000022513 0.4782608695652173 0.4479726428920372
0.09689192999940133 0.48705422569614076 0.45188080117244755
0.09707990799870458 0.486077186126038 0.44894968246213973
0.0972668309987057 0.47728382999511476 0.44699560332193444
0.09745401299733203 0.4704445530043966 0.4528578407425501
0.0976418609971006 0.46262823644357587 0.4509037616023448
0.09782980199815938 0.45676599902296044 0.44894968246213973
0.09801618799974676 0.45969711773326827 0.44992672203224227
0.09820203599883826 0.46165119687347334 0.4450415241817294
0.09838968099938938 0.4655593551538837 0.4430874450415241
0.09857769599693711 0.4763067904250122 0.44211040547142155
0.09879913599797874 0.4753297508549097 0.4401563263312165
0.09898724399681669 0.47435271128480694 0.43722520762090866
0.09918451799967443 0.4704445530043966 0.4382022471910112
0.09937845899912645 0.4684904738641915 0.43917928676111373
0.09959395499754464 0.4655593551538837 0.4401563263312165
0.09979615499833017 0.467513434294089 0.43917928676111373
0.09998352199909277 0.46262823644357587 0.4430874450415241
0.10017209299985552 0.457743038593063 0.44699560332193444
0.10035940399757237 0.4557889594528579 0.44699560332193444
0.10054584499812336 0.44406448461162684 0.44992672203224227
0.10073221199854743 0.43429408891060084 0.45188080117244755
0.10091867200026172 0.431362970200293 0.45188080117244755
0.10111083499941742 0.4284318514899854 0.45188080117244755
0.10129977599717677 0.4323400097703958 0.44992672203224227
0.10148610599935637 0.43429408891060084 0.44992672203224227
0.10167269500016118 0.44406448461162684 0.44992672203224227
0.10185941399686271 0.4557889594528579 0.44211040547142155
0.10204598499694839 0.46458231558378116 0.441133365901319
0.10223331499946653 0.47239863214460187 0.4401563263312165
0.1024556259981182 0.4851001465559355 0.4401563263312165
0.10266201099875616 0.4851001465559355 0.4382022471910112
0.10284941499776323 0.49193942354665365 0.44211040547142155
0.10303596700032358 0.4831460674157304 0.4430874450415241
0.10322438899675035 0.4704445530043966 0.4450415241817294
0.10341131199675146 0.457743038593063 0.4460185637518319
0.10359838299700641 0.4479726428920372 0.44992672203224227
0.10378754599878448 0.43917928676111373 0.45188080117244755
0.10397424599796068 0.4352711284807034 0.4509037616023448
0.10416096499830019 0.43429408891060084 0.4528578407425501
0.10434842500035302 0.4401563263312165 0.4538348803126526
0.10453464399688528 0.43917928676111373 0.4528578407425501
0.10472139899866306 0.4430874450415241 0.4538348803126526
0.10490796999874874 0.4479726428920372 0.45481191988275516
0.10509492999699432 0.4538348803126526 0.4538348803126526
0.10528151899779914 0.4606741573033708 0.4528578407425501
0.1054701639986888 0.46262823644357587 0.4557889594528579
0.1056591969972942 0.4655593551538837 0.457743038593063
0.10584767499676673 0.46458231558378116 0.45676599902296044
0.10604261600019527 0.467513434294089 0.457743038593063
0.10622953900019638 0.48216902784562765 0.457743038593063
0.10643553499903646 0.4948705422569615 0.45969711773326827
0.10663036499681766 0.5065950170981925 0.4587200781631655
0.10684871299963561 0.5114802149487054 0.46165119687347334
0.10704356099813594 0.5056179775280898 0.457743038593063
0.10723879799843417 0.495847581827064 0.4528578407425501
0.10743816499962122 0.48705422569614076 0.4557889594528579
0.10763717999725486 0.4763067904250122 0.45481191988275516
0.10784419499759679 0.46946751343429405 0.4557889594528579
0.10805456099842559 0.46262823644357587 0.4528578407425501
0.10825353899781476 0.45969711773326827 0.45481191988275516
0.10845240599883255 0.4538348803126526 0.457743038593063
0.10864560600020923 0.4479726428920372 0.45969711773326827
0.10884547299792757 0.4460185637518319 0.4655593551538837
0.10904354299782426 0.43917928676111373 0.46262823644357587
0.10926476199892932 0.43624816805080613 0.46262823644357587
0.10948038700007601 0.4255007327796776 0.46165119687347334
0.10971419799898285 0.42452369320957506 0.4606741573033708
0.1099762859994371 0.4206155349291647 0.45969711773326827
0.11020448499766644 0.41963849535906195 0.4606741573033708
0.11043053699904704 0.41963849535906195 0.4636052760136786
0.11064136599816266 0.41963849535906195 0.45969711773326827
0.11084563999975217 0.41963849535906195 0.45969711773326827
0.11105678499734495 0.42452369320957506 0.46165119687347334
0.11125352199815097 0.42940889106008795 0.4557889594528579
0.11145207399749779 0.43624816805080613 0.457743038593063
0.11164638499758439 0.44406448461162684 0.4557889594528579
0.1118362889974378 0.4509037616023448 0.45188080117244755
0.11202452599900425 0.457743038593063 0.4557889594528579
0.11222170799737796 0.4636052760136786 0.45188080117244755
0.11242714899708517 0.47239863214460187 0.4509037616023448
0.11265347799781011 0.4802149487054226 0.45676599902296044
0.1128832889990008 0.48412310698583294 0.4538348803126526
0.1131045809997886 0.486077186126038 0.45481191988275516
0.11332498399860924 0.4831460674157304 0.4528578407425501
0.11354740599927027 0.4802149487054226 0.45188080117244755
0.11377358699974138 0.4802149487054226 0.4538348803126526
0.11401686099998187 0.4753297508549097 0.44894968246213973
0.11429713299730793 0.4655593551538837 0.4538348803126526
0.114555535998079 0.45481191988275516 0.45481191988275516
0.11479649499960942 0.4450415241817294 0.4557889594528579
0.11504119399978663 0.4430874450415241 0.45188080117244755
0.1152515969988599 0.441133365901319 0.4538348803126526
0.11544951999894693 0.43917928676111373 0.45676599902296044
0.11564508999799727 0.4333170493404983 0.44992672203224227
0.11587997499736957 0.43429408891060084 0.44992672203224227
0.11609332299849484 0.4235466536394723 0.4450415241817294
0.11628250499779824 0.4206155349291647 0.4401563263312165
0.11647018700023182 0.41182217879824123 0.43917928676111373
0.11665771999832941 0.40889106008793363 0.43917928676111373
0.11684725399754825 0.40986809965803617 0.44211040547142155
0.11703510199731681 0.4137762579384465 0.43722520762090866
0.11722330299744499 0.41475329750854906 0.4382022471910112
0.11741055799939204 0.4235466536394723 0.43917928676111373
0.11759823999818764 0.42256961406936977 0.4430874450415241
0.1177855699970678 0.42452369320957506 0.44406448461162684
0.11797356699753436 0.42745481191988266 0.4479726428920372
0.11816198899759911 0.4264777723497801 0.44699560332193444
0.11838313299813308 0.4255007327796776 0.4460185637518319
0.11857290799889597 0.4264777723497801 0.44894968246213973
0.1187606079984107 0.42940889106008795 0.44699560332193444
0.1189487529991311 0.431362970200293 0.4479726428920372
0.11913615699813818 0.4352711284807034 0.44699560332193444
0.11932331999923917 0.4382022471910112 0.44699560332193444
0.11951148299704073 0.4401563263312165 0.4460185637518319
0.11970136899981298 0.44699560332193444 0.4450415241817294
0.1199014019985043 0.44992672203224227 0.44406448461162684
0.12009152799873846 0.45676599902296044 0.4430874450415241
0.12028004300009343 0.45969711773326827 0.4430874450415241
0.12046765099876211 0.4684904738641915 0.44406448461162684
0.12065509199965163 0.47239863214460187 0.4479726428920372
0.12084342199887033 0.4753297508549097 0.4479726428920372
0.12103164099971764 0.4733756717147044 0.44992672203224227
0.12121989699880942 0.4655593551538837 0.4509037616023448
0.12141009699917049 0.45969711773326827 0.4538348803126526
0.12159744499876979 0.4557889594528579 0.457743038593063
0.12178451599902473 0.4538348803126526 0.4538348803126526
0.12197234599807416 0.4479726428920372 0.4557889594528579
0.12216063899904839 0.4460185637518319 0.45676599902296044
0.12236487599875545 0.44406448461162684 0.45969711773326827
0.12255479899977217 0.43722520762090866 0.457743038593063
0.12274668399913935 0.44211040547142155 0.46262823644357587
0.12293421799768112 0.4450415241817294 0.4587200781631655
0.1231252699981269 0.44992672203224227 0.4636052760136786
0.12331596999865724 0.4557889594528579 0.4655593551538837
0.12350268899899675 0.4606741573033708 0.4636052760136786
0.12369040799967479 0.45969711773326827 0.46458231558378116
0.12387790399952792 0.45676599902296044 0.46262823644357587
0.12406527100029052 0.4587200781631655 0.45969711773326827
0.12428600799830747 0.4460185637518319 0.4587200781631655
0.12447392999820295 0.44406448461162684 0.45969711773326827
0.12466063099782332 0.4450415241817294 0.45969711773326827
0.12484825699721114 0.44894968246213973 0.45969711773326827
0.12503495700002532 0.45676599902296044 0.4538348803126526
0.1252212689978478 0.44992672203224227 0.4528578407425501
0.1254082279992872 0.4509037616023448 0.4538348803126526
0.12559470599808265 0.4538348803126526 0.4509037616023448
0.12578090699753375 0.45969711773326827 0.44894968246213973
0.12597425499916426 0.46165119687347334 0.44992672203224227
0.12617888099703123 0.46165119687347334 0.44699560332193444
0.12641448799695354 0.46262823644357587 0.44992672203224227
0.12662590999752865 0.46458231558378116 0.44894968246213973
0.12681357299879892 0.4655593551538837 0.44992672203224227
0.12700106999909622 0.46262823644357587 0.4557889594528579
0.12718801099981647 0.4655593551538837 0.45481191988275516
0.12737534099869663 0.46458231558378116 0.4479726428920372
0.12756552299833857 0.46262823644357587 0.4430874450415241
0.1277692969997588 0.4606741573033708 0.44406448461162684
0.12798521899821935 0.45969711773326827 0.4430874450415241
0.12817184499726864 0.45969711773326827 0.43722520762090866
0.12835804499991355 0.457743038593063 0.4333170493404983
0.1285444679997454 0.45676599902296044 0.4333170493404983
0.12873050099733518 0.45481191988275516 0.43624816805080613
0.12891731299896492 0.4528578407425501 0.4303859306301905
0.12910425399968517 0.4528578407425501 0.4323400097703958
0.1292901950000669 0.4509037616023448 0.4303859306301905
0.12947713599714916 0.4528578407425501 0.42940889106008795
0.12966415099799633 0.457743038593063 0.4303859306301905
0.12985062899679178 0.457743038593063 0.4303859306301905
0.13003764399763895 0.45481191988275516 0.43624816805080613
0.13022438199914177 0.4587200781631655 0.43624816805080613
0.13041295199946035 0.45481191988275516 0.43722520762090866
0.1306027449973044 0.457743038593063 0.441133365901319
0.13078968599802465 0.4538348803126526 0.4430874450415241
0.1309794239969051 0.45188080117244755 0.4460185637518319
0.13117129099919111 0.4460185637518319 0.44992672203224227
0.1313585459975002 0.43917928676111373 0.44894968246213973
0.1315549689970794 0.4401563263312165 0.44894968246213973
0.13175120599771617 0.441133365901319 0.4528578407425501
0.13195434999943245 0.4401563263312165 0.4557889594528579
0.1321547539992025 0.43624816805080613 0.4655593551538837
0.1323748799986788 0.4333170493404983 0.46458231558378116
0.13256793199980166 0.43429408891060084 0.4684904738641915
0.1327566139989358 0.4323400097703958 0.4665363947239862
0.13294831399980467 0.43917928676111373 0.47142159257449934
0.1331370509979024 0.4333170493404983 0.467513434294089
0.13332515899674036 0.43624816805080613 0.4665363947239862
0.1335144329968898 0.4430874450415241 0.4655593551538837
0.13370392999786418 0.43429408891060084 0.4655593551538837
0.13389255599759053 0.4382022471910112 0.4587200781631655
0.13408144200002425 0.4401563263312165 0.45969711773326827
0.13427151199721266 0.4401563263312165 0.45676599902296044
0.13450406399715575 0.4401563263312165 0.4528578407425501
0.13469361599709373 0.43917928676111373 0.4509037616023448
0.134884074999718 0.4479726428920372 0.45481191988275516
0.135073460998683 0.43722520762090866 0.4509037616023448
0.13526193899815553 0.4382022471910112 0.44992672203224227
0.13545104599688784 0.43722520762090866 0.44992672203224227
0.13563965399953304 0.4382022471910112 0.4460185637518319
0.13583024299805402 0.43624816805080613 0.4401563263312165
0.13604355399729684 0.44211040547142155 0.43917928676111373
0.13623260599706555 0.44211040547142155 0.43917928676111373
0.13641973300036625 0.4430874450415241 0.4401563263312165
0.13660654399791383 0.4460185637518319 0.4382022471910112
0.13679365200005122 0.44406448461162684 0.43722520762090866
0.13698088899764116 0.44211040547142155 0.44211040547142155
0.13716901499719825 0.4430874450415241 0.44406448461162684
0.1373559009989549 0.4479726428920372 0.44894968246213973
0.13754302699817345 0.45188080117244755 0.44992672203224227
0.13773493099870393 0.4538348803126526 0.4557889594528579
0.13792451999688637 0.4587200781631655 0.45481191988275516
0.1381149799999548 0.457743038593063 0.4587200781631655
0.13830282799972338 0.4665363947239862 0.45676599902296044
0.13849184299760964 0.4665363947239862 0.45481191988275516
0.13867893199858372 0.4636052760136786 0.4509037616023448
0.13886579899917706 0.45481191988275516 0.4509037616023448
0.13905333299771883 0.44894968246213973 0.45188080117244755
0.13924027399843908 0.44211040547142155 0.45188080117244755
0.13942666000002646 0.43722520762090866 0.44894968246213973
0.13961328599907574 0.4303859306301905 0.4528578407425501
0.13980181899751187 0.43624816805080613 0.4528578407425501
0.13999542699821177 0.4450415241817294 0.4557889594528579
0.14020807099950616 0.45676599902296044 0.45676599902296044
0.14042975199845387 0.4665363947239862 0.45969711773326827
0.14064163799775997 0.47239863214460187 0.4587200781631655
0.1408397449995391 0.4782608695652173 0.457743038593063
0.14104538899846375 0.4763067904250122 0.4606741573033708
0.141242533998593 0.4763067904250122 0.4606741573033708
0.1414484189990617 0.4831460674157304 0.45969711773326827
0.14165154500005883 0.4802149487054226 0.45969711773326827
0.1418755409977166 0.4831460674157304 0.4636052760136786
0.14210142599768005 0.48900830483634583 0.45969711773326827
0.14230855200003134 0.4909623839765511 0.457743038593063
0.14255582499754382 0.4880312652662433 0.4528578407425501
0.14278917299816385 0.4802149487054226 0.4528578407425501
0.14300155799719505 0.4753297508549097 0.457743038593063
0.143220942998596 0.467513434294089 0.45188080117244755
0.1434372909970989 0.4557889594528579 0.4528578407425501
0.14366350899945246 0.4460185637518319 0.44894968246213973
0.14393324499906157 0.4323400097703958 0.44894968246213973
0.1441721109986247 0.4255007327796776 0.44699560332193444
0.14443056899835938 0.42256961406936977 0.4460185637518319
0.14465880499847117 0.4206155349291647 0.4430874450415241
0.14487770899722818 0.4176844162188569 0.44406448461162684
0.14507996499742148 0.4186614557889594 0.44211040547142155
0.14527957199970842 0.4284318514899854 0.43917928676111373
0.14547034600036568 0.43624816805080613 0.43917928676111373
0.1456595469971944 0.44699560332193444 0.4430874450415241
0.1458474689970899 0.4509037616023448 0.4450415241817294
0.14603596599772573 0.45676599902296044 0.4479726428920372
0.14622385099937674 0.4587200781631655 0.44894968246213973
0.14642397699935827 0.45481191988275516 0.44894968246213973
0.14661280699874624 0.457743038593063 0.4538348803126526
0.14679919300033362 0.45676599902296044 0.45481191988275516
0.14698915199915064 0.4538348803126526 0.45481191988275516
0.1471756299979461 0.4538348803126526 0.457743038593063
0.14736262699807412 0.4538348803126526 0.457743038593063
0.1475488089999999 0.45676599902296044 0.4557889594528579
0.14774856399890268 0.4538348803126526 0.4528578407425501
0.14793565400032094 0.44894968246213973 0.4557889594528579
0.14812326099854545 0.44894968246213973 0.45188080117244755
0.14831027599939262 0.4450415241817294 0.4538348803126526
0.14849714299998595 0.4450415241817294 0.4509037616023448
0.1486856949995854 0.43917928676111373 0.4509037616023448
0.14888693299872102 0.43722520762090866 0.45188080117244755
0.1490858359975391 0.43917928676111373 0.4509037616023448
0.14932220199989388 0.43917928676111373 0.4479726428920372
0.1495522909972351 0.44211040547142155 0.44992672203224227
0.14977717599686002 0.43917928676111373 0.4509037616023448
0.14999089399861987 0.44211040547142155 0.44992672203224227
0.15022096399843576 0.4450415241817294 0.44992672203224227
0.15049036599884857 0.44699560332193444 0.44699560332193444
0.15070215899686445 0.44894968246213973 0.44992672203224227
0.1509011919988552 0.4528578407425501 0.4460185637518319
0.15109500399921671 0.44699560332193444 0.44699560332193444
0.15128324099714519 0.4528578407425501 0.4450415241817294
0.15147095999782323 0.4538348803126526 0.4460185637518319
0.1516581599971687 0.44992672203224227 0.4450415241817294
0.15184495299763512 0.45481191988275516 0.441133365901319
0.152031782999984 0.4509037616023448 0.4479726428920372
0.1522182429980603 0.44699560332193444 0.44894968246213973
0.15240512799937278 0.4479726428920372 0.4509037616023448
0.15259349499683594 0.4460185637518319 0.4528578407425501
0.15278047299943864 0.4479726428920372 0.4528578407425501
0.1529668959992705 0.44406448461162684 0.4557889594528579
0.1531544289973681 0.42940889106008795 0.457743038593063
0.15336194399787928 0.4176844162188569 0.45676599902296044
0.15354981099881115 0.4059599413776258 0.4587200781631655
0.15374204799809377 0.40009770395701016 0.4655593551538837
0.1539380260001053 0.39423546653639474 0.457743038593063
0.1541324669997266 0.3913043478260869 0.457743038593063
0.15432037099890294 0.39228138739618945 0.45188080117244755
0.1545130339982279 0.3903273082559844 0.45676599902296044
0.1547009749992867 0.3981436248168051 0.4538348803126526
0.154888471999584 0.3961895456765998 0.4557889594528579
0.1550751169997966 0.40986809965803617 0.4528578407425501
0.1552634469990153 0.4206155349291647 0.4557889594528579
0.15545014699819149 0.4382022471910112 0.4538348803126526
0.15563795799971558 0.4636052760136786 0.4557889594528579
0.1558273439986806 0.4763067904250122 0.4557889594528579
0.1560147109994432 0.4938935026868587 0.457743038593063
0.15620070699878852 0.5192965315095261 0.45481191988275516
0.15643227699911222 0.5486077186126037 0.45676599902296044
0.15662038499795017 0.5661944308744504 0.45676599902296044
0.15680841900029918 0.5622862725940401 0.4606741573033708
0.15699639699960244 0.5466536394723986 0.4636052760136786
0.15718285599723458 0.5251587689301416 0.4636052760136786
0.15736953799932962 0.5056179775280898 0.46458231558378116
0.15755627599719446 0.4802149487054226 0.4636052760136786
0.1577666049997788 0.46458231558378116 0.4606741573033708
0.15795404599703033 0.4460185637518319 0.45676599902296044
0.1581405429969891 0.43429408891060084 0.45676599902296044
0.15832742799830157 0.4255007327796776 0.457743038593063
0.15853205399980652 0.42159257449926724 0.45188080117244755
0.15871838399834814 0.42159257449926724 0.44699560332193444
0.15890750999824377 0.42256961406936977 0.44211040547142155
0.15910648799763294 0.42256961406936977 0.43917928676111373
0.15931498399731936 0.42452369320957506 0.4401563263312165
0.15953275799984112 0.4235466536394723 0.43917928676111373
0.15972830999817234 0.4255007327796776 0.43917928676111373
0.1599361209991912 0.42940889106008795 0.441133365901319
0.16013535799720557 0.4284318514899854 0.44211040547142155
0.16033011399849784 0.4303859306301905 0.44406448461162684
0.1605285739969986 0.4323400097703958 0.43917928676111373
0.16073021799820708 0.441133365901319 0.4450415241817294
0.16094893599802162 0.44894968246213973 0.4401563263312165
0.16116354299811064 0.44992672203224227 0.44211040547142155
0.16136337299758452 0.45188080117244755 0.4460185637518319
0.16155146199889714 0.45481191988275516 0.441133365901319
0.16174008899906767 0.45676599902296044 0.4479726428920372
0.16193671499786433 0.4636052760136786 0.4450415241817294
0.16212434099725215 0.46262823644357587 0.44894968246213973
0.16231065199826844 0.4704445530043966 0.4450415241817294
0.1625018339982489 0.4704445530043966 0.44699560332193444
0.16268883099837694 0.4665363947239862 0.46458231558378116
0.163409392000176 0.4606741573033708 0.4636052760136786
0.1636204619971977 0.45676599902296044 0.4684904738641915
0.1638264769972011 0.45481191988275516 0.4665363947239862
0.16402154699972016 0.457743038593063 0.46946751343429405
0.16421089599680272 0.4636052760136786 0.4655593551538837
0.16440003999741748 0.4733756717147044 0.46262823644357587
0.1646303879970219 0.48216902784562765 0.457743038593063
0.16481995899812318 0.48705422569614076 0.45676599902296044
0.16500808499768027 0.48900830483634583 0.4528578407425501
0.16519630399852758 0.4909623839765511 0.44894968246213973
0.1653839299979154 0.486077186126038 0.44406448461162684
0.16557135299808579 0.4851001465559355 0.441133365901319
0.1657585709981504 0.467513434294089 0.441133365901319
0.16594649399849004 0.4509037616023448 0.4401563263312165
0.16613437900014105 0.441133365901319 0.43917928676111373
0.1663776709974627 0.4333170493404983 0.4401563263312165
0.16657937099807896 0.4284318514899854 0.4382022471910112
0.16676892299801693 0.4255007327796776 0.4352711284807034
0.16695688300023903 0.4206155349291647 0.43624816805080613
0.16714432399749057 0.4157303370786516 0.4352711284807034
0.16733220999958576 0.40693698094772834 0.4401563263312165
0.1675201139987621 0.4049829018075233 0.4382022471910112
0.16771027699724073 0.4059599413776258 0.43917928676111373
0.16790953199961223 0.41182217879824123 0.43917928676111373
0.1680979179982387 0.4264777723497801 0.44406448461162684
0.16828578499917057 0.441133365901319 0.4479726428920372
0.16847280000001774 0.44992672203224227 0.44699560332193444
0.16865996299748076 0.4587200781631655 0.44894968246213973
0.16884710799786262 0.4606741573033708 0.4557889594528579
0.16903473399725044 0.46165119687347334 0.457743038593063
0.169221693999134 0.46165119687347334 0.46262823644357587
0.16941015299744322 0.46262823644357587 0.45676599902296044
0.1695971679982904 0.4684904738641915 0.45676599902296044
0.16978483200000483 0.47435271128480694 0.457743038593063
0.16997216199888499 0.4782608695652173 0.4538348803126526
0.1701597139981459 0.4811919882755251 0.45969711773326827
0.17037830199842574 0.4802149487054226 0.4528578407425501
0.17056950299956952 0.4763067904250122 0.46165119687347334
0.17075798099904205 0.4753297508549097 0.46165119687347334
0.1709451809983875 0.4655593551538837 0.46262823644357587
0.17113212199910777 0.4606741573033708 0.467513434294089
0.1713191189992358 0.4538348803126526 0.4655593551538837
0.17150613400008297 0.4479726428920372 0.467513434294089
0.17169237099733436 0.4401563263312165 0.4655593551538837
0.1718787199970393 0.43624816805080613 0.46458231558378116
0.17206578999685007 0.42745481191988266 0.4704445530043966
0.17225215699727414 0.4284318514899854 0.4684904738641915
0.17246169099962572 0.4157303370786516 0.4655593551538837
0.17264848400009214 0.4186614557889594 0.457743038593063
0.1728349619988876 0.4186614557889594 0.45969711773326827
0.17302899499918567 0.41963849535906195 0.4557889594528579
0.17321580699717742 0.4206155349291647 0.4557889594528579
0.17340302499724203 0.4264777723497801 0.45188080117244755
0.17358974399758154 0.4284318514899854 0.44894968246213973
0.17377594499703264 0.43624816805080613 0.44406448461162684
0.17396316299709724 0.4450415241817294 0.4401563263312165
0.17414997499872698 0.44992672203224227 0.4430874450415241
0.1743376009981148 0.4557889594528579 0.44211040547142155
0.17455574499763316 0.45676599902296044 0.44211040547142155
0.17474353799843811 0.45676599902296044 0.44211040547142155
0.1749306269994122 0.4528578407425501 0.44406448461162684
0.17511710599865182 0.4509037616023448 0.44894968246213973
0.17530362099932972 0.44894968246213973 0.44699560332193444
0.17549469099685666 0.441133365901319 0.44699560332193444
0.17568659499738715 0.43624816805080613 0.4479726428920372
0.17587798099702923 0.4333170493404983 0.44992672203224227
0.17606658799923025 0.42940889106008795 0.4538348803126526
0.17625334399781423 0.42745481191988266 0.45481191988275516
0.17644039599690586 0.431362970200293 0.45481191988275516
0.17662774499694933 0.4303859306301905 0.45676599902296044
0.17681412999809254 0.4323400097703958 0.4587200781631655
0.17700077499830513 0.4333170493404983 0.46165119687347334
0.17718869799864478 0.4382022471910112 0.46262823644357587
0.1773754529967846 0.44211040547142155 0.46165119687347334
0.17756157999974675 0.4430874450415241 0.46165119687347334
0.17775068699847907 0.4460185637518319 0.46262823644357587
0.17793646199788782 0.44894968246213973 0.4655593551538837
0.178123476998735 0.44992672203224227 0.46262823644357587
0.17832102899774327 0.457743038593063 0.46165119687347334
0.1785324699994817 0.467513434294089 0.45676599902296044
0.1787241139973048 0.47728382999511476 0.457743038593063
0.1789108889970521 0.48705422569614076 0.45676599902296044
0.1790972189992317 0.49193942354665365 0.45481191988275516
0.17928384499828098 0.4978016609672691 0.4538348803126526
0.1794709529967804 0.5026868588177822 0.4509037616023448
0.17965804199775448 0.5056179775280898 0.457743038593063
0.17984524199709995 0.5163654127992183 0.4509037616023448
0.1800327759992797 0.5144113336590133 0.45188080117244755
0.18021969799883664 0.5192965315095261 0.44992672203224227
0.18040747299892246 0.5261358085002443 0.44894968246213973
0.18059474699839484 0.5290669272105519 0.44699560332193444
0.180781761999242 0.5319980459208598 0.4450415241817294
0.18096823999803746 0.5319980459208598 0.4450415241817294
0.1811550519996672 0.5349291646311676 0.4430874450415241
0.18134208499759552 0.5398143624816805 0.44406448461162684
0.18152893399746972 0.533952125061065 0.441133365901319
0.18171561599956476 0.5271128480703469 0.43722520762090866
0.181901685999037 0.5212506106497312 0.43624816805080613
0.18208860899903812 0.5114802149487054 0.43429408891060084
0.1822751049985527 0.5065950170981925 0.43429408891060084
0.1824648799993156 0.4880312652662433 0.4323400097703958
0.1826981349986454 0.46165119687347334 0.44211040547142155
0.18288805699921795 0.43624816805080613 0.4352711284807034
0.18307553499835194 0.3961895456765998 0.43624816805080613
0.18326212499960093 0.36199316072300936 0.441133365901319
0.1834487509986502 0.32975085490962375 0.4430874450415241
0.18363559899808024 0.3082559843673669 0.44406448461162684
0.1838235959985468 0.29164631167562294 0.44406448461162684
0.1840108889991825 0.2887151929653151 0.44699560332193444
0.18419725599960657 0.29946262823644365 0.44894968246213973
0.1843841230001999 0.31704934049829014 0.44894968246213973
0.1845707489992492 0.3424523693209576 0.44992672203224227
0.18475741200018092 0.37176355642403514 0.4557889594528579
0.18494468700009747 0.3932584269662922 0.4538348803126526
0.18513210899982369 0.4079140205178309 0.4528578407425501
0.18531990199699067 0.41963849535906195 0.44992672203224227
0.1855065649979224 0.42256961406936977 0.4479726428920372
0.18569382100031362 0.4284318514899854 0.4538348803126526
0.18588039199676132 0.43624816805080613 0.4479726428920372
0.1860672219991102 0.4382022471910112 0.4479726428920372
0.18625377399803256 0.4382022471910112 0.4479726428920372
0.18645252999704098 0.4460185637518319 0.44699560332193444
0.1866388039998128 0.4450415241817294 0.44992672203224227
0.1868252450003638 0.44699560332193444 0.44699560332193444
0.18701190899810172 0.44894968246213973 0.45188080117244755
0.18719923800017568 0.45188080117244755 0.4538348803126526
0.18738554999799817 0.45188080117244755 0.4557889594528579
0.18757208399983938 0.457743038593063 0.45676599902296044
0.1877587279996078 0.4557889594528579 0.4606741573033708
0.1879462799988687 0.4665363947239862 0.4587200781631655
0.18813485099963145 0.4636052760136786 0.4587200781631655
0.18832243999713683 0.4665363947239862 0.4606741573033708
0.188509454997984 0.47923790913532005 0.457743038593063
0.1886957850001636 0.4851001465559355 0.45969711773326827
0.1888828379996994 0.4948705422569615 0.45969711773326827
0.18906903799870634 0.49682462139716654 0.45969711773326827
0.18925570099963807 0.4938935026868587 0.46165119687347334
0.18945253099809634 0.4938935026868587 0.4606741573033708
0.18963915699714562 0.4978016609672691 0.45676599902296044
0.18985178299772087 0.5007327796775769 0.4587200781631655
0.1900473539972154 0.5026868588177822 0.45481191988275516
0.1902518679999048 0.4929164631167562 0.4587200781631655
0.19054756699915743 0.4851001465559355 0.45676599902296044
0.19075148899719352 0.47923790913532005 0.457743038593063
0.19097491099819308 0.4782608695652173 0.4587200781631655
0.1911701669996546 0.4811919882755251 0.4538348803126526
0.19137755199699313 0.4782608695652173 0.457743038593063
0.19160619600006612 0.47435271128480694 0.4557889594528579
0.19196228199871257 0.46946751343429405 0.45481191988275516
0.19220014799793717 0.4655593551538837 0.45188080117244755
0.19244073599838885 0.4704445530043966 0.4509037616023448
0.19267030599803547 0.46458231558378116 0.44992672203224227
0.1928963569989719 0.4665363947239862 0.4430874450415241
0.1930937979996088 0.4704445530043966 0.4430874450415241
0.19328731299901847 0.4802149487054226 0.44699560332193444
0.19348888399690622 0.47239863214460187 0.44992672203224227
0.19369387999904575 0.47435271128480694 0.441133365901319
0.19391822800025693 0.45188080117244755 0.441133365901319
0.19416598299721954 0.4303859306301905 0.4460185637518319
0.1944766439992236 0.39423546653639474 0.4509037616023448
0.19471565799904056 0.3756717147044455 0.4528578407425501
0.19493193199741654 0.36199316072300936 0.45481191988275516
0.1951771869971708 0.3610161211529066 0.457743038593063
0.1954042750003282 0.3629702002931119 0.44992672203224227
0.1957009729994752 0.3786028334147533 0.4509037616023448
0.1959151179980836 0.3883732291157791 0.4509037616023448
0.1961166509972827 0.4049829018075233 0.4479726428920372
0.1963168879992736 0.42256961406936977 0.44406448461162684
0.1965090699995926 0.4323400097703958 0.441133365901319
0.19670710299760685 0.44211040547142155 0.4382022471910112
0.19693626599837444 0.44211040547142155 0.4352711284807034
0.19716752099702717 0.44406448461162684 0.43917928676111373
0.1973836469987873 0.4538348803126526 0.43917928676111373
0.1975804949979647 0.46458231558378116 0.44211040547142155
0.1977684359990235 0.48216902784562765 0.44406448461162684
0.19795706199874985 0.4909623839765511 0.4450415241817294
0.19814578099976643 0.4948705422569615 0.4479726428920372
0.19833464799739886 0.49682462139716654 0.4450415241817294
0.19855443999767886 0.49877870053737183 0.44406448461162684
0.1987423629980185 0.5046409379579873 0.4450415241817294
0.19892893299766 0.5056179775280898 0.44406448461162684
0.19911546699950122 0.5085490962383976 0.44406448461162684
0.1993024820003484 0.512457254518808 0.45188080117244755
0.19949001599889016 0.5065950170981925 0.4460185637518319
0.19967858599920874 0.48998534440644836 0.44699560332193444
0.19986739799787756 0.46262823644357587 0.4479726428920372
0.20008793099987088 0.44406448461162684 0.4479726428920372
0.200312352997571 0.4137762579384465 0.44894968246213973
0.20050025699674734 0.39912066438690763 0.45481191988275516
0.20068714199805981 0.3913043478260869 0.45676599902296044
0.20087395399968955 0.38935026868588185 0.46165119687347334
0.2010609499993734 0.3952125061064973 0.46458231558378116
0.20124833599766134 0.4206155349291647 0.47239863214460187
0.20143560999713372 0.4264777723497801 0.467513434294089
0.2016219959987211 0.4352711284807034 0.4655593551538837
0.20180910299677635 0.44211040547142155 0.4636052760136786
0.2019953219969466 0.4460185637518319 0.46262823644357587
0.202181392996863 0.4401563263312165 0.4636052760136786
0.20238607399733155 0.4303859306301905 0.46165119687347334
0.2025739229975443 0.4206155349291647 0.4606741573033708
0.202760901000147 0.412799218368344 0.45676599902296044
0.20294854599706014 0.4059599413776258 0.45969711773326827
0.20313656099824584 0.4010747435271129 0.45676599902296044
0.20332937199782464 0.4010747435271129 0.45676599902296044
0.20353999799772282 0.4010747435271129 0.45481191988275516
0.20373153199761873 0.412799218368344 0.4557889594528579
0.20394147199840518 0.4284318514899854 0.45481191988275516
0.204129097997793 0.44211040547142155 0.4528578407425501
0.20431568799904198 0.45188080117244755 0.44894968246213973
0.20450251799775288 0.467513434294089 0.4479726428920372
0.20486797400008072 0.4782608695652173 0.4450415241817294
0.20505745199989178 0.48216902784562765 0.4460185637518319
0.20524363399817958 0.4782608695652173 0.44211040547142155
0.20543055599773652 0.4753297508549097 0.4479726428920372
0.20561742299832986 0.4782608695652173 0.44992672203224227
0.2058052719985426 0.46165119687347334 0.44894968246213973
0.20599237900023581 0.45676599902296044 0.44992672203224227
0.20617863499865052 0.44894968246213973 0.44992672203224227
0.20638670599873876 0.44992672203224227 0.4509037616023448
0.20657647999905748 0.4479726428920372 0.45188080117244755
0.20676421699681669 0.44894968246213973 0.4479726428920372
0.20695469499696628 0.4538348803126526 0.4460185637518319
0.20714276599755976 0.45969711773326827 0.45188080117244755
0.2073296329981531 0.4636052760136786 0.4430874450415241
0.20751770399874658 0.46946751343429405 0.441133365901319
0.2077171629971417 0.47239863214460187 0.43917928676111373
0.20790543699695263 0.4684904738641915 0.441133365901319
0.2080929149997246 0.46946751343429405 0.44406448461162684
0.20829720799883944 0.4636052760136786 0.4460185637518319
0.20851707399924635 0.4636052760136786 0.44894968246213973
0.20870695999838063 0.46458231558378116 0.4528578407425501
0.20890623399827746 0.4684904738641915 0.457743038593063
0.20910593399821664 0.4704445530043966 0.4538348803126526
0.20930278199739405 0.4753297508549097 0.45676599902296044
0.20950063099735416 0.4831460674157304 0.4587200781631655
0.2096904789977998 0.48900830483634583 0.4606741573033708
0.20987753099689144 0.4938935026868587 0.45969711773326827
0.21012100799998734 0.49877870053737183 0.4587200781631655
0.21032613399802358 0.49877870053737183 0.4557889594528579
0.21055020399944624 0.49975574010747437 0.4528578407425501
0.2107390529999975 0.5007327796775769 0.45481191988275516
0.21092941999813775 0.5007327796775769 0.4538348803126526
0.21111632399697555 0.5007327796775769 0.4509037616023448
0.21130428299875348 0.512457254518808 0.45188080117244755
0.21149144700029865 0.5065950170981925 0.4509037616023448
0.2116784429999825 0.5017098192476794 0.45188080117244755
0.21186680999744567 0.495847581827064 0.45188080117244755
0.21205739899960463 0.4811919882755251 0.4557889594528579
0.21224650699878111 0.46165119687347334 0.4538348803126526
0.2124337999994168 0.44699560332193444 0.45481191988275516
0.21262018499692203 0.4323400097703958 0.457743038593063
0.21280707099867868 0.41670737664875435 0.45969711773326827
0.21299465999982203 0.4059599413776258 0.4587200781631655
0.2131813419982791 0.3961895456765998 0.457743038593063
0.2133687089990417 0.38739618954567656 0.45969711773326827
0.21355676099847187 0.38641914997557403 0.4587200781631655
0.21374383199872682 0.3903273082559844 0.45676599902296044
0.21393140199870686 0.39423546653639474 0.4587200781631655
0.21411863999674097 0.39912066438690763 0.4587200781631655
0.21430969199718675 0.4040058622374205 0.4557889594528579
0.21452496599886217 0.4108451392281387 0.4587200781631655
0.2147542019993125 0.42452369320957506 0.45188080117244755
0.21494706899829907 0.4255007327796776 0.44992672203224227
0.21513426899764454 0.4264777723497801 0.44992672203224227
0.21532083999773022 0.412799218368344 0.4509037616023448
0.21550913299870444 0.39716658524670256 0.45188080117244755
0.21569648099830374 0.3786028334147533 0.4538348803126526
0.21588360799796646 0.36980947728383007 0.4538348803126526
0.21607104899885599 0.358085002442599 0.4538348803126526
0.21625956400021096 0.36003908158280407 0.457743038593063
0.2164855409973825 0.37176355642403514 0.4557889594528579
0.21668377799869631 0.37957987298485585 0.45188080117244755
0.21687077499882434 0.39716658524670256 0.44894968246213973
0.21705943799679517 0.41963849535906195 0.44894968246213973
0.21724719399935566 0.44211040547142155 0.44992672203224227
0.21743374599827803 0.46458231558378116 0.4509037616023448
0.21762263199707377 0.48705422569614076 0.4509037616023448
0.21780970199688454 0.4782608695652173 0.45188080117244755
0.2179967729971395 0.4753297508549097 0.4528578407425501
0.2181840289995307 0.4665363947239862 0.4528578407425501
0.2184079139988171 0.457743038593063 0.45481191988275516
0.2185975590000453 0.45188080117244755 0.4538348803126526
0.2187849069996446 0.4528578407425501 0.4479726428920372
0.21897377399727702 0.45481191988275516 0.4479726428920372
0.21916303000034532 0.45676599902296044 0.44699560332193444
0.21935019299780834 0.4684904738641915 0.4479726428920372
0.21953663399835932 0.46946751343429405 0.4479726428920372
0.21972394600015832 0.4733756717147044 0.44992672203224227
0.21991038699707133 0.47728382999511476 0.44992672203224227
0.22009658699971624 0.4782608695652173 0.4509037616023448
0.220285157996841 0.4802149487054226 0.44894968246213973
0.22047163599927444 0.47923790913532005 0.4538348803126526
0.22065807699982543 0.4753297508549097 0.4479726428920372
0.22084440699836705 0.46165119687347334 0.45188080117244755
0.2210308849971625 0.4538348803126526 0.44992672203224227
0.22121730700018816 0.4450415241817294 0.4479726428920372
0.22140471099919523 0.4401563263312165 0.4450415241817294
0.22159194899722934 0.43722520762090866 0.44699560332193444
0.22177900099995895 0.441133365901319 0.441133365901319
0.22196549699947354 0.4460185637518319 0.4430874450415241
0.22215193899683072 0.44894968246213973 0.44211040547142155
0.2223386389996449 0.45676599902296044 0.4352711284807034
0.2225480979977874 0.46262823644357587 0.4401563263312165
0.22273561299880384 0.4763067904250122 0.4382022471910112
0.22292459099844564 0.48900830483634583 0.44211040547142155
0.2231141429983836 0.49975574010747437 0.44211040547142155
0.22330802899887203 0.5056179775280898 0.44406448461162684
0.22350222899694927 0.5056179775280898 0.4460185637518319
0.22370602199953282 0.5046409379579873 0.44992672203224227
0.2239063509987318 0.49975574010747437 0.4538348803126526
0.22410382899761316 0.49193942354665365 0.4557889594528579
0.22430367699780618 0.4733756717147044 0.45969711773326827
0.2244982109987177 0.44894968246213973 0.4587200781631655
0.2247159289981937 0.42745481191988266 0.45969711773326827
0.22500488699733978 0.4176844162188569 0.45969711773326827
0.2252663079998456 0.4157303370786516 0.457743038593063
0.22552180299680913 0.42452369320957506 0.45676599902296044
0.22575185499954387 0.44211040547142155 0.4528578407425501
0.22597236900037387 0.45676599902296044 0.4557889594528579
0.22617106899997452 0.4636052760136786 0.45481191988275516
0.22643360199799645 0.467513434294089 0.457743038593063
0.22664267199797905 0.47142159257449934 0.4557889594528579
0.22685563099730643 0.46946751343429405 0.4538348803126526
0.2271211079969362 0.4684904738641915 0.4528578407425501
0.2273649549970287 0.4665363947239862 0.45188080117244755
0.22759156199754216 0.467513434294089 0.44894968246213973
0.22781648399904952 0.4733756717147044 0.4479726428920372
0.22803429499981576 0.47239863214460187 0.4509037616023448
0.2283485669977381 0.47239863214460187 0.44894968246213973
0.2285862479984644 0.4704445530043966 0.4509037616023448
0.2288346690002072 0.45676599902296044 0.45676599902296044
0.22909140499905334 0.44894968246213973 0.44894968246213973
0.22932206800032873 0.4450415241817294 0.4528578407425501
0.22957719300029567 0.4460185637518319 0.4528578407425501
0.22976824499710347 0.44699560332193444 0.4528578407425501
0.22995533399807755 0.44894968246213973 0.4557889594528579
0.23014251600034186 0.45188080117244755 0.4557889594528579
0.2303291049975087 0.4528578407425501 0.457743038593063
0.23056304499914404 0.4538348803126526 0.457743038593063
0.23075315299865906 0.45676599902296044 0.45676599902296044
0.23093972399874474 0.45676599902296044 0.4557889594528579
0.23112655399745563 0.44992672203224227 0.4538348803126526
0.23136880899983225 0.44406448461162684 0.4538348803126526
0.23159769300036714 0.4450415241817294 0.44894968246213973
0.2317928939992271 0.44992672203224227 0.4509037616023448
0.23198014899753616 0.45969711773326827 0.4479726428920372
0.23216818299988518 0.46458231558378116 0.4460185637518319
0.23235569799726363 0.47239863214460187 0.4430874450415241
0.2325433799996972 0.4811919882755251 0.441133365901319
0.2327311169974564 0.4802149487054226 0.4430874450415241
0.2329171689998475 0.48216902784562765 0.4460185637518319
0.23310383299758541 0.4782608695652173 0.4460185637518319
0.23329184799877112 0.47239863214460187 0.44894968246213973
0.2334793069967418 0.46262823644357587 0.45188080117244755
0.2336664889990061 0.4557889594528579 0.45188080117244755
0.2338535229973786 0.44211040547142155 0.44894968246213973
0.23405794499922195 0.4333170493404983 0.4509037616023448
0.23424521899869433 0.4235466536394723 0.44894968246213973
0.23444936399755534 0.41670737664875435 0.44699560332193444
0.23463665699819103 0.40986809965803617 0.4450415241817294
0.23482404199967277 0.403028822667318 0.44406448461162684
0.23501085399766453 0.3952125061064973 0.441133365901319
0.23519762799696764 0.3903273082559844 0.4430874450415241
0.2353846429978148 0.3883732291157791 0.44211040547142155
0.23557189900020603 0.3913043478260869 0.4479726428920372
0.23575898799754214 0.3932584269662922 0.44894968246213973
0.2359455589976278 0.39423546653639474 0.44699560332193444
0.23613327799830586 0.39716658524670256 0.44894968246213973
0.23632142299902625 0.39912066438690763 0.45188080117244755
0.2365100489987526 0.403028822667318 0.45188080117244755
0.23669737899763277 0.40986809965803617 0.4557889594528579
0.23688428300010855 0.40693698094772834 0.4528578407425501
0.23707111299881944 0.40986809965803617 0.44894968246213973
0.23725796099824947 0.40986809965803617 0.4538348803126526
0.2374450689967489 0.4176844162188569 0.4528578407425501
0.23763317699922482 0.42452369320957506 0.45188080117244755
0.23782009899878176 0.43624816805080613 0.4538348803126526
0.23800674399899435 0.45676599902296044 0.44894968246213973
0.23819327799719758 0.4753297508549097 0.4479726428920372
0.2383811629988486 0.4831460674157304 0.44699560332193444
0.23856939999677707 0.48412310698583294 0.44406448461162684
0.23875680399942212 0.4753297508549097 0.4479726428920372
0.23894417100018472 0.4733756717147044 0.44699560332193444
0.23913201999675948 0.46165119687347334 0.4479726428920372
0.23931875699781813 0.457743038593063 0.45676599902296044
0.2395101429974602 0.45969711773326827 0.44894968246213973
0.23969784299697494 0.46458231558378116 0.4460185637518319
0.2398860799985414 0.4655593551538837 0.44894968246213973
0.24007285499828868 0.46165119687347334 0.44992672203224227
0.24026025899729575 0.45969711773326827 0.44699560332193444
0.24044669999784674 0.4528578407425501 0.44992672203224227
0.24063349299831316 0.4479726428920372 0.44894968246213973
0.24081952599954093 0.45188080117244755 0.44894968246213973
0.2410062269991613 0.45481191988275516 0.44992672203224227
0.24119283399704727 0.4665363947239862 0.4528578407425501
0.2413806089971331 0.4704445530043966 0.45188080117244755
0.24156743899948196 0.4753297508549097 0.4538348803126526
0.24176375000024564 0.4782608695652173 0.4557889594528579
0.24196698699961416 0.47728382999511476 0.4557889594528579
0.24216618699938408 0.4811919882755251 0.45481191988275516
0.24238992399841663 0.47239863214460187 0.457743038593063
0.24259264200009056 0.47435271128480694 0.45969711773326827
0.24278915699687786 0.47239863214460187 0.4587200781631655
0.24299081999924965 0.4733756717147044 0.4587200781631655
0.24319281699717976 0.4704445530043966 0.45969711773326827
0.24337903499690583 0.46946751343429405 0.4606741573033708
0.2435667169993394 0.4665363947239862 0.457743038593063
0.2437543249980081 0.4636052760136786 0.4587200781631655
0.24394296999889775 0.46262823644357587 0.4538348803126526
0.24418298399905325 0.467513434294089 0.45188080117244755
0.24437251699782792 0.467513434294089 0.4479726428920372
0.24455892199694063 0.45969711773326827 0.4479726428920372
0.24474491799992393 0.46262823644357587 0.4450415241817294
0.24493161799910013 0.46262823644357587 0.4479726428920372
0.24511806000009528 0.46946751343429405 0.45188080117244755
0.24530479699751595 0.47142159257449934 0.45188080117244755
0.24549151599785546 0.47142159257449934 0.44406448461162684
0.24567834600020433 0.47142159257449934 0.4479726428920372
0.24586910099969828 0.4753297508549097 0.44699560332193444
0.24605650499870535 0.4753297508549097 0.4479726428920372
0.24624339099682402 0.46946751343429405 0.4479726428920372
0.2464486089993443 0.4655593551538837 0.4430874450415241
0.24663567999959923 0.4665363947239862 0.4460185637518319
0.24682250999831012 0.4557889594528579 0.4479726428920372
0.24700902499898802 0.4509037616023448 0.44894968246213973
0.24719587399886223 0.4479726428920372 0.4479726428920372
0.24738270399757312 0.4460185637518319 0.4460185637518319
0.2475697929985472 0.4479726428920372 0.44894968246213973
0.24776951099920552 0.45188080117244755 0.4401563263312165
0.24796554499698686 0.457743038593063 0.44406448461162684
0.24815224499980104 0.4665363947239862 0.44406448461162684
0.2483384829974966 0.4684904738641915 0.44406448461162684
0.24852560900035314 0.4636052760136786 0.441133365901319
0.24871158699897933 0.44894968246213973 0.4430874450415241
0.24889773199902265 0.43624816805080613 0.4460185637518319
0.24908493199836812 0.41963849535906195 0.44992672203224227
0.24927189200025168 0.4059599413776258 0.44992672203224227
0.24945977699826472 0.3903273082559844 0.44992672203224227
0.24964619999809656 0.3834880312652662 0.4509037616023448
0.24983502999748453 0.38153395212506114 0.4538348803126526
0.25002356299955864 0.38739618954567656 0.4528578407425501
0.25025533699954394 0.39716658524670256 0.45676599902296044
0.25047351799730677 0.4176844162188569 0.4557889594528579
0.2506630520001636 0.431362970200293 0.45481191988275516
0.25085195599967847 0.44894968246213973 0.45481191988275516
0.2510384149973106 0.4587200781631655 0.4557889594528579
0.2512255039982847 0.4763067904250122 0.4587200781631655
0.25141266799982986 0.48412310698583294 0.4538348803126526
0.2516061639980762 0.49877870053737183 0.45969711773326827
0.25179386499803513 0.5026868588177822 0.4587200781631655
0.25198136099788826 0.49975574010747437 0.45969711773326827
0.25216863499736064 0.49193942354665365 0.4636052760136786
0.25235666899970965 0.4851001465559355 0.46262823644357587
0.25254424000013387 0.4704445530043966 0.45969711773326827
0.25273093999931007 0.4606741573033708 0.45676599902296044
0.25291712199759786 0.4606741573033708 0.4587200781631655
0.25310400699891034 0.45481191988275516 0.457743038593063
0.2532908369976212 0.45188080117244755 0.45676599902296044
0.25347764899925096 0.4509037616023448 0.45481191988275516
0.25366436799959047 0.44699560332193444 0.4528578407425501
0.2538506979981321 0.4430874450415241 0.45481191988275516
0.2540477309994458 0.4323400097703958 0.45676599902296044
0.2542354869983683 0.431362970200293 0.45676599902296044
0.2544495759975689 0.4235466536394723 0.45969711773326827
0.25463890599712613 0.41963849535906195 0.45969711773326827
0.2548263649987348 0.41963849535906195 0.457743038593063
0.255013213998609 0.4264777723497801 0.45969711773326827
0.2551995989997522 0.4323400097703958 0.4587200781631655
0.25538737299939385 0.43429408891060084 0.4606741573033708
0.25557453699730104 0.44211040547142155 0.45676599902296044
0.25576179299969226 0.44211040547142155 0.4606741573033708
0.2559478080002009 0.4450415241817294 0.4587200781631655
0.2561346929978754 0.4479726428920372 0.4587200781631655
0.2563212819986802 0.4479726428920372 0.457743038593063
0.25651796399688465 0.4509037616023448 0.4528578407425501
0.2567170719994465 0.4509037616023448 0.45188080117244755
0.2569146610003372 0.45676599902296044 0.44699560332193444
0.25712295300036203 0.4528578407425501 0.4450415241817294
0.2573214869989897 0.4450415241817294 0.4479726428920372
0.25752120499964803 0.44211040547142155 0.44894968246213973
0.25772040499941795 0.43624816805080613 0.44894968246213973
0.2579133279978123 0.43429408891060084 0.4587200781631655
0.2581251939991489 0.4323400097703958 0.45676599902296044
0.25833643099758774 0.4352711284807034 0.46458231558378116
0.25866181399760535 0.4401563263312165 0.4636052760136786
0.2588967909978237 0.44699560332193444 0.4704445530043966
0.25914823099810746 0.457743038593063 0.4684904738641915
0.25939430099970195 0.4665363947239862 0.46946751343429405
0.2596062409975275 0.4733756717147044 0.45676599902296044
0.2598105899996881 0.48412310698583294 0.4528578407425501
0.2600214189988037 0.47435271128480694 0.4430874450415241
0.26024456300001475 0.47142159257449934 0.4430874450415241
0.26048861399976886 0.46458231558378116 0.4430874450415241
0.26076618299703114 0.467513434294089 0.4450415241817294
0.2610384379986499 0.44894968246213973 0.44894968246213973
0.2613406549971842 0.44406448461162684 0.4528578407425501
0.2615959089998796 0.4430874450415241 0.4509037616023448
0.261858163998113 0.44894968246213973 0.4509037616023448
0.2620870669998112 0.45188080117244755 0.4538348803126526
0.26231287799964775 0.44894968246213973 0.45188080117244755
0.26250820699715405 0.44894968246213973 0.45481191988275516
0.26269718499679584 0.4509037616023448 0.4557889594528579
0.26288579299944104 0.4479726428920372 0.45676599902296044
0.263073270998575 0.44699560332193444 0.4528578407425501
0.26326098999925307 0.4450415241817294 0.4509037616023448
0.2634487639988947 0.4352711284807034 0.4509037616023448
0.2636372799970559 0.431362970200293 0.44992672203224227
0.263870089998818 0.4255007327796776 0.4509037616023448
0.2640606979985023 0.42159257449926724 0.44699560332193444
0.2642493059975095 0.4186614557889594 0.4460185637518319
0.26443778399698203 0.4206155349291647 0.44699560332193444
0.2646267989985063 0.4255007327796776 0.44406448461162684
0.26481542499823263 0.4303859306301905 0.4450415241817294
0.2650037549974513 0.4352711284807034 0.44699560332193444
0.26519093699971563 0.441133365901319 0.44894968246213973
0.2653794329999073 0.4460185637518319 0.44699560332193444
0.2655667449980683 0.44992672203224227 0.44699560332193444
0.26575648200014257 0.4538348803126526 0.4479726428920372
0.26594512699739425 0.46458231558378116 0.4509037616023448
0.2661338079997222 0.4753297508549097 0.44699560332193444
0.26632184199843323 0.4909623839765511 0.4479726428920372
0.2665121350000845 0.49193942354665365 0.4460185637518319
0.2667005019975477 0.48900830483634583 0.4450415241817294
0.26688938699953724 0.48216902784562765 0.4450415241817294
0.26709275399844046 0.467513434294089 0.4460185637518319
0.26730811999732396 0.46165119687347334 0.4430874450415241
0.26750530199933564 0.457743038593063 0.44406448461162684
0.2676933359980467 0.45676599902296044 0.4430874450415241
0.2678801289985131 0.4587200781631655 0.4450415241817294
0.2680672919996141 0.4655593551538837 0.45188080117244755
0.2682544549970771 0.4684904738641915 0.45188080117244755
0.268441284999426 0.47728382999511476 0.4538348803126526
0.2686289299999771 0.4851001465559355 0.4557889594528579
0.26881605599919567 0.48705422569614076 0.45481191988275516
0.26900314500016975 0.4831460674157304 0.45969711773326827
0.2691903459999594 0.4909623839765511 0.4606741573033708
0.26937721299691475 0.486077186126038 0.46262823644357587
0.26956411699939054 0.4851001465559355 0.45969711773326827
0.26975116899848217 0.4909623839765511 0.45969711773326827
0.2699378319994139 0.4909623839765511 0.45676599902296044
0.27012477300013416 0.4880312652662433 0.45481191988275516
0.2703113069983374 0.4802149487054226 0.45969711773326827
0.2704994519990578 0.4763067904250122 0.46165119687347334
0.27068657799827633 0.47728382999511476 0.45969711773326827
0.2708732039973256 0.4753297508549097 0.45676599902296044
0.2710601079998014 0.47142159257449934 0.4587200781631655
0.27124671599813155 0.4684904738641915 0.4528578407425501
0.2714330639973923 0.467513434294089 0.4538348803126526
0.2716209499994875 0.46262823644357587 0.4509037616023448
0.2718096319986216 0.4587200781631655 0.4509037616023448
0.2719964429998072 0.44894968246213973 0.44894968246213973
0.2721839949990681 0.43624816805080613 0.4479726428920372
0.27237080699705984 0.42452369320957506 0.4450415241817294
0.2725574329997471 0.40693698094772834 0.44699560332193444
0.27274466999733704 0.3932584269662922 0.4430874450415241
0.2729314449970843 0.38446507083536874 0.44211040547142155
0.27311966299748747 0.38153395212506114 0.43917928676111373
0.2733078269993712 0.3805569125549584 0.4430874450415241
0.27349452699854737 0.38446507083536874 0.44406448461162684
0.27368117199875996 0.38641914997557403 0.4460185637518319
0.2738676499975554 0.3903273082559844 0.44699560332193444
0.2740533869982755 0.39423546653639474 0.44699560332193444
0.2742403470001591 0.39716658524670256 0.4479726428920372
0.2744526579990634 0.403028822667318 0.44699560332193444
0.2746533579993411 0.41182217879824123 0.44992672203224227
0.27489920500011067 0.41963849535906195 0.44894968246213973
0.2751074609986972 0.4255007327796776 0.4509037616023448
0.275309289998404 0.43429408891060084 0.44894968246213973
0.275594173999707 0.441133365901319 0.44992672203224227
0.2757837629978894 0.4460185637518319 0.4450415241817294
0.2759702039984404 0.45188080117244755 0.4430874450415241
0.27615734899882227 0.4528578407425501 0.44211040547142155
0.2763440679991618 0.4528578407425501 0.44406448461162684
0.276530453000305 0.44992672203224227 0.44406448461162684
0.2767168199970911 0.4479726428920372 0.44699560332193444
0.2769040209968807 0.4460185637518319 0.4450415241817294
0.2770914799984894 0.43917928676111373 0.44894968246213973
0.2772834579991468 0.4401563263312165 0.44894968246213973
0.2774703249997401 0.4352711284807034 0.4509037616023448
0.27765739599999506 0.4352711284807034 0.45481191988275516
0.2778449669967813 0.43429408891060084 0.44894968246213973
0.2780315370000608 0.4401563263312165 0.4528578407425501
0.2782180519971007 0.4382022471910112 0.44992672203224227
0.2784168449979916 0.44211040547142155 0.4509037616023448
0.27860576799866976 0.44699560332193444 0.44992672203224227
0.2787923750001937 0.44894968246213973 0.44992672203224227
0.27897872399989865 0.4557889594528579 0.44894968246213973
0.27916723899761564 0.457743038593063 0.44992672203224227
0.27936682799918344 0.45676599902296044 0.4460185637518319
0.2795535099976405 0.45969711773326827 0.4460185637518319
0.27974091400028556 0.46458231558378116 0.44406448461162684
0.2799311509988911 0.4763067904250122 0.44406448461162684
0.2801197589978983 0.48900830483634583 0.4401563263312165
0.28030699599912623 0.5036638983878847 0.4333170493404983
0.2804940109999734 0.5183194919394236 0.4323400097703958
0.2806812299968442 0.5261358085002443 0.43624816805080613
0.2808676899985585 0.533952125061065 0.4352711284807034
0.2810692789971654 0.5388373229115779 0.43917928676111373
0.28126714499740046 0.5310210063507572 0.441133365901319
0.28145795699674636 0.524181729360039 0.4450415241817294
0.2816562679981871 0.5085490962383976 0.45188080117244755
0.2818428389982728 0.5017098192476794 0.45676599902296044
0.28202944599979674 0.4938935026868587 0.4606741573033708
0.28221623900026316 0.4909623839765511 0.4636052760136786
0.28240606899998966 0.4851001465559355 0.4636052760136786
0.2825959919973684 0.4763067904250122 0.4655593551538837
0.28278337699885014 0.467513434294089 0.46946751343429405
0.2829702439994435 0.4509037616023448 0.4684904738641915
0.2831591299982392 0.4401563263312165 0.4704445530043966
0.28334599699883256 0.42159257449926724 0.47142159257449934
0.2835332889990241 0.4079140205178309 0.4684904738641915
0.2837424520002969 0.40009770395701016 0.4684904738641915
0.28392892999909236 0.39228138739618945 0.4655593551538837
0.2841156679969572 0.38641914997557403 0.46458231558378116
0.2843026459995599 0.38251099169516367 0.4606741573033708
0.28448949399898993 0.3786028334147533 0.45676599902296044
0.2846757320003235 0.37469467513434296 0.4509037616023448
0.2848623769968981 0.37274059599413767 0.4509037616023448
0.2850484839982528 0.376648754274548 0.4460185637518319
0.28523518499787315 0.3854421104054715 0.44406448461162684
0.2854224399998202 0.39716658524670256 0.4401563263312165
0.2856087149993982 0.40889106008793363 0.4333170493404983
0.2857951559999492 0.4176844162188569 0.4352711284807034
0.28598165299990796 0.4333170493404983 0.4333170493404983
0.28617327899701195 0.4382022471910112 0.4284318514899854
0.2863715339990449 0.4479726428920372 0.4333170493404983
0.2865598829994269 0.45676599902296044 0.4333170493404983
0.28674673099885695 0.4509037616023448 0.43624816805080613
0.28693319099693326 0.4538348803126526 0.441133365901319
0.28711963199748425 0.45481191988275516 0.44211040547142155
0.28730635099782376 0.457743038593063 0.4460185637518319
0.2874927550001303 0.46458231558378116 0.44699560332193444
0.2876790289992641 0.4665363947239862 0.45188080117244755
0.28786628499801736 0.4753297508549097 0.4538348803126526
0.28805272599856835 0.4763067904250122 0.44992672203224227
0.2882397409994155 0.4811919882755251 0.45188080117244755
0.288426459999755 0.4880312652662433 0.4528578407425501
0.28861299399795826 0.48900830483634583 0.44992672203224227
0.28879963899817085 0.48900830483634583 0.44894968246213973
0.28898589399977936 0.4909623839765511 0.4538348803126526
0.28917240999726346 0.48216902784562765 0.44894968246213973
0.2893586840000353 0.48216902784562765 0.4479726428920372
0.28954510599942296 0.4733756717147044 0.44699560332193444
0.2897326959973725 0.4665363947239862 0.4479726428920372
0.28995758000019123 0.46458231558378116 0.44406448461162684
0.29014898399691447 0.4587200781631655 0.4460185637518319
0.2904495160000806 0.4450415241817294 0.44699560332193444
0.2906594749983924 0.42745481191988266 0.4460185637518319
0.29085978599687223 0.41670737664875435 0.4450415241817294
0.29106418999799644 0.41475329750854906 0.43917928676111373
0.29125768700032495 0.4157303370786516 0.44406448461162684
0.2914630719969864 0.4186614557889594 0.4450415241817294
0.29175595499691553 0.4303859306301905 0.44699560332193444
0.2919795249981689 0.4509037616023448 0.4479726428920372
0.29230513099901145 0.4753297508549097 0.4460185637518319
0.29255838499739184 0.48900830483634583 0.44894968246213973
0.2927896029978001 0.48705422569614076 0.45188080117244755
0.2929931740000029 0.47435271128480694 0.4528578407425501
0.29319602199757355 0.46262823644357587 0.4606741573033708
0.29339807399810525 0.44211040547142155 0.457743038593063
0.29359251499772654 0.42745481191988266 0.45969711773326827
0.2937948629987659 0.42159257449926724 0.45969711773326827
0.2939989890001016 0.4176844162188569 0.4636052760136786
0.2942347619973589 0.4157303370786516 0.46165119687347334
0.2945379229968239 0.41963849535906195 0.4606741573033708
0.29480691899880185 0.4264777723497801 0.46165119687347334
0.2950898210001469 0.43917928676111373 0.45969711773326827
0.29534611299823155 0.4479726428920372 0.45481191988275516
0.2955924039997626 0.4557889594528579 0.45676599902296044
0.2958294929994736 0.46458231558378116 0.457743038593063
0.2960571549992892 0.4606741573033708 0.457743038593063
0.29625500299880514 0.45969711773326827 0.4557889594528579
0.2964425929967547 0.4538348803126526 0.457743038593063
0.29662949699923047 0.44992672203224227 0.457743038593063
0.2968174749985337 0.441133365901319 0.45676599902296044
0.2970075819976046 0.431362970200293 0.45676599902296044
0.2971955049979442 0.4235466536394723 0.457743038593063
0.29738385299788206 0.41475329750854906 0.45969711773326827
0.29757044299913105 0.412799218368344 0.4587200781631655
0.2977576429984765 0.41182217879824123 0.457743038593063
0.297944676996849 0.412799218368344 0.45676599902296044
0.29813115499928244 0.4108451392281387 0.457743038593063
0.2983182069983741 0.412799218368344 0.45481191988275516
0.29851127700021607 0.4157303370786516 0.45188080117244755
0.2986989219971292 0.41963849535906195 0.4460185637518319
0.2988853079987166 0.42745481191988266 0.44406448461162684
0.2990718779983581 0.43624816805080613 0.441133365901319
0.2992588929992053 0.4450415241817294 0.4401563263312165
0.299445704997197 0.44894968246213973 0.4401563263312165
0.2996517009996751 0.457743038593063 0.45188080117244755
0.29984293799861916 0.467513434294089 0.43917928676111373
0.3000298049992125 0.48216902784562765 0.4430874450415241
0.30021667199980584 0.4938935026868587 0.44406448461162684
0.3004030390002299 0.4929164631167562 0.44699560332193444
0.30058959199959645 0.4880312652662433 0.44699560332193444
0.30077705099756713 0.47923790913532005 0.4509037616023448
0.30098913999972865 0.4704445530043966 0.4509037616023448
0.3011759879991587 0.4665363947239862 0.45676599902296044
0.3013627259970235 0.46458231558378116 0.45481191988275516
0.3015497409978707 0.4655593551538837 0.4557889594528579
0.3017361450001772 0.4684904738641915 0.457743038593063
0.3019227160002629 0.46946751343429405 0.44992672203224227
0.30210945299768355 0.47142159257449934 0.44992672203224227
0.3022965979980654 0.467513434294089 0.44699560332193444
0.30248431699874345 0.4684904738641915 0.4479726428920372
0.3026712949977082 0.4655593551538837 0.44406448461162684
0.30287547599800746 0.4655593551538837 0.4450415241817294
0.30306569499953184 0.4684904738641915 0.4460185637518319
0.30325207999703707 0.45969711773326827 0.44992672203224227
0.30343852099758806 0.44992672203224227 0.45188080117244755
0.30362523999792757 0.43624816805080613 0.45481191988275516
0.3038119960001495 0.4264777723497801 0.45969711773326827
0.3039988819982682 0.4137762579384465 0.4606741573033708
0.30418589699911536 0.4059599413776258 0.46165119687347334
0.3043724299968744 0.403028822667318 0.45676599902296044
0.30455983399951947 0.4059599413776258 0.457743038593063
0.304753016000177 0.4206155349291647 0.4636052760136786
0.3049402159995225 0.4323400097703958 0.4528578407425501
0.3051273979981488 0.441133365901319 0.45188080117244755
0.30531467299806536 0.45188080117244755 0.44992672203224227
0.30550194699753774 0.457743038593063 0.44894968246213973
0.30569003599885036 0.46262823644357587 0.44699560332193444
0.30587668099906296 0.4665363947239862 0.44406448461162684
0.30606358499790076 0.4753297508549097 0.4460185637518319
0.3062520629973733 0.4753297508549097 0.44406448461162684
0.30645754099896294 0.4782608695652173 0.4450415241817294
0.3066469999976107 0.4782608695652173 0.4460185637518319
0.30683421899811947 0.47728382999511476 0.4450415241817294
0.30702086399833206 0.4763067904250122 0.44406448461162684
0.3072077309989254 0.4880312652662433 0.44699560332193444
0.30739615299899015 0.49877870053737183 0.4450415241817294
0.30758396499732044 0.5105031753786029 0.44406448461162684
0.30777094299992314 0.5144113336590133 0.44406448461162684
0.30795766200026264 0.5036638983878847 0.4450415241817294
0.3081440659989312 0.48705422569614076 0.4450415241817294
0.3083312290000322 0.4811919882755251 0.4509037616023448
0.308522837000055 0.4763067904250122 0.44894968246213973
0.3087296109988529 0.4831460674157304 0.44992672203224227
0.3089549589967646 0.486077186126038 0.4528578407425501
0.3091593249992002 0.4909623839765511 0.4557889594528579
0.309356839999964 0.48705422569614076 0.45481191988275516
0.30954333699992276 0.4851001465559355 0.4587200781631655
0.30973101899871835 0.47728382999511476 0.45969711773326827
0.3099191820001579 0.4753297508549097 0.45969711773326827
0.31010584499745164 0.4665363947239862 0.45676599902296044
0.3102952310000546 0.46262823644357587 0.46458231558378116
0.3105042269999103 0.46262823644357587 0.4528578407425501
0.3107125749993429 0.46262823644357587 0.44894968246213973
0.3109046819990908 0.46262823644357587 0.45188080117244755
0.3110916609984997 0.45969711773326827 0.4509037616023448
0.31127878699771827 0.45481191988275516 0.4479726428920372
0.31146576500032097 0.45676599902296044 0.44894968246213973
0.3116528539976571 0.44992672203224227 0.44894968246213973
0.3118395909987157 0.4450415241817294 0.44894968246213973
0.31202645799930906 0.44699560332193444 0.44894968246213973
0.3122161959981895 0.4401563263312165 0.4479726428920372
0.3124087659998622 0.43624816805080613 0.44894968246213973
0.3125962630001595 0.4333170493404983 0.4479726428920372
0.31278303699946264 0.4284318514899854 0.44992672203224227
0.31297144099880825 0.4206155349291647 0.45188080117244755
0.3131581969973922 0.412799218368344 0.4528578407425501
0.31334532300024875 0.4059599413776258 0.45481191988275516
0.3135322649977752 0.403028822667318 0.4528578407425501
0.31371911299720523 0.3952125061064973 0.4538348803126526
0.3139064609968045 0.38935026868588185 0.45676599902296044
0.31409390199769405 0.3903273082559844 0.45676599902296044
0.31428102899735677 0.3932584269662922 0.45969711773326827
0.3144786729972111 0.39716658524670256 0.45676599902296044
0.3146804839998367 0.4049829018075233 0.45676599902296044
0.31488283299768227 0.4157303370786516 0.457743038593063
0.31507725499977823 0.42745481191988266 0.457743038593063
0.3152950659969065 0.43429408891060084 0.4528578407425501
0.3154850249993615 0.44211040547142155 0.4538348803126526
0.3156758549994265 0.45481191988275516 0.44699560332193444
0.31586298199908924 0.457743038593063 0.44211040547142155
0.31605042299997876 0.46262823644357587 0.44211040547142155
0.3162367529985204 0.457743038593063 0.4401563263312165
0.3164236009979504 0.45188080117244755 0.4401563263312165
0.31661044899738044 0.4430874450415241 0.44211040547142155
0.31679789099871414 0.4255007327796776 0.44699560332193444
0.31701281299683615 0.4079140205178309 0.44894968246213973
0.317209382999863 0.3952125061064973 0.4509037616023448
0.3173965829992085 0.3854421104054715 0.4528578407425501
0.3175835799993365 0.38446507083536874 0.4538348803126526
0.317770613997709 0.38641914997557403 0.46262823644357587
0.3179574989990215 0.4010747435271129 0.45676599902296044
0.31814484799906495 0.42159257449926724 0.457743038593063
0.3183323439989181 0.44699560332193444 0.4606741573033708
0.3185468960000435 0.4802149487054226 0.4587200781631655
0.3187343179997697 0.5046409379579873 0.4606741573033708
0.3189212409997708 0.512457254518808 0.45969711773326827
0.3191125519988418 0.5105031753786029 0.4606741573033708
0.31929952999780653 0.48998534440644836 0.4587200781631655
0.31948585999998613 0.4655593551538837 0.4557889594528579
0.3196732090000296 0.4538348803126526 0.44894968246213973
0.3198600199975772 0.431362970200293 0.44894968246213973
0.32004633199903765 0.4255007327796776 0.44211040547142155
0.32023347599897534 0.4264777723497801 0.441133365901319
0.32041993599705165 0.4323400097703958 0.4430874450415241
0.32060613599969656 0.441133365901319 0.4430874450415241
0.32079361399883055 0.4509037616023448 0.4382022471910112
0.32098833299824037 0.46165119687347334 0.441133365901319
0.32118108899885556 0.4763067904250122 0.4460185637518319
0.3213756219993229 0.48216902784562765 0.44699560332193444
0.321567007998965 0.48900830483634583 0.44699560332193444
0.321756244997232 0.48998534440644836 0.45676599902296044
0.32194470499962335 0.4851001465559355 0.457743038593063
0.3221333119981864 0.47923790913532005 0.46262823644357587
0.3223205309986952 0.46946751343429405 0.4665363947239862
0.32251549099964905 0.46165119687347334 0.4665363947239862
0.32270315399728133 0.45969711773326827 0.46458231558378116
0.3228912249978748 0.4538348803126526 0.46458231558378116
0.32307851699806633 0.457743038593063 0.4587200781631655
0.3232942729991919 0.46458231558378116 0.45676599902296044
0.32349162099853856 0.4733756717147044 0.4557889594528579
0.3236870429973351 0.4811919882755251 0.4528578407425501
0.32388220699795056 0.4880312652662433 0.4528578407425501
0.3240751109988196 0.4938935026868587 0.45188080117244755
0.3242735139974684 0.5036638983878847 0.4509037616023448
0.3244824549983605 0.5046409379579873 0.4557889594528579
0.324682580998342 0.5075720566682951 0.457743038593063
0.324875078000332 0.5095261358085001 0.4509037616023448
0.325068869999086 0.5046409379579873 0.4528578407425501
0.32527218099858146 0.49877870053737183 0.44992672203224227
0.3255523989973881 0.48998534440644836 0.4460185637518319
0.32576606099974015 0.4802149487054226 0.44894968246213973
0.32597507599712117 0.4655593551538837 0.4479726428920372
0.3261957389986492 0.4430874450415241 0.4479726428920372
0.3264489559987851 0.431362970200293 0.4460185637518319
0.32670935900023323 0.412799218368344 0.4430874450415241
0.326950909999141 0.403028822667318 0.44406448461162684
0.3271510179984034 0.4010747435271129 0.441133365901319
0.32735210699684103 0.4059599413776258 0.441133365901319
0.32754389999900013 0.4157303370786516 0.44211040547142155
0.3277416370001447 0.4176844162188569 0.4450415241817294
0.32792955900004017 0.4176844162188569 0.44406448461162684
0.32812731499871006 0.4137762579384465 0.44699560332193444
0.32832595899890293 0.4059599413776258 0.4538348803126526
0.32852867799738306 0.3981436248168051 0.44992672203224227
0.3287658769986592 0.3961895456765998 0.45188080117244755
0.32903692800027784 0.40986809965803617 0.44699560332193444
0.3293089049984701 0.43722520762090866 0.44894968246213973
0.3295947329970659 0.4655593551538837 0.44406448461162684
0.3299092829984147 0.486077186126038 0.44211040547142155
0.33016972199766315 0.48900830483634583 0.4401563263312165
0.33042086599743925 0.4880312652662433 0.4450415241817294
0.3306473989978258 0.48705422569614076 0.4450415241817294
0.33083569199880003 0.4831460674157304 0.44699560332193444
0.3310991500002274 0.4811919882755251 0.44992672203224227
0.3312919799973315 0.4782608695652173 0.44992672203224227
0.33148117999735405 0.486077186126038 0.4479726428920372
0.3316696579968266 0.4880312652662433 0.45188080117244755
0.3318571179988794 0.48412310698583294 0.4509037616023448
0.3320437069996842 0.4782608695652173 0.4509037616023448
0.3322312589989451 0.467513434294089 0.44699560332193444
0.33241857000029995 0.457743038593063 0.44894968246213973
0.33260627100025886 0.44992672203224227 0.44699560332193444
0.3327941009993083 0.4460185637518319 0.4528578407425501
0.3329809309980192 0.4509037616023448 0.4509037616023448
0.33317198299846496 0.45188080117244755 0.4557889594528579
0.33335881299717585 0.47142159257449934 0.45188080117244755
0.33354590199814993 0.4733756717147044 0.4528578407425501
0.33373274999757996 0.48412310698583294 0.4528578407425501
0.3339201359995059 0.49682462139716654 0.4538348803126526
0.33410765099688433 0.49877870053737183 0.4557889594528579
0.334295258999191 0.4978016609672691 0.45188080117244755
0.33450612500018906 0.49682462139716654 0.45188080117244755
0.33469386299839243 0.4948705422569615 0.4509037616023448
0.33488109999962035 0.4978016609672691 0.4509037616023448
0.3350689299986698 0.48998534440644836 0.4509037616023448
0.33525568599725375 0.47435271128480694 0.4460185637518319
0.3354427009981009 0.4509037616023448 0.44992672203224227
0.33566690099905827 0.41963849535906195 0.45188080117244755
0.33586054499755846 0.3903273082559844 0.45481191988275516
0.336047819997475 0.36492427943331696 0.4528578407425501
0.33623468699806836 0.3453834880312652 0.4557889594528579
0.33642229399993084 0.3287738153395212 0.45969711773326827
0.3366090869967593 0.31900341963849543 0.4636052760136786
0.3367964169992774 0.3160723009281876 0.46165119687347334
0.3369845989982423 0.31704934049829014 0.45969711773326827
0.3371724099997664 0.3307278944797265 0.45676599902296044
0.33735911099938676 0.3414753297508548 0.45676599902296044
0.3375461260002339 0.35710796287249624 0.457743038593063
0.33773302999907173 0.3737176355642404 0.4557889594528579
0.3379197670001304 0.38935026868588185 0.4538348803126526
0.33810735599763575 0.3981436248168051 0.44992672203224227
0.3382950199993502 0.4049829018075233 0.44894968246213973
0.33848294199924567 0.41475329750854906 0.44894968246213973
0.3386710499980836 0.42159257449926724 0.4509037616023448
0.338858323997556 0.431362970200293 0.45188080117244755
0.3390713019980467 0.4401563263312165 0.4528578407425501
0.33925920599722303 0.44992672203224227 0.4587200781631655
0.33944636899832403 0.4587200781631655 0.45969711773326827
0.3396336619989597 0.4665363947239862 0.4655593551538837
0.339821639998263 0.47239863214460187 0.46262823644357587
0.340008636998391 0.4704445530043966 0.45969711773326827
0.3401965589982865 0.4704445530043966 0.46165119687347334
0.3403831479990913 0.47142159257449934 0.4606741573033708
0.3405695889996423 0.4684904738641915 0.46262823644357587
0.3407570119998127 0.4636052760136786 0.4655593551538837
0.3409440459981852 0.45969711773326827 0.46458231558378116
0.34113118999812286 0.45969711773326827 0.46458231558378116
0.34131874299782794 0.4528578407425501 0.4704445530043966
0.34150636899721576 0.45188080117244755 0.467513434294089
0.34169430999827455 0.44992672203224227 0.4665363947239862
0.3418856030002644 0.44699560332193444 0.4655593551538837
0.3420892100002675 0.45188080117244755 0.4587200781631655
0.34250744299788494 0.4479726428920372 0.45188080117244755
0.3427195509975718 0.44894968246213973 0.44992672203224227
0.3429078799999843 0.44992672203224227 0.44406448461162684
0.3430958399985684 0.4509037616023448 0.4382022471910112
0.34328309599732165 0.45188080117244755 0.43624816805080613
0.34347431499918457 0.4557889594528579 0.43624816805080613
0.3436654589968384 0.45676599902296044 0.4352711284807034
0.3438532709988067 0.46262823644357587 0.43722520762090866
0.3440403599997808 0.4665363947239862 0.4382022471910112
0.34422693099986645 0.46946751343429405 0.441133365901319
0.344414778999635 0.46946751343429405 0.441133365901319
0.3446012940003129 0.4733756717147044 0.4479726428920372
0.34478803199817776 0.47142159257449934 0.44894968246213973
0.3449747499980731 0.47435271128480694 0.44894968246213973
0.34516130299743963 0.47923790913532005 0.44894968246213973
0.34534781799811753 0.4851001465559355 0.44894968246213973
0.3455347399976745 0.48998534440644836 0.44699560332193444
0.3457214219997695 0.4938935026868587 0.44699560332193444
0.34590808499706327 0.5017098192476794 0.4450415241817294
0.3460943779973604 0.5144113336590133 0.44211040547142155
0.3462819300002593 0.5319980459208598 0.44211040547142155
0.34647692699945765 0.5476306790425012 0.44406448461162684
0.3466661269994802 0.5495847581827065 0.44699560332193444
0.34686953100026585 0.5515388373229115 0.4479726428920372
0.3470578790002037 0.540791402051783 0.4460185637518319
0.3472445239967783 0.5329750854909623 0.45188080117244755
0.34743363199959276 0.5183194919394236 0.4538348803126526
0.3476202399979229 0.5036638983878847 0.4557889594528579
0.3478068099975644 0.5007327796775769 0.45481191988275516
0.3479946400002518 0.4909623839765511 0.457743038593063
0.3481850999996823 0.48216902784562765 0.4528578407425501
0.348379021997971 0.4782608695652173 0.45188080117244755
0.3485819999987143 0.4733756717147044 0.44992672203224227
0.3487865149982099 0.4684904738641915 0.44992672203224227
0.34897988199736574 0.4704445530043966 0.45188080117244755
0.349168266999186 0.47142159257449934 0.44894968246213973
0.34935487499751616 0.4684904738641915 0.4528578407425501
0.3495411679978133 0.4587200781631655 0.4538348803126526
0.3497279789989989 0.4557889594528579 0.4538348803126526
0.34991725299914833 0.4430874450415241 0.4509037616023448
0.35011580499849515 0.431362970200293 0.4509037616023448
0.35031863499898463 0.42256961406936977 0.45188080117244755
0.3505312419983966 0.40986809965803617 0.45188080117244755
0.3507344789977651 0.3952125061064973 0.4538348803126526
0.3510099739978614 0.38739618954567656 0.45676599902296044
0.35120811899832916 0.38153395212506114 0.4587200781631655
0.35140554099780275 0.3776257938446508 0.45969711773326827
0.3516037409972341 0.38153395212506114 0.4587200781631655
0.35182734899717616 0.3952125061064973 0.45676599902296044
0.35214413900030195 0.4059599413776258 0.4606741573033708
0.3523737830000755 0.4157303370786516 0.4606741573033708
0.3526014089984528 0.42256961406936977 0.4636052760136786
0.3528299409990723 0.4235466536394723 0.4665363947239862
0.35304206699947827 0.4323400097703958 0.46262823644357587
0.35325522999846726 0.4323400097703958 0.46458231558378116
0.35348307799722534 0.4303859306301905 0.4665363947239862
0.3537012959968706 0.4264777723497801 0.46262823644357587
0.35397866099810926 0.4186614557889594 0.4655593551538837
0.354211101999681 0.41182217879824123 0.4636052760136786
0.35448287399776746 0.40986809965803617 0.45969711773326827
0.3547294809977757 0.41182217879824123 0.45969711773326827
0.3549537729995791 0.40986809965803617 0.4538348803126526
0.3552027869991434 0.4186614557889594 0.45481191988275516
0.35541370899954927 0.4284318514899854 0.44699560332193444
0.3556829449989891 0.44211040547142155 0.441133365901319
0.3559234040003503 0.4509037616023448 0.4382022471910112
0.35614519599766936 0.4528578407425501 0.4352711284807034
0.3563510439998936 0.45481191988275516 0.4352711284807034
0.3565443369989225 0.44894968246213973 0.4352711284807034
0.35673140799917746 0.4430874450415241 0.43917928676111373
0.3569184409971058 0.4430874450415241 0.44211040547142155
0.35710551199736074 0.4430874450415241 0.43917928676111373
0.3572923419997096 0.4430874450415241 0.43917928676111373
0.35747959799846285 0.44699560332193444 0.43917928676111373
0.35767535400009365 0.44992672203224227 0.441133365901319
0.35786705399732455 0.44992672203224227 0.4401563263312165
0.35805506899851025 0.44894968246213973 0.43917928676111373
0.3582428429981519 0.45188080117244755 0.4401563263312165
0.35850407899852144 0.44699560332193444 0.4382022471910112
0.35869937199822743 0.4479726428920372 0.441133365901319
0.35888842399799614 0.4479726428920372 0.4401563263312165
0.3590850499967928 0.4538348803126526 0.4430874450415241
0.3592766389992903 0.4557889594528579 0.44699560332193444
0.3594657659996301 0.4606741573033708 0.4460185637518319
0.3596550029978971 0.46946751343429405 0.4479726428920372
0.35985025899935863 0.4802149487054226 0.44992672203224227
0.36003956999775255 0.4929164631167562 0.44992672203224227
0.36026093599866726 0.49877870053737183 0.44894968246213973
0.3604491549995146 0.5036638983878847 0.44992672203224227
0.36065398499704315 0.4880312652662433 0.45188080117244755
0.36084355599814444 0.4782608695652173 0.45188080117244755
0.3610315339974477 0.47142159257449934 0.45481191988275516
0.36121988199738553 0.4655593551538837 0.4557889594528579
0.3614102859974082 0.457743038593063 0.4538348803126526
0.36159844899884774 0.46262823644357587 0.4557889594528579
0.36178674199982197 0.4684904738641915 0.4538348803126526
0.36197486799937906 0.47142159257449934 0.45676599902296044
0.3621623829967575 0.4684904738641915 0.4538348803126526
0.36237806499775616 0.47142159257449934 0.45481191988275516
0.36257535699769505 0.4636052760136786 0.45676599902296044
0.36276446499687154 0.4587200781631655 0.45969711773326827
0.36295325799801503 0.4557889594528579 0.45969711773326827
0.36313986599998316 0.4479726428920372 0.4606741573033708
0.36332651100019575 0.4460185637518319 0.4587200781631655
0.3635135629992874 0.4430874450415241 0.4636052760136786
0.3637011889986752 0.44211040547142155 0.4636052760136786
0.36388798199914163 0.4401563263312165 0.46262823644357587
0.3640770899983181 0.4401563263312165 0.45969711773326827
0.3642639009995037 0.4382022471910112 0.46165119687347334
0.36445104599988554 0.44211040547142155 0.4606741573033708
0.3646381719991041 0.4401563263312165 0.45969711773326827
0.3648243539973919 0.44406448461162684 0.457743038593063
0.36501144299836596 0.4450415241817294 0.457743038593063
0.3651982169976691 0.45188080117244755 0.4557889594528579
0.36538530699908733 0.4557889594528579 0.45676599902296044
0.365571728998475 0.4557889594528579 0.45676599902296044
0.36575905899735517 0.4557889594528579 0.45481191988275516
0.36594622199845617 0.4509037616023448 0.457743038593063
0.36613307099833037 0.45481191988275516 0.45481191988275516
0.3663195299996005 0.45481191988275516 0.45188080117244755
0.3665089709975291 0.45969711773326827 0.4557889594528579
0.36669585699928575 0.4606741573033708 0.4538348803126526
0.36688266799683333 0.4636052760136786 0.44894968246213973
0.36706933199820924 0.45676599902296044 0.4538348803126526
0.3672562539977662 0.45481191988275516 0.4509037616023448
0.3674433619999036 0.4509037616023448 0.45188080117244755
0.36763011799848755 0.4538348803126526 0.4557889594528579
0.3678167999969446 0.45969711773326827 0.457743038593063
0.36801801799811074 0.4684904738641915 0.457743038593063
0.3682138659969496 0.4763067904250122 0.45676599902296044
0.368400973999087 0.47728382999511476 0.4636052760136786
0.3685888599975442 0.4802149487054226 0.4606741573033708
0.36877572699813754 0.47728382999511476 0.46262823644357587
0.3689621309968061 0.47239863214460187 0.46262823644357587
0.3691487750002125 0.46262823644357587 0.457743038593063
0.36933558699820423 0.4509037616023448 0.457743038593063
0.3695222129972535 0.44406448461162684 0.45188080117244755
0.3697090619971277 0.441133365901319 0.45188080117244755
0.3698961509981018 0.431362970200293 0.44894968246213973
0.370082850997278 0.42940889106008795 0.4479726428920372
0.37026979199799825 0.43722520762090866 0.44894968246213973
0.37046028899931116 0.44699560332193444 0.44992672203224227
0.3706469329990796 0.4557889594528579 0.45188080117244755
0.3708341149977059 0.46946751343429405 0.46165119687347334
0.3710216119980032 0.47435271128480694 0.44992672203224227
0.3712087749991042 0.47923790913532005 0.44894968246213973
0.3713962529982382 0.47923790913532005 0.4460185637518319
0.3715866759994242 0.4753297508549097 0.4430874450415241
0.3717753199998697 0.4655593551538837 0.4382022471910112
0.37196248399777687 0.45969711773326827 0.43917928676111373
0.3721499249986664 0.44699560332193444 0.4382022471910112
0.3723367179991328 0.43429408891060084 0.441133365901319
0.3725241219981399 0.4255007327796776 0.441133365901319
0.37271171099928324 0.4176844162188569 0.43917928676111373
0.37289907800004585 0.412799218368344 0.441133365901319
0.3730860189971281 0.40986809965803617 0.4382022471910112
0.3732917739980621 0.40693698094772834 0.44211040547142155
0.373487770997599 0.4040058622374205 0.44211040547142155
0.37367930399705074 0.39912066438690763 0.44211040547142155
0.3738793189986609 0.3952125061064973 0.44211040547142155
0.37407959399934043 0.39716658524670256 0.44406448461162684
0.37427266399754444 0.39716658524670256 0.44211040547142155
0.37453089999689837 0.403028822667318 0.44406448461162684
0.37473010000030627 0.4059599413776258 0.44406448461162684
0.3749489479996555 0.412799218368344 0.441133365901319
0.3751574809975864 0.41670737664875435 0.4460185637518319
0.37539521799772047 0.4255007327796776 0.43624816805080613
0.3756401389982784 0.43722520762090866 0.431362970200293
0.3758894309976313 0.44406448461162684 0.4352711284807034
0.37612157499825116 0.441133365901319 0.4401563263312165
0.3763528489980672 0.43624816805080613 0.43722520762090866
0.37662325099881855 0.4401563263312165 0.441133365901319
0.3768447099973855 0.43722520762090866 0.44211040547142155
0.3770486319990596 0.44211040547142155 0.4450415241817294
0.3772599249969062 0.4450415241817294 0.4450415241817294
0.37746667999817873 0.44992672203224227 0.45481191988275516
0.37772271299763815 0.4538348803126526 0.45481191988275516
0.37800785599756637 0.4665363947239862 0.45676599902296044
0.37823661099901074 0.4831460674157304 0.45969711773326827
0.3785512349968485 0.4948705422569615 0.45676599902296044
0.3788381919985113 0.4831460674157304 0.4557889594528579
0.3791293719987152 0.4665363947239862 0.45969711773326827
0.379365737997432 0.4587200781631655 0.4587200781631655
0.37961749299938674 0.4538348803126526 0.4528578407425501
0.3798697109996283 0.4528578407425501 0.4528578407425501
0.380096261997096 0.44992672203224227 0.4528578407425501
0.38031085100010387 0.44894968246213973 0.45188080117244755
0.3805029029972502 0.4528578407425501 0.4528578407425501
0.380695862997527 0.4528578407425501 0.44699560332193444
0.3808833959992626 0.4587200781631655 0.44992672203224227
0.3810721329973603 0.46165119687347334 0.4509037616023448
0.38129001799825346 0.4655593551538837 0.4509037616023448
0.3814785709982971 0.4636052760136786 0.44699560332193444
0.38166591899789637 0.46458231558378116 0.44699560332193444
0.3818550079995475 0.4655593551538837 0.44894968246213973
0.3820442269970954 0.46262823644357587 0.44894968246213973
0.3822317979975196 0.4665363947239862 0.44894968246213973
0.3824681079968286 0.4733756717147044 0.4479726428920372
0.38265728999977 0.4753297508549097 0.45188080117244755
0.3828440639990731 0.47923790913532005 0.45188080117244755
0.3830307829994126 0.4811919882755251 0.4538348803126526
0.3832185949977429 0.4811919882755251 0.457743038593063
0.38340531299763825 0.48216902784562765 0.4557889594528579
0.3836307349993149 0.4802149487054226 0.4528578407425501
0.3838211019974551 0.47923790913532005 0.4538348803126526
0.3840071729973715 0.47923790913532005 0.4538348803126526
0.38419389199771103 0.467513434294089 0.4509037616023448
0.3843809069985582 0.45481191988275516 0.45188080117244755
0.384568125999067 0.4479726428920372 0.45188080117244755
0.38475460399786243 0.4382022471910112 0.45481191988275516
0.38494248899951344 0.43429408891060084 0.44894968246213973
0.38512946699847816 0.4401563263312165 0.4460185637518319
0.38531727899680845 0.4382022471910112 0.44894968246213973
0.38550566399862873 0.44699560332193444 0.44406448461162684
0.3857068269971933 0.45969711773326827 0.4430874450415241
0.38589471299928846 0.47142159257449934 0.44211040547142155
0.3860832649988879 0.4811919882755251 0.4450415241817294
0.3862700949975988 0.4851001465559355 0.4450415241817294
0.3864681839986588 0.486077186126038 0.44699560332193444
0.38665479199698893 0.47923790913532005 0.4479726428920372
0.3868418069978361 0.4704445530043966 0.4557889594528579
0.3870286919991486 0.4636052760136786 0.45481191988275516
0.38721557799726725 0.4587200781631655 0.4538348803126526
0.3874028889986221 0.4587200781631655 0.45481191988275516
0.3875894779994269 0.45676599902296044 0.4587200781631655
0.38777641900014714 0.4557889594528579 0.4636052760136786
0.38796260099843494 0.45481191988275516 0.46458231558378116
0.38815250499828835 0.4538348803126526 0.46458231558378116
0.38833955699738 0.4538348803126526 0.4665363947239862
0.38852801699977135 0.45188080117244755 0.46458231558378116
0.388715068998863 0.44894968246213973 0.46262823644357587
0.38890167699719314 0.4450415241817294 0.4606741573033708
0.3890885809996689 0.4382022471910112 0.4606741573033708
0.3892747629979567 0.4382022471910112 0.45969711773326827
0.3894611299983808 0.43429408891060084 0.4557889594528579
0.3896478479982761 0.4255007327796776 0.4557889594528579
0.3898475669993786 0.4186614557889594 0.44992672203224227
0.3900355079967994 0.41182217879824123 0.4479726428920372
0.39022289399872534 0.40889106008793363 0.44894968246213973
0.39041153799917083 0.4059599413776258 0.4509037616023448
0.39060027599771274 0.40693698094772834 0.4557889594528579
0.39078723499915213 0.40693698094772834 0.44894968246213973
0.39097350999873015 0.4176844162188569 0.4509037616023448
0.3911607099980756 0.4284318514899854 0.45188080117244755
0.39134809499955736 0.4479726428920372 0.4538348803126526
0.3915342399996007 0.4606741573033708 0.44894968246213973
0.3917212179985654 0.4782608695652173 0.4538348803126526
0.3919105850000051 0.4929164631167562 0.45188080117244755
0.39209737799683353 0.5046409379579873 0.4538348803126526
0.3922842270003457 0.5085490962383976 0.4509037616023448
0.39247498199983966 0.5065950170981925 0.4528578407425501
0.3926675160000741 0.4938935026868587 0.44992672203224227
0.3928730489969894 0.4782608695652173 0.4460185637518319
0.39307495299726725 0.4655593551538837 0.44699560332193444
0.3932689679968462 0.44894968246213973 0.44894968246213973
0.39347931599695585 0.4460185637518319 0.4479726428920372
0.3936676279990934 0.44406448461162684 0.44992672203224227
0.39386586499676923 0.44894968246213973 0.44894968246213973
0.3940551019986742 0.4509037616023448 0.45188080117244755
0.3942429130001983 0.44992672203224227 0.44894968246213973
0.39448594599889475 0.44894968246213973 0.45188080117244755
0.39467747999879066 0.44894968246213973 0.4528578407425501
0.394864346999384 0.4430874450415241 0.45676599902296044
0.3950518429992371 0.44406448461162684 0.4528578407425501
0.39523837699744035 0.441133365901319 0.45676599902296044
0.39542546599841444 0.4323400097703958 0.45481191988275516
0.39561303699883865 0.431362970200293 0.4557889594528579
0.3957998480000242 0.42452369320957506 0.4538348803126526
0.39598658599788905 0.4176844162188569 0.457743038593063
0.3961733229989477 0.4108451392281387 0.45969711773326827
0.3963599119997525 0.40986809965803617 0.45676599902296044
0.3965465379988018 0.41182217879824123 0.457743038593063
0.39673375699931057 0.41670737664875435 0.457743038593063
0.3969213279997348 0.4186614557889594 0.45481191988275516
0.39710904699677485 0.42940889106008795 0.4528578407425501
0.3972952099975373 0.441133365901319 0.45188080117244755
0.39748205799696734 0.45188080117244755 0.44894968246213973
0.3976690919989778 0.45481191988275516 0.44699560332193444
0.39785606999794254 0.45969711773326827 0.44992672203224227
0.39804804799859994 0.4587200781631655 0.44699560332193444
0.3982488219990046 0.4538348803126526 0.45188080117244755
0.3984836509989691 0.44406448461162684 0.4538348803126526
0.39868951799871866 0.43429408891060084 0.4538348803126526
0.3988774959980219 0.4284318514899854 0.4538348803126526
0.39906508499916526 0.4157303370786516 0.4538348803126526
0.3992519519997586 0.40986809965803617 0.4538348803126526
0.39944017099696794 0.4040058622374205 0.45481191988275516
0.3996275939971383 0.40009770395701016 0.45969711773326827
0.39981518299828167 0.4049829018075233 0.45676599902296044
0.40000271600001724 0.4059599413776258 0.45676599902296044
0.4001898979986436 0.41963849535906195 0.4587200781631655
0.4003767649992369 0.4255007327796776 0.4528578407425501
0.4005633169981593 0.43624816805080613 0.4509037616023448
0.4007527579997259 0.4430874450415241 0.4509037616023448
0.40093964399784454 0.4528578407425501 0.44699560332193444
0.40112625199981267 0.46165119687347334 0.44992672203224227
0.40131308199852356 0.4665363947239862 0.4450415241817294
0.40149944899894763 0.467513434294089 0.44406448461162684
0.40168727899799705 0.46458231558378116 0.4382022471910112
0.4018891449995863 0.46262823644357587 0.44894968246213973
0.40207721600017976 0.4636052760136786 0.4382022471910112
0.40226417499798117 0.46165119687347334 0.4382022471910112
0.4024658569978783 0.4587200781631655 0.4382022471910112
0.4026522979984293 0.46262823644357587 0.43624816805080613
0.4028394799970556 0.4655593551538837 0.4401563263312165
0.40302686499853735 0.4684904738641915 0.43917928676111373
0.4032135469969944 0.4704445530043966 0.43917928676111373
0.4034002849984972 0.4665363947239862 0.4460185637518319
0.4035865959995135 0.4655593551538837 0.4430874450415241
0.4037728889998107 0.46165119687347334 0.4450415241817294
0.40396003400019254 0.4538348803126526 0.4460185637518319
0.40414673399936873 0.4430874450415241 0.4479726428920372
0.4043331749999197 0.441133365901319 0.4450415241817294
0.40452152299985755 0.43917928676111373 0.44699560332193444
0.40470844599985867 0.441133365901319 0.44406448461162684
0.40489538699694094 0.44699560332193444 0.4460185637518319
0.4050823279976612 0.45969711773326827 0.4450415241817294
0.4052688619995024 0.46946751343429405 0.44406448461162684
0.4054554510003072 0.47923790913532005 0.4401563263312165
0.40564939199975925 0.486077186126038 0.44406448461162684
0.4058365739983856 0.4880312652662433 0.441133365901319
0.4060234409989789 0.4880312652662433 0.44699560332193444
0.40620997399673797 0.48216902784562765 0.44406448461162684
0.40639848899809294 0.4782608695652173 0.4460185637518319
0.406621782000002 0.4704445530043966 0.44699560332193444
0.40681679699991946 0.4684904738641915 0.4509037616023448
0.4070148299979337 0.4684904738641915 0.4528578407425501
0.40720990099725896 0.4655593551538837 0.457743038593063
0.4074120449986367 0.4684904738641915 0.45676599902296044
0.40761367099912604 0.4684904738641915 0.45188080117244755
0.4078057419974357 0.47923790913532005 0.4538348803126526
0.40799995999987004 0.4811919882755251 0.45188080117244755
0.4081928460000199 0.4802149487054226 0.44699560332193444
0.4084063049995166 0.47239863214460187 0.44894968246213973
0.4086308559999452 0.4528578407425501 0.44699560332193444
0.4088395559992932 0.42940889106008795 0.4460185637518319
0.4090744219975022 0.4049829018075233 0.45188080117244755
0.4093241769987799 0.38739618954567656 0.4450415241817294
0.40953095099757775 0.37274059599413767 0.4460185637518319
0.4097288369994203 0.37274059599413767 0.44699560332193444
0.40992655499940156 0.37957987298485585 0.44894968246213973
0.4101705689972732 0.40693698094772834 0.4528578407425501
0.4104075839968573 0.4352711284807034 0.45969711773326827
0.4106137460003083 0.45481191988275516 0.4606741573033708
0.4108070019974548 0.4655593551538837 0.4606741573033708
0.41100934999849414 0.4684904738641915 0.46458231558378116
0.4112137909978628 0.4704445530043966 0.46262823644357587
0.4114614159989287 0.46458231558378116 0.4704445530043966
