0 0.46165119687347334 0.5065950170981925
0.0015169610001066758 0.46165119687347334 0.5603321934538348
0.002239691999875504 0.45969711773326827 0.5525158768930141
0.0027734059999602323 0.4509037616023448 0.5359062042012701
0.0032402699998783646 0.4401563263312165 0.5095261358085001
0.003699263999806135 0.4333170493404983 0.5017098192476794
0.004154739000114205 0.43429408891060084 0.4851001465559355
0.004610010999840597 0.43624816805080613 0.4450415241817294
0.0050621340001271165 0.4382022471910112 0.42256961406936977
0.0055153499997686595 0.43722520762090866 0.43429408891060084
0.006003009999858477 0.43722520762090866 0.45188080117244755
0.006837034999989555 0.4382022471910112 0.5134342940889105
0.008605565999914688 0.43917928676111373 0.5574010747435272
0.009753884000019752 0.43624816805080613 0.5173424523693209
0.010279153999817936 0.4430874450415241 0.47142159257449934
0.010771721999844885 0.44211040547142155 0.4430874450415241
0.011265992000062397 0.44406448461162684 0.4382022471910112
0.011754652000036003 0.441133365901319 0.4382022471910112
0.01224890499997855 0.4538348803126526 0.43624816805080613
0.012722268999823427 0.4636052760136786 0.41182217879824123
0.013189669999974285 0.467513434294089 0.3883732291157791
0.013655959000061557 0.46458231558378116 0.36492427943331696
0.014241080999909173 0.46165119687347334 0.3678553981436248
0.014795592000155011 0.4587200781631655 0.37957987298485585
0.01541913899973224 0.46262823644357587 0.37957987298485585
0.016039018999890686 0.46458231558378116 0.35222276502198335
0.01686346999986199 0.46165119687347334 0.3209574987787005
0.018419375000121363 0.4665363947239862 0.3756717147044455
0.019125365000036254 0.467513434294089 0.4206155349291647
0.019707542000105605 0.46458231558378116 0.4557889594528579
0.02020731299990075 0.46262823644357587 0.4851001465559355
0.02069562099995892 0.45969711773326827 0.4948705422569615
0.021181743999932223 0.457743038593063 0.49877870053737183
0.021663719000116544 0.4557889594528579 0.4948705422569615
0.022178693000114436 0.45481191988275516 0.4880312652662433
0.022657075000097393 0.4509037616023448 0.5036638983878847
0.02312192099998356 0.4450415241817294 0.5456765999022961
0.02360069199994541 0.4479726428920372 0.5749877870053737
0.02406796300010683 0.441133365901319 0.5720566682950659
0.024536826999792538 0.4401563263312165 0.5554469956033219
0.025022061000072426 0.4401563263312165 0.5476306790425012
0.025508573000024626 0.43722520762090866 0.5427454811919883
0.025975991999985126 0.43429408891060084 0.540791402051783
0.026592927999899985 0.431362970200293 0.5368832437713726
0.0270819960001063 0.4352711284807034 0.524181729360039
0.027565562999825488 0.4303859306301905 0.5036638983878847
0.028046204000020225 0.4284318514899854 0.48705422569614076
0.02853480900012073 0.4255007327796776 0.486077186126038
0.029023728000083793 0.4303859306301905 0.48705422569614076
0.02950353599999289 0.4333170493404983 0.467513434294089
0.02999101099976542 0.44211040547142155 0.4303859306301905
0.0305076330000702 0.44894968246213973 0.37274059599413767
0.030997238000054494 0.44894968246213973 0.3659013190034197
0.03148467499977414 0.4460185637518319 0.40986809965803617
0.03197470599980079 0.4460185637518319 0.46165119687347334
0.03245942100011234 0.45188080117244755 0.457743038593063
0.03293756299990491 0.46262823644357587 0.4382022471910112
0.03341835199989873 0.46458231558378116 0.4333170493404983
0.033897715999955835 0.467513434294089 0.431362970200293
0.03441182000005938 0.46262823644357587 0.42452369320957506
0.03488534999996773 0.4665363947239862 0.3932584269662922
0.03541813899983026 0.4753297508549097 0.3561309233023937
0.03609585200001675 0.4753297508549097 0.33268197361993157
0.03666745500004254 0.4763067904250122 0.32193453834880303
0.03714359700006753 0.47435271128480694 0.29946262823644365
0.03763349700011531 0.4753297508549097 0.2984855886663409
0.038107897999907436 0.46946751343429405 0.3404982901807523
0.03863702099988586 0.467513434294089 0.38153395212506114
0.03913434700007201 0.4606741573033708 0.42745481191988266
0.039612562999991496 0.45969711773326827 0.4831460674157304
0.04007985199996256 0.45481191988275516 0.540791402051783
0.04055047600013495 0.4528578407425501 0.5867122618466047
0.041036449999865 0.4538348803126526 0.6130923302393747
0.04160114599972076 0.4509037616023448 0.6003908158280411
0.042072879999977886 0.44894968246213973 0.5525158768930141
0.04253644799973699 0.441133365901319 0.5290669272105519
0.04298877500013987 0.43429408891060084 0.5046409379579873
0.043451158000152645 0.4333170493404983 0.4665363947239862
0.0439078179997523 0.43429408891060084 0.4352711284807034
0.04436103399984859 0.43429408891060084 0.4333170493404983
0.04481541599989214 0.43624816805080613 0.4401563263312165
0.04527016900010494 0.43917928676111373 0.46262823644357587
0.045724163000159024 0.44211040547142155 0.5075720566682951
0.04620212000008905 0.441133365901319 0.5476306790425012
0.04666161299974192 0.4430874450415241 0.5525158768930141
0.04712208799992368 0.4401563263312165 0.5681485100146555
0.04759939599989593 0.43624816805080613 0.595505617977528
0.048077185999773064 0.4352711284807034 0.6277479237909136
0.04854432799993447 0.4352711284807034 0.6560820713238886
0.049017840000033175 0.4450415241817294 0.6424035173424523
0.049489925999750994 0.4587200781631655 0.5632633121641426
0.049973381999734556 0.47142159257449934 0.4509037616023448
0.05057687399994393 0.47435271128480694 0.3160723009281876
0.05171957999982624 0.4587200781631655 0.2330239374694676
0.0525037729998985 0.4509037616023448 0.3004396678065462
0.05315896799993425 0.4538348803126526 0.34636052760136793
0.053720311999768455 0.45676599902296044 0.3336590131900341
0.05759616499972253 0.4704445530043966 0.42256961406936977
0.05866377999973338 0.47142159257449934 0.441133365901319
0.05944149200013271 0.46165119687347334 0.441133365901319
0.060210147999896435 0.4587200781631655 0.5398143624816805
0.060873693999838 0.44894968246213973 0.5525158768930141
0.061517481000009866 0.4460185637518319 0.5368832437713726
0.06289823999986766 0.4460185637518319 0.486077186126038
0.06400126200014711 0.43429408891060084 0.4802149487054226
0.06469338199985941 0.4303859306301905 0.5446995603321934
0.06523498499973357 0.4284318514899854 0.5779189057156815
0.06592791999992187 0.4323400097703958 0.5808500244259893
0.06650022699977853 0.4323400097703958 0.5691255495847583
0.06702336799980912 0.43624816805080613 0.550561797752809
0.06752639800015459 0.43429408891060084 0.5007327796775769
0.06804568699999436 0.43624816805080613 0.4479726428920372
0.06876812200016502 0.43429408891060084 0.5065950170981925
0.069354242999907 0.4430874450415241 0.5319980459208598
0.07011910299979718 0.45676599902296044 0.45188080117244755
0.07088870300003691 0.4509037616023448 0.40986809965803617
0.07223518499995407 0.44992672203224227 0.3659013190034197
0.07327581799972904 0.45969711773326827 0.36687835857352225
0.07401564199972199 0.45969711773326827 0.3639472398632144
0.07469996500003617 0.45676599902296044 0.36003908158280407
0.0749186660000305 0.45676599902296044 0.358085002442599
0.07516621800004941 0.457743038593063 0.3453834880312652
0.07541580699989936 0.457743038593063 0.3365901319003419
0.07562939699982962 0.4587200781631655 0.3336590131900341
0.07600092899974698 0.46262823644357587 0.3209574987787005
0.07623111099974267 0.4636052760136786 0.3141182217879823
0.0764233489999242 0.4655593551538837 0.3111871030776747
0.0766143649998412 0.4665363947239862 0.3180263800683927
0.07680317699987427 0.4655593551538837 0.3209574987787005
0.07699571100010871 0.46946751343429405 0.33170493404982904
0.07718365299979268 0.467513434294089 0.3404982901807523
0.07737213200016413 0.4655593551538837 0.34929164631167553
0.0775602959997741 0.4655593551538837 0.35906204201270153
0.07774784899993392 0.4684904738641915 0.3659013190034197
0.07793519799997739 0.467513434294089 0.37274059599413767
0.07812310300005265 0.46946751343429405 0.3786028334147533
0.07836600700011331 0.46946751343429405 0.38446507083536874
0.07856854100009514 0.4704445530043966 0.38641914997557403
0.0787644460001502 0.47142159257449934 0.3883732291157791
0.07895227700009855 0.4684904738641915 0.3981436248168051
0.07914016299992 0.4704445530043966 0.4040058622374205
0.07932773499987888 0.4665363947239862 0.412799218368344
0.07951484299974254 0.4684904738641915 0.42940889106008795
0.07970221100003982 0.46262823644357587 0.4430874450415241
0.07988991199999873 0.46165119687347334 0.4557889594528579
0.08007624299989402 0.45969711773326827 0.4636052760136786
0.08026312899983168 0.45676599902296044 0.4655593551538837
0.08044990400003371 0.4557889594528579 0.45676599902296044
0.08063760499999262 0.4509037616023448 0.44406448461162684
0.0808273059997191 0.44992672203224227 0.4333170493404983
0.08101843299982647 0.44992672203224227 0.4333170493404983
0.0812046719997852 0.44894968246213973 0.4401563263312165
0.08139181700016707 0.44992672203224227 0.45188080117244755
0.08158227700005227 0.45188080117244755 0.47142159257449934
0.08177186700004313 0.4479726428920372 0.49193942354665365
0.08195893899983275 0.44894968246213973 0.5007327796775769
0.08215836199997284 0.44894968246213973 0.5163654127992183
0.08234793300016463 0.44894968246213973 0.5310210063507572
0.08253567199972167 0.4479726428920372 0.5466536394723986
0.08272376200011422 0.4450415241817294 0.5652173913043479
0.08291062899979806 0.4430874450415241 0.5779189057156815
0.08309771899985208 0.44406448461162684 0.5925744992672204
0.08328518000007534 0.441133365901319 0.6003908158280411
0.08347141800004465 0.441133365901319 0.6101612115290669
0.08365915600006701 0.44211040547142155 0.6160234489496825
0.08384585700014213 0.4401563263312165 0.6248168050806058
0.08403376199976265 0.43917928676111373 0.6306790425012212
0.08422055599976375 0.4382022471910112 0.6345872007816316
0.08440810899992357 0.4430874450415241 0.6384953590620419
0.08459608800012575 0.43917928676111373 0.6394723986321447
0.0847837520000212 0.4382022471910112 0.643380556912555
0.08497124899986375 0.4382022471910112 0.6443575964826576
0.08515776500007632 0.44211040547142155 0.6511968734733757
0.08534607699994012 0.4352711284807034 0.650219833903273
0.08553494499983572 0.441133365901319 0.6453346360527601
0.08574070099984965 0.43429408891060084 0.6297020029311187
0.08593069900007322 0.4333170493404983 0.6179775280898876
0.0861664919998475 0.4333170493404983 0.5056179775280898
0.08717531100000997 0.431362970200293 0.44699560332193444
0.08865253099975234 0.42940889106008795 0.4782608695652173
0.08891215699986788 0.4333170493404983 0.49975574010747437
0.08914702399988528 0.43624816805080613 0.5105031753786029
0.08937968800000817 0.4382022471910112 0.4782608695652173
0.09005891900005736 0.441133365901319 0.4303859306301905
0.09038297000006423 0.4460185637518319 0.40693698094772834
0.09059104100015247 0.4450415241817294 0.3932584269662922
0.09081805699997858 0.4460185637518319 0.3932584269662922
0.09105499799989047 0.44699560332193444 0.4059599413776258
0.09127443899978971 0.44699560332193444 0.4235466536394723
0.09146830700001374 0.4479726428920372 0.4430874450415241
0.09165658199981408 0.44992672203224227 0.45969711773326827
0.09184619100005875 0.4479726428920372 0.4733756717147044
0.09203796600013447 0.44992672203224227 0.4811919882755251
0.09222640799998771 0.44894968246213973 0.4851001465559355
0.09241471999985151 0.4528578407425501 0.4851001465559355
0.09260256900006425 0.457743038593063 0.4782608695652173
0.09279089999972712 0.46165119687347334 0.4733756717147044
0.09297908200005622 0.46458231558378116 0.46458231558378116
0.09316717199999403 0.46262823644357587 0.45481191988275516
0.09346113099991271 0.467513434294089 0.4430874450415241
0.09368581299986545 0.46458231558378116 0.42745481191988266
0.09451926500014451 0.4665363947239862 0.33268197361993157
0.09479146500007118 0.46262823644357587 0.31900341963849543
0.09500825799977974 0.46946751343429405 0.303370786516854
0.09522416199979489 0.4684904738641915 0.2887151929653151
0.09543639999992592 0.4665363947239862 0.25940400586223733
0.09565599000006841 0.47435271128480694 0.23790913531998048
0.09584928300000684 0.46262823644357587 0.22423058133854412
0.09603829900015626 0.4655593551538837 0.21446018563751834
0.0962259630000517 0.4636052760136786 0.2085979482169027
0.09641357200007405 0.4655593551538837 0.21250610649731305
0.09660071700000117 0.467513434294089 0.22911577918905723
0.09678917800010822 0.4636052760136786 0.24181729360039084
0.09697671200001423 0.4636052760136786 0.2603810454323401
0.09716363600000477 0.4684904738641915 0.27992183683439187
0.09735039199995299 0.4636052760136786 0.3063019052271616
0.09753751900007046 0.46165119687347334 0.3209574987787005
0.09774346099993636 0.46262823644357587 0.3404982901807523
0.09800975300004211 0.4636052760136786 0.36003908158280407
0.0982251760001418 0.47142159257449934 0.36003908158280407
0.09843858099975478 0.46458231558378116 0.358085002442599
0.09863698599974668 0.4684904738641915 0.34929164631167553
0.0988376860000244 0.46946751343429405 0.35417684416218864
0.09904838700003893 0.467513434294089 0.36199316072300936
0.09924477300000945 0.4665363947239862 0.3776257938446508
0.09945923299983406 0.4636052760136786 0.3932584269662922
0.09964667499980351 0.46165119687347334 0.41182217879824123
0.09983383899998444 0.457743038593063 0.43429408891060084
0.10002178100012316 0.4557889594528579 0.4557889594528579
0.10020988999986002 0.4528578407425501 0.4782608695652173
0.10039699799972368 0.44992672203224227 0.4938935026868587
0.10058632899972508 0.44992672203224227 0.5036638983878847
0.10077241899989531 0.44894968246213973 0.5163654127992183
0.10096349000014015 0.44992672203224227 0.5105031753786029
0.10115346900010991 0.4509037616023448 0.5075720566682951
0.10134163299971988 0.4538348803126526 0.5026868588177822
0.10153002000015476 0.4528578407425501 0.5007327796775769
0.10171844299975419 0.4557889594528579 0.5026868588177822
0.10190518099989276 0.45676599902296044 0.49877870053737183
0.10209397500011619 0.45969711773326827 0.49877870053737183
0.10230008300004556 0.457743038593063 0.5017098192476794
0.10249371000008978 0.4557889594528579 0.5065950170981925
0.10270150299993475 0.4538348803126526 0.5065950170981925
0.10291666700004498 0.44992672203224227 0.5026868588177822
0.10313866399974359 0.44992672203224227 0.5017098192476794
0.10350443700008327 0.4479726428920372 0.5065950170981925
0.10369830399986313 0.44699560332193444 0.5183194919394236
0.10388541300017096 0.44699560332193444 0.5232046897899365
0.10407490999978108 0.4460185637518319 0.5359062042012701
0.10426190799989854 0.4450415241817294 0.5427454811919883
0.10445014600009017 0.4460185637518319 0.5476306790425012
0.10463740199975291 0.44992672203224227 0.5486077186126037
0.10482408500001839 0.4430874450415241 0.550561797752809
0.10501119399987147 0.4430874450415241 0.5486077186126037
0.1051983580000524 0.43917928676111373 0.5554469956033219
0.1053860590000113 0.4382022471910112 0.5564240351734244
0.10557548199994926 0.43722520762090866 0.5661944308744504
0.10576320200016198 0.43624816805080613 0.5749877870053737
0.10595097699979306 0.4333170493404983 0.58866634098681
0.10617132600009427 0.4323400097703958 0.6062530532486565
0.10637867500008724 0.4333170493404983 0.6189545676599901
0.10658033799973055 0.4323400097703958 0.6345872007816316
0.10678181699995548 0.4333170493404983 0.643380556912555
0.10700133299997105 0.43429408891060084 0.6511968734733757
0.10719281100000444 0.4333170493404983 0.6570591108939912
0.10737995699992098 0.4352711284807034 0.650219833903273
0.10756723199983753 0.4333170493404983 0.6453346360527601
0.10775354399993375 0.4323400097703958 0.6306790425012212
0.10793981999995594 0.43429408891060084 0.6150464093795798
0.1081320019998202 0.43429408891060084 0.6023448949682462
0.10831977699990603 0.43429408891060084 0.5779189057156815
0.10850721899987548 0.4323400097703958 0.5593551538837322
0.10869419799973912 0.431362970200293 0.5349291646311676
0.10888208400001531 0.431362970200293 0.5095261358085001
0.10906947100011166 0.4303859306301905 0.48412310698583294
0.10925731999986965 0.431362970200293 0.457743038593063
0.10944489099983912 0.4303859306301905 0.43429408891060084
0.10963129599986132 0.4323400097703958 0.4108451392281387
0.10981770099988353 0.43624816805080613 0.3952125061064973
0.11000490200012791 0.43624816805080613 0.38739618954567656
0.11020095499998206 0.441133365901319 0.3883732291157791
0.11041900700001861 0.44406448461162684 0.3903273082559844
0.11061952299996847 0.44406448461162684 0.39912066438690763
0.11103374000003896 0.44992672203224227 0.4176844162188569
0.11144017900005565 0.44894968246213973 0.42452369320957506
0.11171374900004594 0.45188080117244755 0.42256961406936977
0.11190398700000515 0.4528578407425501 0.4206155349291647
0.11209335500007 0.45188080117244755 0.4235466536394723
0.1122804259998702 0.45188080117244755 0.4206155349291647
0.11246790499990311 0.45481191988275516 0.412799218368344
0.11265734700009489 0.457743038593063 0.4059599413776258
0.11284478900006434 0.46165119687347334 0.39423546653639474
0.11303356400003395 0.4636052760136786 0.3883732291157791
0.11322011699985524 0.4636052760136786 0.39423546653639474
0.11340646600001492 0.46458231558378116 0.3952125061064973
0.11360135199993238 0.46458231558378116 0.3981436248168051
0.11379225700011375 0.46458231558378116 0.4010747435271129
0.11398169899985078 0.4665363947239862 0.4049829018075233
0.1142229550000593 0.4665363947239862 0.4108451392281387
0.11442761899979814 0.46458231558378116 0.4157303370786516
0.11461856000005355 0.467513434294089 0.4157303370786516
0.1148102239999389 0.4655593551538837 0.41670737664875435
0.11500094399980298 0.4636052760136786 0.4108451392281387
0.1151914779998151 0.4655593551538837 0.4079140205178309
0.11538380899992262 0.4704445530043966 0.40009770395701016
0.11557480600004055 0.467513434294089 0.3883732291157791
0.11576408200016886 0.467513434294089 0.3707865168539326
0.11595372700003281 0.4684904738641915 0.3453834880312652
0.11614435399997092 0.4733756717147044 0.32193453834880303
0.11634635099972002 0.4684904738641915 0.293600390815828
0.11653729299996485 0.46946751343429405 0.2789447972642891
0.11672842000007222 0.4684904738641915 0.27992183683439187
0.1169188989997565 0.46946751343429405 0.2867611138251098
0.11710863700000118 0.46946751343429405 0.30239374694675125
0.11729926399993928 0.4665363947239862 0.3209574987787005
0.11748926100017343 0.467513434294089 0.3365901319003419
0.11767901799976244 0.46946751343429405 0.34929164631167553
0.1178877930001363 0.4655593551538837 0.3688324377137273
0.11810440099998232 0.4655593551538837 0.3805569125549584
0.11831150899979548 0.4684904738641915 0.3981436248168051
0.11853172800010725 0.47142159257449934 0.40889106008793363
0.11893890800001827 0.47239863214460187 0.43917928676111373
0.11918882999998459 0.47239863214460187 0.45188080117244755
0.1193819390000499 0.47239863214460187 0.46165119687347334
0.11957338100000925 0.4704445530043966 0.4655593551538837
0.1197644339999897 0.47142159257449934 0.4665363947239862
0.1199905039998157 0.46458231558378116 0.4655593551538837
0.1201897790001567 0.46458231558378116 0.45969711773326827
0.12038133199985168 0.46165119687347334 0.4557889594528579
0.12057373700008611 0.4587200781631655 0.44992672203224227
0.1207653090000349 0.4538348803126526 0.4509037616023448
0.12095604700016338 0.4538348803126526 0.4460185637518319
0.12114926599997489 0.4509037616023448 0.4479726428920372
0.12133974500011391 0.44992672203224227 0.44699560332193444
0.12153122400013672 0.44992672203224227 0.4460185637518319
0.12172179499975755 0.44992672203224227 0.4401563263312165
0.12191190400017149 0.4509037616023448 0.4323400097703958
0.12218288199983363 0.4538348803126526 0.4284318514899854
0.1223797489997196 0.44894968246213973 0.43722520762090866
0.12257158000011259 0.44699560332193444 0.45188080117244755
0.12276302200007194 0.4450415241817294 0.457743038593063
0.12295318599990424 0.44406448461162684 0.4587200781631655
0.12314249800010657 0.441133365901319 0.46262823644357587
0.1233326430001398 0.43917928676111373 0.4704445530043966
0.12352273299984518 0.4382022471910112 0.4929164631167562
0.12371230500002639 0.4352711284807034 0.5085490962383976
0.12390250599992214 0.4352711284807034 0.5280898876404494
0.12409335499978624 0.4303859306301905 0.5417684416218858
0.12428326000008383 0.4284318514899854 0.5495847581827065
0.12447371999996903 0.4323400097703958 0.5437225207620908
0.12466588400002365 0.4303859306301905 0.5456765999022961
0.12485599299998285 0.431362970200293 0.5525158768930141
0.12504623099994205 0.42940889106008795 0.5622862725940401
0.12524196899994422 0.431362970200293 0.578895945285784
0.12543320699978722 0.42940889106008795 0.5994137762579383
0.12562281500004246 0.4284318514899854 0.6170004885197851
0.12581218300010732 0.43624816805080613 0.6277479237909136
0.12600108800006637 0.431362970200293 0.6365412799218368
0.12619026999982452 0.4323400097703958 0.631656082071324
0.12637939700016432 0.43429408891060084 0.6179775280898876
0.12656915399975333 0.4352711284807034 0.5984367366878358
0.12675872599993454 0.4352711284807034 0.5730337078651686
0.12694807499974559 0.43917928676111373 0.5534929164631168
0.12713729400002194 0.43624816805080613 0.5417684416218858
0.1273266620000868 0.4401563263312165 0.5319980459208598
0.12751612200008822 0.4382022471910112 0.5319980459208598
0.12770698999975139 0.4401563263312165 0.5163654127992183
0.12789735800015478 0.44406448461162684 0.5153883732291158
0.12808739199999764 0.44406448461162684 0.524181729360039
0.1282774450000943 0.4460185637518319 0.5398143624816805
0.1284670909999477 0.4460185637518319 0.5525158768930141
0.1286566989997482 0.44699560332193444 0.578895945285784
0.12884625200013033 0.4509037616023448 0.6072300928187591
0.12903534199995192 0.45481191988275516 0.6384953590620419
0.12922502499986877 0.45481191988275516 0.661944308744504
0.12941489200011347 0.4636052760136786 0.6844162188568637
0.12960505599994576 0.4587200781631655 0.6941866145578897
0.1297943499998837 0.46165119687347334 0.688324377137274
0.12998371799994857 0.4606741573033708 0.67171470444553
0.13017395599990778 0.467513434294089 0.6443575964826576
0.13036430500005736 0.46165119687347334 0.6101612115290669
0.13055395099991074 0.4606741573033708 0.5525158768930141
0.1307435959997747 0.4587200781631655 0.48998534440644836
0.13093305699976554 0.45188080117244755 0.42159257449926724
0.131121887000063 0.44699560332193444 0.35710796287249624
0.1313114399999904 0.44211040547142155 0.30727894479726436
0.13150056699987545 0.4382022471910112 0.27992183683439187
0.13169034199972884 0.43429408891060084 0.25451880801172444
0.13188067300006878 0.42940889106008795 0.2408402540302883
0.13207066999984818 0.42745481191988266 0.22911577918905723
0.1322603710000294 0.4235466536394723 0.21250610649731305
0.13245029500012606 0.4264777723497801 0.17537860283341478
0.1327206800001477 0.42940889106008795 0.10698583292623343
0.13335670800006483 0.4382022471910112 0.09330727894479729
0.1335680570000477 0.4401563263312165 0.07962872496336093
0.13393905199973233 0.44211040547142155 0.08646800195407911
0.13418052999986685 0.441133365901319 0.10698583292623343
0.13437308299990036 0.44406448461162684 0.1431362970200294
0.1345611540000391 0.441133365901319 0.20175867122618474
0.13477654000007533 0.44406448461162684 0.2603810454323401
0.13496746400005577 0.4460185637518319 0.3131411822178798
0.13515851700003623 0.4538348803126526 0.36199316072300936
0.1353507730000274 0.4538348803126526 0.403028822667318
0.13553860399997575 0.45676599902296044 0.43429408891060084
0.1357263419999981 0.45676599902296044 0.45676599902296044
0.13591385800009448 0.4557889594528579 0.4753297508549097
0.13610170699985247 0.4587200781631655 0.4880312652662433
0.13628898199976902 0.46165119687347334 0.4938935026868587
0.13647723899975972 0.467513434294089 0.49877870053737183
0.1366648099997292 0.4636052760136786 0.49682462139716654
0.13685212300015337 0.4636052760136786 0.4909623839765511
0.13703876799991122 0.467513434294089 0.47923790913532005
0.13722632100007104 0.4665363947239862 0.4704445530043966
0.13741485599985026 0.4636052760136786 0.4528578407425501
0.13760166800011575 0.4636052760136786 0.43722520762090866
0.13778966500012757 0.46262823644357587 0.4235466536394723
0.1379778850000548 0.4665363947239862 0.40205178309721545
0.13817466000000422 0.46458231558378116 0.38641914997557403
0.1383634539997729 0.457743038593063 0.3707865168539326
0.13854983999999604 0.46165119687347334 0.3561309233023937
0.13873770800000784 0.46165119687347334 0.3502686858817783
0.1389248350001253 0.46165119687347334 0.34733756717147046
0.1391114429998197 0.4587200781631655 0.3512457254518808
0.1392974039999899 0.4587200781631655 0.35710796287249624
0.1394840309999381 0.4636052760136786 0.3678553981436248
0.13967156499984412 0.46458231558378116 0.3776257938446508
0.13985798800013072 0.4606741573033708 0.3913043478260869
0.14004406000003655 0.4606741573033708 0.4049829018075233
0.14023033500006932 0.45481191988275516 0.4206155349291647
0.14041779599983784 0.45481191988275516 0.4284318514899854
0.14060503400014568 0.4587200781631655 0.43722520762090866
0.14079612399973485 0.457743038593063 0.4479726428920372
0.14098539899987372 0.4557889594528579 0.4557889594528579
0.14117309999983263 0.45676599902296044 0.45676599902296044
0.14136057899986554 0.457743038593063 0.4606741573033708
0.14154852100000426 0.45481191988275516 0.4606741573033708
0.1417365739998786 0.457743038593063 0.4655593551538837
0.14192288599997482 0.45969711773326827 0.4733756717147044
0.14211173500007135 0.4606741573033708 0.4811919882755251
0.14230152899972381 0.4587200781631655 0.49193942354665365
0.14248865599984128 0.45481191988275516 0.5095261358085001
0.14267544899985296 0.4528578407425501 0.5271128480703469
0.1428628359999493 0.44894968246213973 0.5476306790425012
0.14304981499981295 0.4509037616023448 0.5681485100146555
0.1432381639997402 0.4460185637518319 0.5828041035661944
0.14342579100002695 0.4430874450415241 0.6023448949682462
0.14361304800013386 0.441133365901319 0.6140693698094772
0.14380004499980714 0.43722520762090866 0.621885686370298
0.14398702400012553 0.4352711284807034 0.6257938446507083
0.14417383599993627 0.4323400097703958 0.6179775280898876
0.14436064799974702 0.42940889106008795 0.6160234489496825
0.1445481830000972 0.4284318514899854 0.6160234489496825
0.1447351990000243 0.4255007327796776 0.6277479237909136
0.1449222149999514 0.42256961406936977 0.6375183194919394
0.14510893399983615 0.41963849535906195 0.6453346360527601
0.14529622800000652 0.41963849535906195 0.643380556912555
0.14548322500013455 0.4176844162188569 0.6384953590620419
0.1456714450000618 0.4176844162188569 0.6277479237909136
0.14585923899994668 0.41963849535906195 0.6170004885197851
0.14604634699981034 0.42256961406936977 0.6072300928187591
0.14625123299992993 0.4206155349291647 0.595505617977528
0.14644315599980473 0.4206155349291647 0.5867122618466047
0.14663391299973227 0.4206155349291647 0.5720566682950659
0.1468254840001464 0.42159257449926724 0.5534929164631168
0.14701599999989412 0.4284318514899854 0.5437225207620908
0.14720721999992747 0.42940889106008795 0.5349291646311676
0.14739756900007706 0.4401563263312165 0.5368832437713726
0.14758891800011043 0.44406448461162684 0.5319980459208598
0.1477812489997632 0.4460185637518319 0.5319980459208598
0.14797894999992423 0.4587200781631655 0.5349291646311676
0.1481718360000741 0.45481191988275516 0.5466536394723986
0.1483637970000018 0.457743038593063 0.5632633121641426
0.1485572010001306 0.46262823644357587 0.5730337078651686
0.14874845799977265 0.46262823644357587 0.576941866145579
0.14893904800010205 0.4655593551538837 0.5749877870053737
0.14913274899981843 0.4665363947239862 0.567171470444553
0.14932298699977764 0.4665363947239862 0.5476306790425012
0.14951352099978976 0.47142159257449934 0.5212506106497312
0.14970499999981257 0.467513434294089 0.4978016609672691
0.1498967940001421 0.4665363947239862 0.47142159257449934
0.15008631000000605 0.45969711773326827 0.44211040547142155
0.15027760299972215 0.4587200781631655 0.4108451392281387
0.15046802699998807 0.4557889594528579 0.3805569125549584
0.15065913499984163 0.45676599902296044 0.35710796287249624
0.15084831800004395 0.4509037616023448 0.3336590131900341
0.15103768500011938 0.4460185637518319 0.3141182217879823
0.15124590499999613 0.4479726428920372 0.30923302393746943
0.15143751300001895 0.44406448461162684 0.3111871030776747
0.15162739900006272 0.4460185637518319 0.3238886174890083
0.15181698900005358 0.4479726428920372 0.3365901319003419
0.15200709800001277 0.44699560332193444 0.34929164631167553
0.15219683599980272 0.44992672203224227 0.3629702002931119
0.15238612999974066 0.4528578407425501 0.36687835857352225
0.15257592299985845 0.45481191988275516 0.36492427943331696
0.15276553200010312 0.45969711773326827 0.3688324377137273
0.15295571399974506 0.46262823644357587 0.3639472398632144
0.15314793400011695 0.4606741573033708 0.37176355642403514
0.15336722699976235 0.4636052760136786 0.3707865168539326
0.15355946499994388 0.46262823644357587 0.37274059599413767
0.15375048099986088 0.46262823644357587 0.3737176355642404
0.15394236700012698 0.4665363947239862 0.3756717147044455
0.1541330499999276 0.4665363947239862 0.37274059599413767
0.15434010299986767 0.4665363947239862 0.3707865168539326
0.1545305439999538 0.4655593551538837 0.36199316072300936
0.15472078299990244 0.4655593551538837 0.35417684416218864
0.15491074300007313 0.46262823644357587 0.34636052760136793
0.15510086999984196 0.4587200781631655 0.33756717147044446
0.15529053399995973 0.4606741573033708 0.3365901319003419
0.15548053099973913 0.4636052760136786 0.3385442110405472
0.1556710469999416 0.4606741573033708 0.34733756717147046
0.1558605259997421 0.4587200781631655 0.358085002442599
0.15605011599973295 0.46262823644357587 0.37469467513434296
0.15623946499999875 0.4684904738641915 0.38641914997557403
0.15642933299977813 0.467513434294089 0.4040058622374205
0.15661955199993827 0.467513434294089 0.42256961406936977
0.15680897599986565 0.4665363947239862 0.43429408891060084
0.1569981210000151 0.4665363947239862 0.44211040547142155
0.15718911900012245 0.4655593551538837 0.4479726428920372
0.15737948600008167 0.46946751343429405 0.44992672203224227
0.15756868700009363 0.46458231558378116 0.4509037616023448
0.15775816599989412 0.467513434294089 0.4509037616023448
0.15795049700000163 0.46946751343429405 0.44699560332193444
0.15815036499998314 0.4684904738641915 0.4323400097703958
0.1583412509999107 0.46946751343429405 0.4137762579384465
0.15853145199980645 0.467513434294089 0.39228138739618945
0.15872100499973385 0.4665363947239862 0.37176355642403514
0.158910687000116 0.4665363947239862 0.34929164631167553
0.1591001850001703 0.46262823644357587 0.3307278944797265
0.1592907929998546 0.46262823644357587 0.3238886174890083
0.15948025399984544 0.45969711773326827 0.32193453834880303
0.15967064000005848 0.4538348803126526 0.32975085490962375
0.15986489599981724 0.4509037616023448 0.3365901319003419
0.16005648600003042 0.44894968246213973 0.3561309233023937
0.16024624300007417 0.4509037616023448 0.37176355642403514
0.16043661100002282 0.4509037616023448 0.38935026868588185
0.16062647799981278 0.4528578407425501 0.4079140205178309
0.16081590199974016 0.45481191988275516 0.42159257449926724
0.16100563999998485 0.45969711773326827 0.4352711284807034
0.16119591500000752 0.46262823644357587 0.43917928676111373
0.1613860789998398 0.4636052760136786 0.4430874450415241
0.16157587299994702 0.46165119687347334 0.4460185637518319
0.16176546299993788 0.46165119687347334 0.4460185637518319
0.16195549699978073 0.45969711773326827 0.44699560332193444
0.1621586420001222 0.457743038593063 0.4528578407425501
0.16235058399979607 0.45676599902296044 0.4655593551538837
0.16254121099973418 0.4528578407425501 0.4782608695652173
0.16273143099988374 0.4509037616023448 0.4938935026868587
0.1629210759997477 0.44894968246213973 0.5095261358085001
0.16311066599973856 0.45188080117244755 0.5212506106497312
0.16330045999984577 0.4460185637518319 0.5290669272105519
0.1634911609999108 0.4430874450415241 0.5446995603321934
0.1636810099998911 0.43917928676111373 0.5515388373229115
0.1638714149999032 0.43429408891060084 0.5613092330239375
0.164060986000095 0.43429408891060084 0.567171470444553
0.164250520999758 0.431362970200293 0.5759648265754762
0.16443981400016128 0.431362970200293 0.578895945285784
0.164630329999909 0.431362970200293 0.5857352222765022
0.16482030899987876 0.431362970200293 0.5945285784074255
0.1650102139997216 0.431362970200293 0.6062530532486565
0.16519986000002973 0.431362970200293 0.6101612115290669
0.1653905789999044 0.431362970200293 0.6199316072300929
0.1655808169998636 0.4303859306301905 0.6209086468001954
0.16577094400008718 0.4333170493404983 0.6228627259404005
0.166058884999984 0.4352711284807034 0.6267708842208108
0.1662551969998276 0.43624816805080613 0.6257938446507083
0.16644654599986097 0.4382022471910112 0.6170004885197851
0.16663780299995778 0.43917928676111373 0.6101612115290669
0.16682891099981134 0.43722520762090866 0.5994137762579383
0.16701907500009838 0.43624816805080613 0.5876893014167073
0.16720973900009994 0.43722520762090866 0.5691255495847583
0.1674005509999006 0.43429408891060084 0.5534929164631168
0.16759054900012416 0.43624816805080613 0.5398143624816805
0.16778154599978734 0.43429408891060084 0.5114802149487054
0.16804181999987122 0.42940889106008795 0.5007327796775769
0.1682343170000422 0.4284318514899854 0.5007327796775769
0.1684245739998005 0.4284318514899854 0.5065950170981925
0.1686153679997915 0.4323400097703958 0.5192965315095261
0.1688052350000362 0.4323400097703958 0.5280898876404494
0.1689958619999743 0.4382022471910112 0.5368832437713726
0.16918632299984893 0.43917928676111373 0.5486077186126037
0.16937652399974468 0.4430874450415241 0.5456765999022961
0.16956687299989426 0.44211040547142155 0.5427454811919883
0.16975759299975834 0.44406448461162684 0.5329750854909623
0.1699475899999925 0.4479726428920372 0.5163654127992183
0.17014968000012232 0.44992672203224227 0.49877870053737183
0.17034201099977508 0.44992672203224227 0.48412310698583294
0.17053221200012558 0.45188080117244755 0.4782608695652173
0.17072320899978877 0.44894968246213973 0.4753297508549097
0.17091350300006525 0.44992672203224227 0.4811919882755251
0.1711030739998023 0.4509037616023448 0.48216902784562765
0.17129255300005752 0.44699560332193444 0.48900830483634583
0.17148295800006963 0.44699560332193444 0.48998534440644836
0.17167271400012396 0.44699560332193444 0.4753297508549097
0.1718653970001469 0.4460185637518319 0.4538348803126526
0.1720559499999581 0.4460185637518319 0.4264777723497801
0.17224635399998078 0.4430874450415241 0.39423546653639474
0.17243681499985541 0.44211040547142155 0.3639472398632144
0.1726265339998463 0.44406448461162684 0.3424523693209576
0.1728174949998902 0.4460185637518319 0.3336590131900341
0.1730080289999023 0.44699560332193444 0.33170493404982904
0.17319821199998842 0.4450415241817294 0.3336590131900341
0.17339176499990572 0.44992672203224227 0.33952125061064975
0.17358266900009767 0.45188080117244755 0.3424523693209576
0.1737729629999194 0.4557889594528579 0.3414753297508548
0.17396347900012188 0.45676599902296044 0.33268197361993157
0.1741626059997543 0.4587200781631655 0.31216414264777725
0.17435317699982988 0.4587200781631655 0.2877381533952126
0.1745430259998102 0.45676599902296044 0.2633121641426477
0.17473268999992797 0.45676599902296044 0.23888617489008301
0.1749225949997708 0.4528578407425501 0.2164142647777234
0.17511203699996258 0.4528578407425501 0.19882755251587692
0.17530203399974198 0.4557889594528579 0.19882755251587692
0.1754919019999761 0.4528578407425501 0.21250610649731305
0.17568127000004097 0.4557889594528579 0.23986321446018555
0.17587073000004239 0.4557889594528579 0.2681973619931608
0.17606050499989578 0.45969711773326827 0.29164631167562294
0.17625009499988664 0.4655593551538837 0.3111871030776747
0.17643970400013131 0.4636052760136786 0.32681973619931615
0.1766297009999107 0.4655593551538837 0.3404982901807523
0.17681910600003903 0.4665363947239862 0.35710796287249624
0.17700843700004043 0.4665363947239862 0.3688324377137273
0.17719800799977747 0.4684904738641915 0.38446507083536874
0.17738769100014906 0.4665363947239862 0.4040058622374205
0.17757705799976975 0.4684904738641915 0.4137762579384465
0.1777655189998768 0.4704445530043966 0.4284318514899854
0.17795542399971964 0.46946751343429405 0.4382022471910112
0.1781547729997328 0.46946751343429405 0.4479726428920372
0.17834538099987185 0.47142159257449934 0.4557889594528579
0.17853563800008487 0.47239863214460187 0.45676599902296044
0.1787250799998219 0.47142159257449934 0.45969711773326827
0.1789146510000137 0.47142159257449934 0.4606741573033708
0.17910509300008925 0.46946751343429405 0.45188080117244755
0.17929434899997432 0.46946751343429405 0.44406448461162684
0.1794837910001661 0.4665363947239862 0.43429408891060084
0.17967349199989258 0.46458231558378116 0.42940889106008795
0.17986372999985178 0.4606741573033708 0.4284318514899854
0.18005309799991664 0.4557889594528579 0.4333170493404983
0.1802435209997384 0.45481191988275516 0.441133365901319
0.18043303700005708 0.4528578407425501 0.4509037616023448
0.18062268299991047 0.4528578407425501 0.46262823644357587
0.18081247700001768 0.45188080117244755 0.47239863214460187
0.1810013260001142 0.4538348803126526 0.4851001465559355
0.18119089699985125 0.45188080117244755 0.49193942354665365
0.18138061699983155 0.45188080117244755 0.5026868588177822
0.18157053999993877 0.45188080117244755 0.5065950170981925
0.18175988899974982 0.4587200781631655 0.5105031753786029
0.18194975699998395 0.45481191988275516 0.5114802149487054
0.18214847699982784 0.4538348803126526 0.5134342940889105
0.182340825999745 0.45481191988275516 0.5183194919394236
0.18253041599973585 0.4528578407425501 0.5232046897899365
0.18272059799983253 0.4509037616023448 0.5319980459208598
0.18291044699981285 0.44894968246213973 0.5319980459208598
0.18309972299994115 0.44699560332193444 0.5290669272105519
0.1832888680000906 0.44894968246213973 0.5271128480703469
0.1834784769998805 0.44406448461162684 0.5232046897899365
0.18366776999982903 0.44211040547142155 0.524181729360039
0.1838569900000948 0.44211040547142155 0.5319980459208598
0.18404663499995877 0.44211040547142155 0.5456765999022961
0.1842362439997487 0.43917928676111373 0.5593551538837322
0.18442601900005684 0.43917928676111373 0.5681485100146555
0.1846152019998044 0.4401563263312165 0.5759648265754762
0.18480442100008077 0.4401563263312165 0.5798729848558866
0.18499406699993415 0.4382022471910112 0.5818270639960919
0.185183971999777 0.4401563263312165 0.578895945285784
0.18537448699999004 0.4401563263312165 0.5710796287249633
0.18556459599994923 0.4401563263312165 0.5603321934538348
0.18575472300017282 0.4382022471910112 0.5486077186126037
0.1859442019999733 0.43624816805080613 0.5486077186126037
0.18613430999994307 0.43429408891060084 0.5495847581827065
0.18633488099976603 0.42940889106008795 0.5534929164631168
0.18652569400001084 0.4333170493404983 0.5583781143136297
0.18671569099979024 0.42940889106008795 0.5554469956033219
0.1869046880001406 0.4303859306301905 0.5544699560332194
0.18709564899972975 0.42940889106008795 0.550561797752809
0.1872858679998899 0.431362970200293 0.5388373229115779
0.18747575499992308 0.43429408891060084 0.524181729360039
0.18766588200014667 0.4284318514899854 0.5065950170981925
0.18785578600000008 0.4303859306301905 0.4851001465559355
0.18804561700017075 0.4303859306301905 0.467513434294089
0.18823481799972797 0.43429408891060084 0.4450415241817294
0.18842403799999374 0.43722520762090866 0.43624816805080613
0.18861405400002695 0.43429408891060084 0.43624816805080613
0.1888039209998169 0.4352711284807034 0.4401563263312165
0.1889934189998712 0.4352711284807034 0.4528578407425501
0.18918273100007355 0.4382022471910112 0.46458231558378116
0.18937180200009607 0.4382022471910112 0.47239863214460187
0.18956181800012928 0.4401563263312165 0.47923790913532005
0.18975129699992976 0.4450415241817294 0.4753297508549097
0.18994175699981497 0.4450415241817294 0.46458231558378116
0.1901307180000913 0.4509037616023448 0.44894968246213973
0.1903301970000939 0.44992672203224227 0.43624816805080613
0.19052011999974638 0.4479726428920372 0.42452369320957506
0.19071033899990653 0.44992672203224227 0.41475329750854906
0.19089972599977045 0.44992672203224227 0.40889106008793363
0.19109012999979313 0.4557889594528579 0.4108451392281387
0.1912801280000167 0.45188080117244755 0.41475329750854906
0.1914701440000499 0.45188080117244755 0.42256961406936977
0.19166027099981875 0.45188080117244755 0.431362970200293
0.19185011999979906 0.44992672203224227 0.43624816805080613
0.1920396539999274 0.45188080117244755 0.4352711284807034
0.1922287630000028 0.4528578407425501 0.4235466536394723
0.19241787100008878 0.4538348803126526 0.4040058622374205
0.19260733200007962 0.457743038593063 0.38251099169516367
0.19279814399988027 0.45969711773326827 0.36687835857352225
0.19298778899974423 0.45969711773326827 0.35906204201270153
0.19317774999990434 0.4606741573033708 0.3551538837322912
0.1933675619998212 0.45969711773326827 0.3551538837322912
0.1935575960001188 0.4636052760136786 0.35417684416218864
0.19374738999977126 0.4606741573033708 0.35222276502198335
0.193937146999815 0.45676599902296044 0.34636052760136793
0.19412708799973188 0.4557889594528579 0.3424523693209576
0.1943261779997556 0.45969711773326827 0.33756717147044446
0.1945163609998417 0.4557889594528579 0.33756717147044446
0.19470572799991714 0.45188080117244755 0.3356130923302394
0.1948954300000878 0.45188080117244755 0.33463605276013686
0.19508529699987776 0.4538348803126526 0.3307278944797265
0.19527446099982626 0.4538348803126526 0.3287738153395212
0.19546343999991223 0.4587200781631655 0.32975085490962375
0.1956530490001569 0.457743038593063 0.33756717147044446
0.19584297199980938 0.46165119687347334 0.3414753297508548
0.19603287700010696 0.46262823644357587 0.34733756717147046
0.19622276300015074 0.46458231558378116 0.3561309233023937
0.19641264899973976 0.4704445530043966 0.3688324377137273
0.19660146099977283 0.47142159257449934 0.37469467513434296
0.19679062499972133 0.4684904738641915 0.3776257938446508
0.1969797709998602 0.46946751343429405 0.38153395212506114
0.19716904599999907 0.4733756717147044 0.3834880312652662
0.19735880300004283 0.47142159257449934 0.38153395212506114
0.19754824499977985 0.47239863214460187 0.38739618954567656
0.1977373899999293 0.4704445530043966 0.39423546653639474
0.1979267209999307 0.47142159257449934 0.40693698094772834
0.1981160519999321 0.47142159257449934 0.4157303370786516
0.1983056230001239 0.47142159257449934 0.42159257449926724
0.1984958610000831 0.47728382999511476 0.4303859306301905
0.19868511799995758 0.47239863214460187 0.43624816805080613
0.19887498599973696 0.47142159257449934 0.43722520762090866
0.19906555699981254 0.47239863214460187 0.4382022471910112
0.19925427699990905 0.4684904738641915 0.4303859306301905
0.19944390399996337 0.46946751343429405 0.4323400097703958
0.19963353100001768 0.467513434294089 0.4333170493404983
0.19982226899992384 0.467513434294089 0.4382022471910112
0.20001102500009438 0.45969711773326827 0.44406448461162684
0.20020018900004288 0.45969711773326827 0.45188080117244755
0.20038909400000193 0.4587200781631655 0.46262823644357587
0.20057812899995042 0.4557889594528579 0.47728382999511476
0.20076695899979313 0.4538348803126526 0.4948705422569615
0.20095606799986854 0.45188080117244755 0.5163654127992183
0.20114610200016614 0.45188080117244755 0.5388373229115779
0.20133508099979736 0.4528578407425501 0.5613092330239375
0.20152496699984113 0.45481191988275516 0.5857352222765022
0.20171453900002234 0.457743038593063 0.6023448949682462
0.201905128999897 0.45969711773326827 0.621885686370298
0.2020949779998773 0.4557889594528579 0.6384953590620419
0.2022856049998154 0.4557889594528579 0.650219833903273
0.20247604699989097 0.45481191988275516 0.6629213483146068
0.2026660440001251 0.4509037616023448 0.6658524670249144
0.20285548599986214 0.44894968246213973 0.6658524670249144
0.20304533499984245 0.44699560332193444 0.661944308744504
0.20323568399999203 0.4450415241817294 0.6551050317537861
0.20343110800013164 0.44406448461162684 0.6511968734733757
0.20362119799983702 0.44211040547142155 0.6404494382022472
0.20381224999982805 0.44699560332193444 0.6199316072300929
0.20400315500000943 0.44406448461162684 0.5925744992672204
0.20419259699974646 0.4430874450415241 0.5603321934538348
0.2043825390001075 0.44211040547142155 0.5202735710796287
0.20457210999984454 0.44211040547142155 0.4802149487054226
0.20476331100007883 0.4382022471910112 0.43624816805080613
0.20495291999986875 0.4323400097703958 0.3932584269662922
0.20514263899985963 0.4323400097703958 0.358085002442599
0.2053320810000514 0.42940889106008795 0.32681973619931615
0.2055216339999788 0.4284318514899854 0.31021006350757196
0.2057138909999594 0.4264777723497801 0.3111871030776747
0.2059045179998975 0.42745481191988266 0.3229115779189058
0.2060938670001633 0.4235466536394723 0.34929164631167553
0.20628630900000644 0.4235466536394723 0.3756717147044455
0.20647571400013476 0.4235466536394723 0.39912066438690763
0.20666504400014674 0.42940889106008795 0.41963849535906195
0.20685446800007412 0.42452369320957506 0.4382022471910112
0.20704409500012844 0.42452369320957506 0.4606741573033708
0.2072328330000346 0.4264777723497801 0.4929164631167562
0.20742264499995144 0.4284318514899854 0.5300439667806547
0.2076119939997625 0.4284318514899854 0.5730337078651686
0.2078017139997428 0.43429408891060084 0.6140693698094772
0.20799139600012495 0.43429408891060084 0.6453346360527601
0.2081813750000947 0.43624816805080613 0.6726917440156326
0.20837120599981063 0.43722520762090866 0.688324377137274
0.2085603139998966 0.43624816805080613 0.6922325354176844
0.20874971900002492 0.43722520762090866 0.6941866145578897
0.20893964200013215 0.43722520762090866 0.6932095749877869
0.20912869499989029 0.441133365901319 0.6922325354176844
0.2093182670000715 0.441133365901319 0.6932095749877869
0.20950830099991435 0.4430874450415241 0.6853932584269662
0.20969791000015903 0.4450415241817294 0.6814851001465558
0.20988731399984317 0.44699560332193444 0.6531509526135808
0.21007753399999274 0.44699560332193444 0.6101612115290669
0.21033215999977983 0.44406448461162684 0.5368832437713726
0.21053325000002587 0.44406448461162684 0.4811919882755251
0.21072587699973155 0.44211040547142155 0.431362970200293
0.21091698500003986 0.43917928676111373 0.36980947728383007
0.2111086489999252 0.43624816805080613 0.29457743038593054
0.21129910999979984 0.43917928676111373 0.22520762090864688
0.2114887180000551 0.4401563263312165 0.15876893014167082
0.211680030000025 0.43722520762090866 0.11480214948705414
0.21187056500002655 0.4401563263312165 0.10405471421592583
0.21206146899976375 0.4430874450415241 0.11773326819736196
0.2122510589997546 0.4450415241817294 0.1411822178798241
0.21244100100011565 0.44894968246213973 0.17537860283341478
0.21263235000014902 0.4538348803126526 0.20957498778700545
0.21282347699980164 0.45676599902296044 0.2359550561797752
0.21301421599991954 0.4587200781631655 0.2525647288715194
0.21320586100000583 0.45969711773326827 0.26917440156326333
0.21339589499984868 0.45969711773326827 0.27992183683439187
0.213585521999903 0.45969711773326827 0.29164631167562294
0.21377596399997856 0.4606741573033708 0.3004396678065462
0.21396659099991666 0.46458231558378116 0.3141182217879823
0.21415827400005583 0.46165119687347334 0.3307278944797265
0.21434862299975066 0.4636052760136786 0.3512457254518808
0.21453824999980498 0.46165119687347334 0.3737176355642404
0.21472782099999677 0.467513434294089 0.3932584269662922
0.2149176709999665 0.46458231558378116 0.40889106008793363
0.21510816799991517 0.46458231558378116 0.4206155349291647
0.2152980360001493 0.467513434294089 0.4333170493404983
0.21548851499983357 0.4704445530043966 0.4352711284807034
0.21567854900013117 0.4684904738641915 0.44211040547142155
0.21586875000002692 0.4704445530043966 0.4430874450415241
0.2160580069999014 0.4753297508549097 0.4352711284807034
0.21624724499997683 0.47239863214460187 0.42745481191988266
0.21643720500014751 0.47239863214460187 0.4176844162188569
0.21662725799978944 0.47142159257449934 0.4059599413776258
0.216817477999939 0.4684904738641915 0.3903273082559844
0.21700823399987712 0.4704445530043966 0.3688324377137273
0.21719826900016415 0.4704445530043966 0.3453834880312652
0.21738798800015502 0.4704445530043966 0.32486565705911086
0.21757776300000842 0.4704445530043966 0.31216414264777725
0.21776755700011563 0.4665363947239862 0.293600390815828
0.21795760999975755 0.4665363947239862 0.2857840742550073
0.21816512599980342 0.4665363947239862 0.27992183683439187
0.21835634499984735 0.4606741573033708 0.2789447972642891
0.2185471019997749 0.46458231558378116 0.2789447972642891
0.21873728399987158 0.4665363947239862 0.2857840742550073
0.21892811499992604 0.4636052760136786 0.293600390815828
0.21911874199986414 0.4636052760136786 0.2984855886663409
0.2193095729999186 0.4665363947239862 0.30923302393746943
0.2195004400000471 0.4665363947239862 0.3238886174890083
0.21969064199993227 0.4655593551538837 0.34636052760136793
0.21988082400002895 0.4636052760136786 0.37469467513434296
0.22007150699982958 0.46458231558378116 0.4108451392281387
0.22026191099985226 0.46458231558378116 0.44211040547142155
0.22045166799989602 0.4655593551538837 0.46946751343429405
0.22064177599986579 0.46165119687347334 0.4929164631167562
0.22083305199976166 0.45969711773326827 0.5095261358085001
0.22102347500003816 0.46262823644357587 0.5212506106497312
0.2212134349997541 0.46165119687347334 0.5359062042012701
0.2214032839997344 0.46165119687347334 0.5525158768930141
0.2215931709997676 0.46262823644357587 0.567171470444553
0.22178387199983263 0.45969711773326827 0.5847581827063997
0.22197433200017258 0.4606741573033708 0.6003908158280411
0.22216677400001572 0.45969711773326827 0.6150464093795798
0.22235693799984801 0.45676599902296044 0.6257938446507083
0.2225475089999236 0.4528578407425501 0.6306790425012212
0.22273741399976643 0.4528578407425501 0.6189545676599901
0.22292839300007472 0.44406448461162684 0.605276013678554
0.22311890899982245 0.44406448461162684 0.5876893014167073
0.2233093690001624 0.441133365901319 0.5749877870053737
0.22349977399971976 0.4430874450415241 0.567171470444553
0.22368951199996445 0.4450415241817294 0.5593551538837322
0.2238792690000082 0.44211040547142155 0.5554469956033219
0.2240697289998934 0.44406448461162684 0.5603321934538348
0.22426017099996898 0.4450415241817294 0.567171470444553
0.22445052000011856 0.4450415241817294 0.5798729848558866
0.2246414989999721 0.44699560332193444 0.5896433805569126
0.22483133000014277 0.4479726428920372 0.6062530532486565
0.2250213449997318 0.4460185637518319 0.6248168050806058
0.22521202799998719 0.44699560332193444 0.6492427943331704
0.22540213599995695 0.44992672203224227 0.6736687835857351
0.22559215199999016 0.44699560332193444 0.7000488519785051
0.22578277899992827 0.44699560332193444 0.7186126038104543
0.2259726839997711 0.44992672203224227 0.7303370786516854
0.22616397799993138 0.4479726428920372 0.7361993160723008
0.22635377100004916 0.4479726428920372 0.7361993160723008
0.22654441699978634 0.4509037616023448 0.7195896433805569
0.22673461800013683 0.44894968246213973 0.7000488519785051
0.22692513399988457 0.4450415241817294 0.6756228627259404
0.22711553899989667 0.44406448461162684 0.6394723986321447
0.22730588800004625 0.441133365901319 0.5915974596971176
0.22749616300006892 0.4401563263312165 0.5349291646311676
0.2276865489998272 0.43917928676111373 0.4704445530043966
0.2278768979999768 0.431362970200293 0.4176844162188569
0.2280668399998831 0.4255007327796776 0.3883732291157791
0.22825655999986338 0.4235466536394723 0.3756717147044455
0.22844653899983314 0.41963849535906195 0.3883732291157791
0.22863666600005672 0.41670737664875435 0.4079140205178309
0.22882720000006884 0.4157303370786516 0.4352711284807034
0.2290169570001126 0.41670737664875435 0.45969711773326827
0.22920602800013512 0.4186614557889594 0.47142159257449934
0.2293952659997558 0.4206155349291647 0.4763067904250122
0.22958517100005338 0.42452369320957506 0.4684904738641915
0.22977531700007603 0.4284318514899854 0.4538348803126526
0.2299649070000669 0.42940889106008795 0.431362970200293
0.23015655200015317 0.43429408891060084 0.403028822667318
0.23034664199985855 0.4352711284807034 0.37176355642403514
0.23053649099983886 0.43722520762090866 0.3404982901807523
0.23072630299975572 0.43917928676111373 0.31216414264777725
0.23091594900006385 0.43917928676111373 0.29457743038593054
0.23110548299973743 0.43917928676111373 0.2789447972642891
0.23129549899977064 0.43917928676111373 0.2730825598436737
0.23148540400006823 0.43722520762090866 0.27992183683439187
0.2316752719998476 0.43917928676111373 0.2955544699560333
0.23186534299975392 0.4430874450415241 0.3131411822178798
0.23205565499984004 0.4382022471910112 0.3307278944797265
0.23224593099985213 0.4401563263312165 0.33756717147044446
0.23243639099973734 0.4450415241817294 0.3238886174890083
0.23262631399984457 0.4479726428920372 0.3082559843673669
0.2328161820000787 0.4538348803126526 0.29262335124572547
0.2330059569999321 0.45188080117244755 0.293600390815828
0.23319537999987006 0.4538348803126526 0.2808988764044944
0.2333855440001571 0.4557889594528579 0.2906692721055202
0.23357624499976737 0.45676599902296044 0.30923302393746943
0.23376577999988513 0.45676599902296044 0.3404982901807523
0.23395623999977033 0.4587200781631655 0.37176355642403514
0.23415655200005858 0.4557889594528579 0.40889106008793363
0.23434734600004958 0.4557889594528579 0.44211040547142155
0.2345382509997762 0.4528578407425501 0.46262823644357587
0.23472854400006327 0.4509037616023448 0.486077186126038
0.23491850499976863 0.4528578407425501 0.49682462139716654
0.2351086319999922 0.44992672203224227 0.5065950170981925
0.2352988140000889 0.4538348803126526 0.5192965315095261
0.23548929299977317 0.4538348803126526 0.5388373229115779
0.23567988300010256 0.45676599902296044 0.5622862725940401
0.2358701769999243 0.4587200781631655 0.5749877870053737
0.23606039600008444 0.4665363947239862 0.5749877870053737
0.23625011600006474 0.4704445530043966 0.5593551538837322
0.23643974300011905 0.47435271128480694 0.5378602833414754
0.2366299440000148 0.4753297508549097 0.5183194919394236
0.23682092299986834 0.48705422569614076 0.5017098192476794
0.237011419999817 0.48412310698583294 0.5007327796775769
0.2372017140000935 0.4880312652662433 0.5056179775280898
0.23739119299989397 0.4938935026868587 0.5007327796775769
0.23758124500000122 0.48998534440644836 0.49193942354665365
0.23777133500016134 0.48998534440644836 0.4655593551538837
0.23796142499986672 0.48705422569614076 0.4352711284807034
0.2381615710000915 0.486077186126038 0.4079140205178309
0.23835080900016692 0.4851001465559355 0.38251099169516367
0.23853867699972398 0.4831460674157304 0.3707865168539326
0.2387251559998731 0.4802149487054226 0.36687835857352225
0.23891155999990588 0.4802149487054226 0.37176355642403514
0.2390985020001608 0.47239863214460187 0.37176355642403514
0.23928516600017247 0.46946751343429405 0.3737176355642404
0.23947242299982463 0.46262823644357587 0.36199316072300936
0.23965921699982573 0.4587200781631655 0.3434294088910601
0.2398463989998163 0.45481191988275516 0.3258426966292134
0.24003332299980684 0.4509037616023448 0.3150952613580851
0.24022013500007233 0.45481191988275516 0.3131411822178798
0.2404066139997667 0.4509037616023448 0.31900341963849543
0.2405936479999582 0.45481191988275516 0.33268197361993157
0.24078042300016023 0.4557889594528579 0.3434294088910601
0.24096873600001345 0.457743038593063 0.348314606741573
0.24115589999973963 0.4636052760136786 0.33268197361993157
0.2413428599998042 0.4655593551538837 0.3014167073766487
0.24152915400009078 0.46946751343429405 0.27015144113336587
0.24171515099988028 0.46946751343429405 0.24767953102100626
0.24190181499989194 0.47142159257449934 0.23888617489008301
0.24208914600012577 0.47142159257449934 0.2457254518808012
0.24228184699995836 0.4704445530043966 0.26722032242305804
0.24247267800001282 0.46165119687347334 0.29946262823644365
0.24266250799973932 0.4538348803126526 0.3385442110405472
0.24285298699987834 0.4479726428920372 0.3756717147044455
0.2430442069999117 0.4430874450415241 0.4049829018075233
0.24323487099991326 0.43429408891060084 0.4284318514899854
0.24342514599993592 0.4303859306301905 0.44406448461162684
0.24361508799984222 0.42452369320957506 0.45676599902296044
0.2438050299997485 0.4206155349291647 0.47239863214460187
0.24399510100010957 0.4176844162188569 0.4938935026868587
0.24418656099987857 0.41475329750854906 0.5232046897899365
0.2443767250001656 0.4186614557889594 0.5574010747435272
0.24456677799980753 0.4176844162188569 0.5974596971177333
0.24475714599975618 0.42452369320957506 0.6384953590620419
0.24494780999975774 0.42159257449926724 0.6648754274548119
0.24513914099998146 0.42256961406936977 0.6912554958475818
0.24532941600000413 0.42159257449926724 0.7068881289692233
0.24551956100003736 0.4255007327796776 0.704934049829018
0.24570981799979563 0.4255007327796776 0.6902784562774793
0.24590029699993465 0.42745481191988266 0.6765999022960429
0.24609038700009478 0.4255007327796776 0.6590131900341964
0.24628173600012815 0.42452369320957506 0.6365412799218368
0.2464717150000979 0.4284318514899854 0.605276013678554
0.24666128599983494 0.4284318514899854 0.5661944308744504
0.24685119100013253 0.4264777723497801 0.5261358085002443
0.24704096599998593 0.4264777723497801 0.4802149487054226
0.24723089000008258 0.4284318514899854 0.441133365901319
0.24742123899977742 0.42940889106008795 0.4176844162188569
0.24761123600001156 0.431362970200293 0.41182217879824123
0.24780078899993896 0.43624816805080613 0.42159257449926724
0.2479906939997818 0.4303859306301905 0.4509037616023448
0.24818019099984667 0.4284318514899854 0.486077186126038
0.24836961499977406 0.42940889106008795 0.5212506106497312
0.24855929700015622 0.42940889106008795 0.5554469956033219
0.2487487759999567 0.42940889106008795 0.5837811431362969
0.24893886600011683 0.4333170493404983 0.6160234489496825
0.24912780800013934 0.43624816805080613 0.6511968734733757
0.2493173980001302 0.43624816805080613 0.6902784562774793
0.24950689499974033 0.4450415241817294 0.7254518808011725
0.24969661499972062 0.44699560332193444 0.7469467513434294
0.24988685300013458 0.4450415241817294 0.7537860283341475
0.2500773870001467 0.44894968246213973 0.7498778700537372
0.25026806999994733 0.44894968246213973 0.7254518808011725
0.2504591040001287 0.45188080117244755 0.6961406936980947
0.25064963800014084 0.4528578407425501 0.6541279921836833
0.25084024699981455 0.45676599902296044 0.6101612115290669
0.2510302999999112 0.45481191988275516 0.5593551538837322
0.2512206490000608 0.45969711773326827 0.4909623839765511
0.2514107389997662 0.4636052760136786 0.4206155349291647
0.2516013290000956 0.467513434294089 0.3688324377137273
0.25179165999998077 0.4704445530043966 0.32193453834880303
0.251981805000014 0.4704445530043966 0.30434782608695654
0.2521719689998463 0.47435271128480694 0.3014167073766487
0.25236172599989004 0.4782608695652173 0.3004396678065462
0.25255135299994436 0.4782608695652173 0.29164631167562294
0.2527419610000834 0.48412310698583294 0.2779677576941866
0.25293221799984167 0.4811919882755251 0.255495847581827
0.25312215999974796 0.48216902784562765 0.22227650219833905
0.25331197200011957 0.4802149487054226 0.17733268197361984
0.25350652499992066 0.47239863214460187 0.13043478260869557
0.25369704100012314 0.4704445530043966 0.09330727894479729
0.25388757500013526 0.4655593551538837 0.08549096238397658
0.2540773129999252 0.46165119687347334 0.10893991206643872
0.25426792200005366 0.457743038593063 0.15486077186126046
0.25445725200006564 0.45188080117244755 0.21152906692721052
0.2546473239999614 0.45188080117244755 0.2789447972642891
0.2548370250001426 0.44992672203224227 0.33170493404982904
0.255026485000144 0.44699560332193444 0.3756717147044455
0.2552160750001349 0.44894968246213973 0.4079140205178309
0.2554061279997768 0.4509037616023448 0.431362970200293
0.2555956249998417 0.4528578407425501 0.4430874450415241
0.2557848639999065 0.45676599902296044 0.45676599902296044
0.2559739170001194 0.45676599902296044 0.4538348803126526
0.2561638399997719 0.45969711773326827 0.4557889594528579
0.2563532999997733 0.4655593551538837 0.45188080117244755
0.2565425200000391 0.4655593551538837 0.44406448461162684
0.25673262800000884 0.467513434294089 0.4284318514899854
0.25692179199995735 0.4665363947239862 0.3981436248168051
0.25711267899987433 0.4655593551538837 0.36003908158280407
0.2573024719999921 0.4655593551538837 0.31216414264777725
0.25749259899976096 0.4655593551538837 0.26428920371275044
0.2576817630001642 0.4704445530043966 0.22813873961895448
0.2578711309997743 0.4684904738641915 0.20175867122618474
0.25806166499978644 0.4684904738641915 0.19296531509526127
0.2582531809998727 0.467513434294089 0.19980459208597945
0.2584441419999166 0.46458231558378116 0.22129946262823652
0.2586347129999922 0.4655593551538837 0.25647288715192973
0.2588253399999303 0.467513434294089 0.29653150952613583
0.259015633999752 0.467513434294089 0.33268197361993157
0.2592056129997218 0.4636052760136786 0.36003908158280407
0.25939529500010394 0.45969711773326827 0.3707865168539326
0.2595852179997564 0.4557889594528579 0.376648754274548
0.25977538200004346 0.4538348803126526 0.3756717147044455
0.25996578700005557 0.4528578407425501 0.37274059599413767
0.2601562099998773 0.4509037616023448 0.3756717147044455
0.26034668900001634 0.44699560332193444 0.3952125061064973
0.26053646399986974 0.4509037616023448 0.42452369320957506
0.2607271279998713 0.44992672203224227 0.45676599902296044
0.26091666299998906 0.44992672203224227 0.48705422569614076
0.26110745699998006 0.4538348803126526 0.5173424523693209
0.2612975649999498 0.45676599902296044 0.540791402051783
0.2614875439999196 0.4587200781631655 0.5603321934538348
0.2616774670000268 0.46165119687347334 0.5749877870053737
0.2618678529997851 0.45969711773326827 0.5896433805569126
0.262058277000051 0.4606741573033708 0.605276013678554
0.26225771800000075 0.46262823644357587 0.6267708842208108
0.26244782699995994 0.45969711773326827 0.6463116756228626
0.26263760199981334 0.45676599902296044 0.6658524670249144
0.2628272659999311 0.4528578407425501 0.6775769418661455
0.2630257820001134 0.45188080117244755 0.6844162188568637
0.26322629800006325 0.45188080117244755 0.6853932584269662
0.2634284609998758 0.45188080117244755 0.6844162188568637
0.26362040300000444 0.4450415241817294 0.6785539814362482
0.26381056699983674 0.4450415241817294 0.6785539814362482
0.2640011200001027 0.44406448461162684 0.688324377137274
0.26419100600014644 0.441133365901319 0.6980947728383
0.2643807069998729 0.44211040547142155 0.7059110893991207
0.26456989000007525 0.4430874450415241 0.7195896433805569
0.26475935000007667 0.4430874450415241 0.7391304347826086
0.2649492549999195 0.44211040547142155 0.7469467513434294
0.2651390860000902 0.4382022471910112 0.7635564240351733
0.26532887999974264 0.43917928676111373 0.7830972154372251
0.2655183769998075 0.441133365901319 0.7987298485588665
0.2657082079999782 0.44211040547142155 0.8065461651196872
0.2658981119998316 0.4430874450415241 0.7860283341475329
0.2660892019998755 0.44211040547142155 0.7479237909135319
0.26628014400012034 0.4450415241817294 0.6873473375671715
0.26647054900013245 0.4460185637518319 0.6170004885197851
0.2666610649998802 0.4450415241817294 0.5515388373229115
0.26685043299994504 0.4430874450415241 0.5036638983878847
0.2670408190001581 0.44211040547142155 0.4811919882755251
0.2672306489998846 0.4430874450415241 0.4909623839765511
0.2674206100000447 0.44211040547142155 0.5163654127992183
0.2676107920001414 0.44406448461162684 0.5388373229115779
0.26780002999976205 0.44406448461162684 0.5427454811919883
0.2679896760000702 0.4450415241817294 0.5163654127992183
0.2681799699998919 0.44211040547142155 0.45969711773326827
0.2683697449997453 0.43722520762090866 0.3737176355642404
0.2685612420000325 0.43429408891060084 0.2789447972642891
0.2687517399999706 0.42745481191988266 0.20762090864680016
0.2689419220000673 0.4264777723497801 0.15681485100146553
0.2691319380001005 0.4206155349291647 0.1333659013190034
0.2693226390001655 0.4176844162188569 0.13825109916951628
0.2695128589998603 0.41963849535906195 0.15681485100146553
0.26970302300014737 0.41963849535906195 0.18417195896433802
0.2698930010001277 0.41963849535906195 0.21934538348803123
0.2700826469999811 0.42159257449926724 0.24865657059110902
0.2702723480001623 0.4235466536394723 0.26917440156326333
0.27046477099975164 0.42745481191988266 0.27699071812408405
0.2706543609997425 0.4255007327796776 0.27015144113336587
0.27084435899996606 0.4255007327796776 0.25744992672203226
0.2710338189999675 0.4255007327796776 0.22813873961895448
0.2712230389997785 0.42940889106008795 0.21446018563751834
0.271413462000055 0.42745481191988266 0.2232535417684416
0.2716032369999084 0.42745481191988266 0.2584269662921348
0.27179282699989926 0.4284318514899854 0.3141182217879823
0.27198237999982666 0.4303859306301905 0.37176355642403514
0.27217193299975406 0.4284318514899854 0.42159257449926724
0.27236135600014677 0.4303859306301905 0.46262823644357587
0.2725514089997887 0.4333170493404983 0.48705422569614076
0.2727406469998641 0.43624816805080613 0.5036638983878847
0.27293001499992897 0.43624816805080613 0.5105031753786029
0.2731194200000573 0.44211040547142155 0.512457254518808
0.2733086949997414 0.4430874450415241 0.5075720566682951
0.27349830299999667 0.4460185637518319 0.49877870053737183
0.27368817099977605 0.4460185637518319 0.4811919882755251
0.27387785400014764 0.4538348803126526 0.44992672203224227
0.2740683319998425 0.45188080117244755 0.4137762579384465
0.2742605519997596 0.4538348803126526 0.38153395212506114
0.2744515310000679 0.4557889594528579 0.36199316072300936
0.2746414729999742 0.4538348803126526 0.35710796287249624
0.2748316369998065 0.4557889594528579 0.35710796287249624
0.2750217449997763 0.45676599902296044 0.3639472398632144
0.27521209399992586 0.4587200781631655 0.3737176355642404
0.27540264699973704 0.45969711773326827 0.3707865168539326
0.2755926999998337 0.4655593551538837 0.3707865168539326
0.2757829940001102 0.4684904738641915 0.37274059599413767
0.27597288000015396 0.4733756717147044 0.3756717147044455
0.2761623960000179 0.4811919882755251 0.37957987298485585
0.2763515789997655 0.4831460674157304 0.3854421104054715
0.2765412799999467 0.4851001465559355 0.39228138739618945
0.2767318510000223 0.48705422569614076 0.40205178309721545
0.2769217559998651 0.4851001465559355 0.4157303370786516
0.27711167899997236 0.4851001465559355 0.42940889106008795
0.277301603000069 0.48412310698583294 0.44894968246213973
0.2774914520000493 0.4851001465559355 0.45676599902296044
0.27768174499988163 0.48412310698583294 0.4587200781631655
0.27787161300011576 0.48412310698583294 0.4528578407425501
0.2780612400001701 0.486077186126038 0.4382022471910112
0.2782512190001398 0.48412310698583294 0.42745481191988266
0.27844058699974994 0.48412310698583294 0.42159257449926724
0.27863034299980427 0.4880312652662433 0.4206155349291647
0.27882017399997494 0.48216902784562765 0.4264777723497801
0.2790103749998707 0.4782608695652173 0.4323400097703958
0.279200223999851 0.4753297508549097 0.4206155349291647
0.2793902220000746 0.4763067904250122 0.412799218368344
0.27958010800011834 0.4733756717147044 0.4049829018075233
0.2797693279999294 0.47142159257449934 0.39423546653639474
0.2799589549999837 0.47435271128480694 0.3854421104054715
0.28014878500016493 0.467513434294089 0.3629702002931119
0.28033870899980684 0.4655593551538837 0.3365901319003419
0.2805287609999141 0.4636052760136786 0.3180263800683927
0.28071966600009546 0.4665363947239862 0.3229115779189058
0.280910644999949 0.46165119687347334 0.35906204201270153
0.28110047600011967 0.45969711773326827 0.41182217879824123
0.28129012099998363 0.45676599902296044 0.4831460674157304
0.2814793960001225 0.457743038593063 0.5613092330239375
0.2816690419999759 0.45969711773326827 0.6443575964826576
0.28185948400005145 0.4606741573033708 0.7127503663898387
0.28204977699988376 0.4606741573033708 0.7567171470444554
0.28225240399979157 0.4587200781631655 0.78114313629702
0.28244414199980383 0.4528578407425501 0.7850512945774304
0.2826355839997632 0.44992672203224227 0.78114313629702
0.2828257850001137 0.4479726428920372 0.771372740595994
0.2830165969999143 0.44699560332193444 0.7489008304836346
0.28320633600014844 0.4450415241817294 0.7225207620908647
0.28339677699977983 0.44211040547142155 0.6961406936980947
0.2835867009998765 0.4401563263312165 0.6541279921836833
0.2837770870000895 0.441133365901319 0.6257938446507083
0.28396762100010164 0.43917928676111373 0.5984367366878358
0.28415767399974357 0.44211040547142155 0.5749877870053737
0.28434741199998825 0.44699560332193444 0.5613092330239375
0.2845367800000531 0.4382022471910112 0.5632633121641426
0.28472761100010757 0.4382022471910112 0.5720566682950659
0.2849183120001726 0.4352711284807034 0.5749877870053737
0.2851089390001107 0.43429408891060084 0.5740107474352711
0.2852994549998584 0.4284318514899854 0.5701025891548608
0.28549021099979655 0.42745481191988266 0.5544699560332194
0.2856801899997663 0.4206155349291647 0.5280898876404494
0.28587007599981007 0.4186614557889594 0.4851001465559355
0.2860608329997376 0.41670737664875435 0.42940889106008795
0.28625199699990844 0.4108451392281387 0.3707865168539326
0.2864425130001109 0.40889106008793363 0.31216414264777725
0.2866322139998374 0.4059599413776258 0.25647288715192973
0.28682091500013485 0.40693698094772834 0.20273571079628727
0.28701024600013625 0.40693698094772834 0.17147044455300442
0.28720007599986275 0.40693698094772834 0.15974596971177335
0.28739127800008646 0.4079140205178309 0.17147044455300442
0.2875810340001408 0.40986809965803617 0.19980459208597945
0.2877710869997827 0.40986809965803617 0.2525647288715194
0.28796078799996394 0.41182217879824123 0.31021006350757196
0.28815028600001824 0.4108451392281387 0.3678553981436248
0.2883400239998082 0.412799218368344 0.412799218368344
0.2885295579999365 0.41182217879824123 0.4479726428920372
0.2887187040000754 0.4157303370786516 0.4753297508549097
0.2889086820000557 0.4186614557889594 0.5007327796775769
0.2890980869997293 0.42940889106008795 0.5202735710796287
0.2892879549999634 0.43429408891060084 0.5300439667806547
0.2894772300001023 0.4401563263312165 0.5359062042012701
0.2896667649997653 0.44699560332193444 0.5319980459208598
0.289856724999936 0.44992672203224227 0.5261358085002443
0.2900465930001701 0.45188080117244755 0.5212506106497312
0.2902473680001094 0.45481191988275516 0.5163654127992183
0.29043790200012154 0.4557889594528579 0.512457254518808
0.2906277699999009 0.45676599902296044 0.5105031753786029
0.2908175080001456 0.45676599902296044 0.49975574010747437
0.2910069129998192 0.4538348803126526 0.4880312652662433
0.29119633599975714 0.45188080117244755 0.4704445530043966
0.29138635199979035 0.45188080117244755 0.44211040547142155
0.2915761270000985 0.44992672203224227 0.412799218368344
0.29176571700008935 0.44894968246213973 0.37957987298485585
0.29195534400014367 0.44699560332193444 0.35417684416218864
0.2921448409997538 0.44992672203224227 0.32975085490962375
0.2923343570000725 0.4528578407425501 0.3160723009281876
0.2925240209997355 0.4587200781631655 0.3053248656570591
0.292714222000086 0.4636052760136786 0.29750854909623836
0.29290395999987595 0.47142159257449934 0.303370786516854
0.2930935499998668 0.47435271128480694 0.3131411822178798
0.2932828069997413 0.4811919882755251 0.32681973619931615
0.29347326700008125 0.47923790913532005 0.33952125061064975
0.29366396800014627 0.47923790913532005 0.3610161211529066
0.2938541879998411 0.48412310698583294 0.37176355642403514
0.2940440369998214 0.4782608695652173 0.3883732291157791
0.2942440339998029 0.4802149487054226 0.40009770395701016
0.2944347729999208 0.4802149487054226 0.41182217879824123
0.29462447400010205 0.4831460674157304 0.4176844162188569
0.29481437799995547 0.4831460674157304 0.41475329750854906
0.295003319999978 0.4851001465559355 0.40009770395701016
0.29519276200016975 0.4880312652662433 0.38641914997557403
0.2953828889999386 0.48998534440644836 0.3678553981436248
0.2955722940000669 0.48998534440644836 0.3561309233023937
0.2957620130000578 0.49193942354665365 0.34733756717147046
0.2959528629999113 0.4909623839765511 0.33952125061064975
0.29614306399980705 0.4948705422569615 0.3356130923302394
0.29633241300007285 0.4909623839765511 0.3424523693209576
0.29652204000012716 0.48900830483634583 0.36003908158280407
0.29671227800008637 0.4909623839765511 0.3805569125549584
0.2969029790001514 0.48412310698583294 0.3952125061064973
0.2970930319997933 0.4802149487054226 0.4059599413776258
0.29728295499990054 0.4753297508549097 0.4059599413776258
0.29747245299995484 0.46946751343429405 0.4049829018075233
0.297662894000041 0.4655593551538837 0.39912066438690763
0.29785353999977815 0.4587200781631655 0.39716658524670256
0.29804407399979027 0.4587200781631655 0.4049829018075233
0.29824427499988815 0.4557889594528579 0.40889106008793363
0.298435217000133 0.45481191988275516 0.41670737664875435
0.29862576999994417 0.45188080117244755 0.43722520762090866
0.2988160639997659 0.4538348803126526 0.46165119687347334
0.2990058760001375 0.45188080117244755 0.486077186126038
0.29919531799987453 0.45188080117244755 0.5095261358085001
0.29938546299990776 0.4509037616023448 0.5280898876404494
0.2995761269999093 0.45481191988275516 0.5476306790425012
0.29976654999973107 0.4479726428920372 0.5603321934538348
0.29995745499991244 0.44699560332193444 0.5691255495847583
0.3001480640000409 0.4450415241817294 0.576941866145579
0.3003382829997463 0.4479726428920372 0.5720566682950659
0.3005286879997584 0.44992672203224227 0.5544699560332194
0.3007195000000138 0.4479726428920372 0.5427454811919883
0.3009093309997297 0.44992672203224227 0.5310210063507572
0.30109979100006967 0.4479726428920372 0.5232046897899365
0.30129051099993376 0.44894968246213973 0.5105031753786029
0.30148097099981896 0.4460185637518319 0.5095261358085001
0.30167141299989453 0.44699560332193444 0.5192965315095261
0.30186179900010757 0.4450415241817294 0.524181729360039
0.3020517229997495 0.4450415241817294 0.5398143624816805
0.30225081199978376 0.44699560332193444 0.5495847581827065
0.3024381430000176 0.44211040547142155 0.5603321934538348
0.3026257329997861 0.441133365901319 0.5720566682950659
0.3028150820000519 0.4401563263312165 0.5710796287249633
0.303002634999757 0.441133365901319 0.5632633121641426
0.3031898919998639 0.4430874450415241 0.5564240351734244
0.30337696300011885 0.4430874450415241 0.5456765999022961
0.30357096099987757 0.4401563263312165 0.5456765999022961
0.30375975400011157 0.4382022471910112 0.5476306790425012
0.30394664100003865 0.43917928676111373 0.5534929164631168
0.3041330830001243 0.4382022471910112 0.5495847581827065
0.3043198020000091 0.4382022471910112 0.5388373229115779
0.304507059000116 0.4382022471910112 0.5192965315095261
0.30469370399987383 0.4352711284807034 0.5065950170981925
0.30488044300000183 0.4352711284807034 0.47923790913532005
0.3050671810001404 0.431362970200293 0.467513434294089
0.30525352999984534 0.431362970200293 0.46458231558378116
0.30544071299982534 0.42940889106008795 0.45676599902296044
0.3056271169998581 0.42745481191988266 0.44894968246213973
0.3058132999999543 0.42745481191988266 0.42745481191988266
0.3060003529999449 0.42159257449926724 0.3981436248168051
0.3061919609999677 0.4206155349291647 0.36003908158280407
0.30638588500005426 0.4186614557889594 0.3277967757694187
0.306576529999802 0.4176844162188569 0.30923302393746943
0.30676623099998324 0.41670737664875435 0.3141182217879823
0.3069565060000059 0.4176844162188569 0.3414753297508548
0.3071467629997642 0.42159257449926724 0.38935026868588185
0.3073367970000618 0.41963849535906195 0.4479726428920372
0.30752714699974604 0.42256961406936977 0.5134342940889105
0.30771762499989563 0.4255007327796776 0.5720566682950659
0.3079072340001403 0.4303859306301905 0.6267708842208108
0.30809697199993025 0.4333170493404983 0.6726917440156326
0.30828722900014327 0.4352711284807034 0.7205666829506594
0.30847705899986977 0.4352711284807034 0.7498778700537372
0.3086672599997655 0.43917928676111373 0.771372740595994
0.30885727599979873 0.43917928676111373 0.7860283341475329
0.30904729199983194 0.44211040547142155 0.7879824132877382
0.3092371039997488 0.4450415241817294 0.7840742550073279
0.30942702799984545 0.4460185637518319 0.7752808988764044
0.30961743299985756 0.45188080117244755 0.7586712261846604
0.3098073559999648 0.45676599902296044 0.7205666829506594
0.3099971309998182 0.46165119687347334 0.67171470444553
0.31018831299979865 0.46165119687347334 0.6170004885197851
0.31037753300006443 0.46262823644357587 0.5593551538837322
0.3105677339999602 0.46262823644357587 0.48705422569614076
0.31075715699989814 0.46262823644357587 0.4010747435271129
0.310946746999889 0.4606741573033708 0.3014167073766487
0.3111366339999222 0.45969711773326827 0.2056668295065951
0.3113272790001247 0.4557889594528579 0.12750366389838796
0.3115173880000839 0.45188080117244755 0.08158280410356622
0.31170866299999034 0.44992672203224227 0.06692721055202733
0.31189819700011867 0.4430874450415241 0.0786516853932584
0.31208791700009897 0.4382022471910112 0.09428431851489982
0.3122776549998889 0.43722520762090866 0.11284807034684907
0.3124677079999856 0.43624816805080613 0.1265266243282852
0.3126567790000081 0.4430874450415241 0.1431362970200294
0.312846054000147 0.43917928676111373 0.16072300928187588
0.3130357740001273 0.43917928676111373 0.18417195896433802
0.31322503100000176 0.4382022471910112 0.2164142647777234
0.31341401000008773 0.4401563263312165 0.25744992672203226
0.3136030440000468 0.44211040547142155 0.30727894479726436
0.31379202300013276 0.4450415241817294 0.3531998045920859
0.31398140900000726 0.44699560332193444 0.3961895456765998
0.31417151799996645 0.44894968246213973 0.42159257449926724
0.3143617929999891 0.4528578407425501 0.4352711284807034
0.31455103100006454 0.45481191988275516 0.4352711284807034
0.31474019500001305 0.45969711773326827 0.42940889106008795
0.31492958099988755 0.457743038593063 0.4206155349291647
0.3151187079997726 0.457743038593063 0.4059599413776258
0.3153085569997529 0.46458231558378116 0.38446507083536874
0.3154986839999765 0.45969711773326827 0.36003908158280407
0.315688162999777 0.46165119687347334 0.33463605276013686
0.3158777160001591 0.4606741573033708 0.31900341963849543
0.31606706499997017 0.4636052760136786 0.303370786516854
0.3162590629999613 0.4655593551538837 0.303370786516854
0.31644926399985707 0.4684904738641915 0.3141182217879823
0.31663929800015467 0.47142159257449934 0.33170493404982904
0.3168289619998177 0.4684904738641915 0.3551538837322912
0.31701842299980854 0.47142159257449934 0.3786028334147533
0.3172074569997676 0.47142159257449934 0.40205178309721545
0.31739784299998064 0.47239863214460187 0.41963849535906195
0.3175884520001091 0.47435271128480694 0.43624816805080613
0.31777780099992015 0.47435271128480694 0.45481191988275516
0.3179669460000696 0.47435271128480694 0.4704445530043966
0.31815844399989146 0.47239863214460187 0.48998534440644836
0.31834925600014685 0.47435271128480694 0.4978016609672691
0.31853925299992625 0.47435271128480694 0.4978016609672691
0.31872843600012857 0.47239863214460187 0.4978016609672691
0.31891763700014053 0.47435271128480694 0.4929164631167562
0.3191074490000574 0.47239863214460187 0.4851001465559355
0.31929798400005893 0.46946751343429405 0.4851001465559355
0.3194877959999758 0.47435271128480694 0.4811919882755251
0.31967653399988194 0.4665363947239862 0.4782608695652173
0.31986647599978824 0.46458231558378116 0.4606741573033708
0.32005651000008584 0.4665363947239862 0.43429408891060084
0.3202457669999603 0.4665363947239862 0.403028822667318
0.32043552300001465 0.4655593551538837 0.37957987298485585
0.32062546499992095 0.46262823644357587 0.37176355642403514
0.3208151479998378 0.46165119687347334 0.38153395212506114
0.32100459000002957 0.45969711773326827 0.39423546653639474
0.32119453099994644 0.45969711773326827 0.4157303370786516
0.32138408399987384 0.457743038593063 0.4284318514899854
0.32157285899984345 0.457743038593063 0.441133365901319
0.32176276400014103 0.45969711773326827 0.4460185637518319
0.3219522250001319 0.457743038593063 0.44406448461162684
0.3221561479999764 0.45969711773326827 0.441133365901319
0.32234725599982994 0.45969711773326827 0.4333170493404983
0.32253610499992647 0.457743038593063 0.42256961406936977
0.3227253989998644 0.457743038593063 0.41670737664875435
0.32291510000004564 0.4538348803126526 0.41670737664875435
0.32310528300013175 0.4636052760136786 0.42452369320957506
0.32329464999975244 0.4557889594528579 0.44406448461162684
0.3234847590001664 0.4538348803126526 0.467513434294089
0.3236739599997236 0.45188080117244755 0.49193942354665365
0.32386371699976735 0.44894968246213973 0.5134342940889105
0.32405365800013897 0.4479726428920372 0.5319980459208598
0.32424345199979143 0.44699560332193444 0.5378602833414754
0.32443439400003626 0.4460185637518319 0.5417684416218858
0.3246247429997311 0.4450415241817294 0.540791402051783
0.3248152589999336 0.4430874450415241 0.5456765999022961
0.32500560800008316 0.43917928676111373 0.5515388373229115
0.325195291 0.43722520762090866 0.5652173913043479
0.3253853070000332 0.43429408891060084 0.5818270639960919
0.32557523000014044 0.4323400097703958 0.5876893014167073
0.32576511599972946 0.42940889106008795 0.6023448949682462
0.3259547429997838 0.431362970200293 0.6121152906692722
0.32615348099989205 0.42940889106008795 0.6189545676599901
0.32634634899977755 0.4284318514899854 0.6228627259404005
0.32653666099986367 0.42940889106008795 0.6228627259404005
0.3267264179999074 0.431362970200293 0.6238397655105032
0.3269171560000359 0.43624816805080613 0.6140693698094772
0.32710657899997386 0.43429408891060084 0.6091841719589643
0.32729679900012343 0.4352711284807034 0.6003908158280411
0.3274865739999768 0.43429408891060084 0.5994137762579383
0.3276764600000206 0.4382022471910112 0.5945285784074255
0.3278657350001595 0.431362970200293 0.5857352222765022
0.3280558619999283 0.4303859306301905 0.5798729848558866
0.32824584099989806 0.4284318514899854 0.5720566682950659
0.3284354679999524 0.4264777723497801 0.5661944308744504
0.32862513200007015 0.42452369320957506 0.5574010747435272
0.3288144260000081 0.42745481191988266 0.5534929164631168
0.32900384899994606 0.42745481191988266 0.5476306790425012
0.3291941239999687 0.4264777723497801 0.5456765999022961
0.3293839550001394 0.4303859306301905 0.5446995603321934
0.329573266999887 0.431362970200293 0.540791402051783
0.3297625790000893 0.4333170493404983 0.5183194919394236
0.3299520579998898 0.43624816805080613 0.4978016609672691
0.3301499439999134 0.4401563263312165 0.4704445530043966
0.3303413680000631 0.44406448461162684 0.4450415241817294
0.33053049499994813 0.44992672203224227 0.42452369320957506
0.3307200660001399 0.44992672203224227 0.39912066438690763
0.3309098409999933 0.45188080117244755 0.3854421104054715
0.33109928299973035 0.45481191988275516 0.3737176355642404
0.3312885579998692 0.45481191988275516 0.37274059599413767
0.33147757400001865 0.4557889594528579 0.3737176355642404
0.33166649699978734 0.4538348803126526 0.3834880312652662
0.331856106000032 0.4557889594528579 0.3913043478260869
0.3320458809998854 0.457743038593063 0.40693698094772834
0.33223506400008773 0.46262823644357587 0.4235466536394723
0.33242422800003624 0.4665363947239862 0.43917928676111373
0.3326137250001011 0.46458231558378116 0.4557889594528579
0.33280270399973233 0.467513434294089 0.4753297508549097
0.33299216399973375 0.4733756717147044 0.5026868588177822
0.3331821619999573 0.467513434294089 0.5300439667806547
0.3333721589997367 0.4655593551538837 0.5534929164631168
0.3335613599997487 0.47435271128480694 0.5749877870053737
0.333750986999803 0.467513434294089 0.5984367366878358
0.3339406139998573 0.46946751343429405 0.6082071323888618
0.33413048200009143 0.4665363947239862 0.6023448949682462
0.334330386000147 0.467513434294089 0.5847581827063997
0.33451992099981 0.46946751343429405 0.5534929164631168
0.3347085289997267 0.47239863214460187 0.5212506106497312
0.33489761900000303 0.47435271128480694 0.4753297508549097
0.3350893020001422 0.4753297508549097 0.42745481191988266
0.33527941000011197 0.47239863214460187 0.3629702002931119
0.33546864799973264 0.46946751343429405 0.2838299951148022
0.33565821999991385 0.467513434294089 0.19882755251587692
0.3358472539998729 0.4655593551538837 0.12359550561797761
0.33603695500005415 0.457743038593063 0.08255984367366875
0.33622676799996043 0.45481191988275516 0.0737664875427455
0.3364164129998244 0.44992672203224227 0.10014655593551547
0.33660563300009017 0.44992672203224227 0.1538837322911577
0.33679485199991177 0.44699560332193444 0.21152906692721052
0.3369840899999872 0.44699560332193444 0.2633121641426477
0.3371731060001366 0.44894968246213973 0.31021006350757196
0.337362437000138 0.44894968246213973 0.3404982901807523
0.33755148999989615 0.44992672203224227 0.3512457254518808
0.3377401349998763 0.4509037616023448 0.36003908158280407
0.3379293550001421 0.4528578407425501 0.36687835857352225
0.33811801899992133 0.4528578407425501 0.3805569125549584
0.33830838699987 0.45481191988275516 0.4108451392281387
0.33849834700004067 0.45676599902296044 0.4509037616023448
0.3386867889998939 0.45969711773326827 0.495847581827064
0.3388761199998953 0.45969711773326827 0.5388373229115779
0.3390660609998122 0.45969711773326827 0.5691255495847583
0.3392551329998241 0.4655593551538837 0.58866634098681
0.33944444500002646 0.4655593551538837 0.5964826575476307
0.33963468299998567 0.4636052760136786 0.5896433805569126
0.3398242550001669 0.45969711773326827 0.5740107474352711
0.3400136969999039 0.4636052760136786 0.5476306790425012
0.3402031750001697 0.4655593551538837 0.512457254518808
0.3403925990000971 0.4665363947239862 0.4479726428920372
0.34058241100001396 0.4655593551538837 0.37957987298485585
0.34077162999983557 0.46262823644357587 0.3229115779189058
0.34096107200002734 0.4606741573033708 0.28285295554469947
0.3411505330000182 0.45481191988275516 0.2730825598436737
0.34133988199982923 0.4528578407425501 0.2808988764044944
0.3415289350000421 0.4528578407425501 0.30239374694675125
0.341718654000033 0.4528578407425501 0.3277967757694187
0.34190835499975947 0.4509037616023448 0.36003908158280407
0.3420982970001205 0.4509037616023448 0.38153395212506114
0.3422885539998788 0.44699560332193444 0.3932584269662922
0.34247825500006 0.44211040547142155 0.38641914997557403
0.34266817800016725 0.43624816805080613 0.3502686858817783
0.34285760200009463 0.4382022471910112 0.30923302393746943
0.3430471540000326 0.43429408891060084 0.2887151929653151
0.3432366329998331 0.43429408891060084 0.29750854909623836
0.3434262790001412 0.43429408891060084 0.3287738153395212
0.34361555399982535 0.43624816805080613 0.3786028334147533
0.34380534799993256 0.43624816805080613 0.4284318514899854
0.343994715000008 0.4401563263312165 0.4753297508549097
0.3441838049998296 0.4430874450415241 0.49682462139716654
0.34437254399972517 0.43917928676111373 0.5065950170981925
0.34456233699984296 0.441133365901319 0.5085490962383976
0.3447521120001511 0.43722520762090866 0.5105031753786029
0.34494149900001503 0.43429408891060084 0.524181729360039
0.3451314399999319 0.4333170493404983 0.5456765999022961
0.3453208450000602 0.431362970200293 0.5710796287249633
0.3455103239998607 0.431362970200293 0.5984367366878358
0.3456992100000207 0.431362970200293 0.6160234489496825
0.34588963399983186 0.431362970200293 0.6355642403517343
0.34607898300009765 0.4352711284807034 0.6472887151929654
0.3462696470000992 0.43429408891060084 0.6521739130434783
0.3464589039999737 0.43429408891060084 0.6472887151929654
0.3466480679999222 0.43917928676111373 0.6394723986321447
0.3468376199998602 0.43722520762090866 0.6375183194919394
0.34702676599999904 0.4382022471910112 0.6306790425012212
0.3472161149998101 0.43722520762090866 0.6199316072300929
0.34740548299987495 0.43722520762090866 0.6150464093795798
0.3475947030001407 0.43624816805080613 0.6091841719589643
0.3477842369998143 0.43917928676111373 0.6140693698094772
0.347974196999985 0.4352711284807034 0.6170004885197851
0.348163416999796 0.4352711284807034 0.621885686370298
0.348352617999808 0.4333170493404983 0.6267708842208108
0.3485420970000632 0.43722520762090866 0.6111382510991694
0.34873189100017044 0.4352711284807034 0.595505617977528
0.3489212949998546 0.43917928676111373 0.5798729848558866
0.349110625999856 0.441133365901319 0.5710796287249633
0.3492996969998785 0.44406448461162684 0.5691255495847583
0.3494889170001443 0.44406448461162684 0.5691255495847583
0.3496784700000717 0.44406448461162684 0.5691255495847583
0.3498682079998616 0.44406448461162684 0.5593551538837322
0.3500574280001274 0.44406448461162684 0.5446995603321934
0.35025501800009806 0.4460185637518319 0.5290669272105519
0.3504457740000362 0.4430874450415241 0.5056179775280898
0.3506352720000905 0.4450415241817294 0.47435271128480694
0.350824786999965 0.44211040547142155 0.43722520762090866
0.35101463699993474 0.4382022471910112 0.403028822667318
0.3512043749997247 0.43917928676111373 0.3659013190034197
0.3513935020000645 0.43917928676111373 0.3336590131900341
0.3515825549998226 0.441133365901319 0.2984855886663409
0.3517726629997924 0.44211040547142155 0.2662432828529555
0.3519624569998996 0.4450415241817294 0.23888617489008301
0.35215187999983755 0.44699560332193444 0.2261846604787494
0.35234161800008224 0.4528578407425501 0.22911577918905723
0.3525306900000942 0.4557889594528579 0.23400097703957012
0.3527200570001696 0.4587200781631655 0.23986321446018555
0.35291022199999134 0.46458231558378116 0.24963361016121155
0.3531000889997813 0.46458231558378116 0.25940400586223733
0.3532894199997827 0.46262823644357587 0.27015144113336587
0.35347884299972065 0.46458231558378116 0.28285295554469947
0.35367189599992344 0.4636052760136786 0.29750854909623836
0.3538623939998615 0.4636052760136786 0.3150952613580851
0.35405185399986294 0.4655593551538837 0.33463605276013686
0.35425123999993957 0.4655593551538837 0.36199316072300936
0.35444118199984587 0.4636052760136786 0.39228138739618945
0.35463092000009055 0.4665363947239862 0.42159257449926724
0.3548210469998594 0.46458231558378116 0.44894968246213973
0.35501063699985025 0.46458231558378116 0.4782608695652173
0.3552004489997671 0.46458231558378116 0.5017098192476794
0.3553904649998003 0.47923790913532005 0.5329750854909623
0.3555801849997806 0.47239863214460187 0.550561797752809
0.35576988599996184 0.4763067904250122 0.5583781143136297
0.3559595500000796 0.47728382999511476 0.5583781143136297
0.3561483799999223 0.4831460674157304 0.5544699560332194
0.35633795200010354 0.4851001465559355 0.5427454811919883
0.3565278199998829 0.4909623839765511 0.5144113336590133
0.3567173169999478 0.48705422569614076 0.4733756717147044
0.3569068699998752 0.48705422569614076 0.41475329750854906
0.3570966449997286 0.4851001465559355 0.3453834880312652
0.3572866609997618 0.4880312652662433 0.27699071812408405
0.35747619499989014 0.4831460674157304 0.22227650219833905
0.3576657109997541 0.4782608695652173 0.18710307767464585
0.3578555599997344 0.47239863214460187 0.17147044455300442
0.3580448359998627 0.46458231558378116 0.18221787982413296
0.358244017999823 0.4636052760136786 0.21446018563751834
0.3584337009997398 0.4606741573033708 0.2515876893014166
0.3586231979998047 0.4538348803126526 0.29653150952613583
0.3588124359998801 0.45188080117244755 0.34733756717147046
0.35900161900008243 0.4479726428920372 0.40009770395701016
0.35919107900008385 0.4479726428920372 0.4460185637518319
0.35938076100001126 0.44406448461162684 0.47728382999511476
0.35957018499993865 0.44406448461162684 0.4948705422569615
0.35975947799988717 0.44406448461162684 0.5095261358085001
0.3599499389997618 0.44406448461162684 0.522227650219834
0.36013925099996413 0.44992672203224227 0.5388373229115779
0.36032858199996554 0.44992672203224227 0.5495847581827065
0.360519985999872 0.4509037616023448 0.5534929164631168
0.3607102619998841 0.4528578407425501 0.5515388373229115
0.3608992589997797 0.45676599902296044 0.540791402051783
0.3610887559998446 0.4587200781631655 0.5251587689301416
0.3612782539998989 0.4606741573033708 0.5056179775280898
0.3614677880000272 0.45969711773326827 0.4782608695652173
0.361657674000071 0.46165119687347334 0.4450415241817294
0.36184770899990326 0.4587200781631655 0.4040058622374205
0.3620377429997461 0.4587200781631655 0.3688324377137273
0.36223692600015056 0.4528578407425501 0.3531998045920859
0.3624267929999405 0.44699560332193444 0.3659013190034197
0.3626169019998997 0.441133365901319 0.3952125061064973
0.36280651000015496 0.4382022471910112 0.4352711284807034
0.36299665599972286 0.431362970200293 0.47923790913532005
0.36318648699989353 0.431362970200293 0.5251587689301416
0.36337633599987385 0.4352711284807034 0.5613092330239375
0.3635660370000551 0.431362970200293 0.5984367366878358
0.363755867999771 0.42940889106008795 0.6257938446507083
0.36394506899978296 0.431362970200293 0.6472887151929654
0.36413486199990075 0.431362970200293 0.6580361504640937
0.36432402599984925 0.431362970200293 0.650219833903273
0.364513689999967 0.431362970200293 0.6463116756228626
0.364702983999905 0.4323400097703958 0.6287249633610161
0.3648926109999593 0.4303859306301905 0.6150464093795798
0.36508203399989725 0.4284318514899854 0.6023448949682462
0.36527129099977174 0.4264777723497801 0.5935515388373229
0.3654611219999424 0.4255007327796776 0.5935515388373229
0.3656501750001553 0.42940889106008795 0.6023448949682462
0.3658399500000087 0.42745481191988266 0.6062530532486565
0.3660290399998303 0.4303859306301905 0.6189545676599901
0.36622685199972693 0.4303859306301905 0.6453346360527601
0.3664170339998236 0.431362970200293 0.6658524670249144
0.3666061799999625 0.43917928676111373 0.6873473375671715
0.36679621399980533 0.43722520762090866 0.7000488519785051
0.36698576699973273 0.43917928676111373 0.6902784562774793
0.36717626500012557 0.4382022471910112 0.6658524670249144
0.367367983999884 0.43917928676111373 0.6375183194919394
0.36755801900017104 0.4450415241817294 0.5808500244259893
0.3677481089998764 0.43429408891060084 0.533952125061065
0.36793832800003656 0.4323400097703958 0.48705422569614076
0.36812730700012253 0.4284318514899854 0.45188080117244755
0.3683171749999019 0.4264777723497801 0.4255007327796776
0.36850648700010424 0.42256961406936977 0.40889106008793363
0.368696373000148 0.4206155349291647 0.3952125061064973
0.3688853150001705 0.4206155349291647 0.38739618954567656
0.369074572000045 0.42452369320957506 0.3756717147044455
0.3692645129999619 0.4264777723497801 0.3659013190034197
0.3694539739999527 0.4284318514899854 0.3561309233023937
0.3696427119998589 0.43722520762090866 0.3502686858817783
0.3698325059999661 0.4401563263312165 0.3512457254518808
0.3700225029997455 0.4450415241817294 0.35417684416218864
0.37021296300008544 0.4538348803126526 0.35906204201270153
0.3704038309997486 0.46165119687347334 0.3610161211529066
0.3705938650000462 0.4665363947239862 0.3659013190034197
0.3707830289999947 0.46946751343429405 0.35222276502198335
0.3709736559999328 0.4684904738641915 0.3424523693209576
0.37116287599974385 0.47142159257449934 0.3424523693209576
0.371352965999904 0.47142159257449934 0.3424523693209576
0.3715417969997361 0.47142159257449934 0.3424523693209576
0.3717313679999279 0.4733756717147044 0.33268197361993157
0.3719207539998024 0.4704445530043966 0.3150952613580851
0.3721108260001529 0.46946751343429405 0.28969223253541765
0.3723006010000063 0.4684904738641915 0.2740595994137762
0.3724903209999866 0.47142159257449934 0.2730825598436737
0.372679688000062 0.4684904738641915 0.28480703468490476
0.372869222999725 0.467513434294089 0.31021006350757196
0.37305868299972644 0.467513434294089 0.3385442110405472
0.3732484030001615 0.4636052760136786 0.3737176355642404
0.37343814099995143 0.4636052760136786 0.3932584269662922
0.37362760099995285 0.45969711773326827 0.40205178309721545
0.37381669099977444 0.4606741573033708 0.4108451392281387
0.3740055769999344 0.46262823644357587 0.40889106008793363
0.3741966299999149 0.45969711773326827 0.4040058622374205
0.374386498000149 0.45969711773326827 0.41182217879824123
0.37457616199981203 0.4636052760136786 0.42745481191988266
0.37476601099979234 0.4636052760136786 0.4382022471910112
0.3749554719997832 0.4655593551538837 0.44894968246213973
0.3751452840001548 0.4655593551538837 0.4557889594528579
0.37533413299979657 0.4665363947239862 0.4528578407425501
0.3755227599999671 0.4684904738641915 0.4352711284807034
0.3757118690000425 0.4665363947239862 0.4157303370786516
0.3759014209999805 0.4684904738641915 0.3961895456765998
0.3760907149999184 0.47142159257449934 0.38641914997557403
0.3762801379998564 0.47142159257449934 0.3786028334147533
0.3764694319997943 0.467513434294089 0.38641914997557403
0.3766587810000601 0.4684904738641915 0.39423546653639474
0.37684840800011443 0.4684904738641915 0.4010747435271129
0.37703723899994657 0.4733756717147044 0.403028822667318
0.3772261989997787 0.47435271128480694 0.3952125061064973
0.37741516000005504 0.4782608695652173 0.3903273082559844
0.37760391599977083 0.48216902784562765 0.38739618954567656
0.37779380299980403 0.48412310698583294 0.3932584269662922
0.3779834669999218 0.486077186126038 0.403028822667318
0.37817390899999737 0.4938935026868587 0.412799218368344
0.37836277599990353 0.48998534440644836 0.4235466536394723
0.3785519029997886 0.48998534440644836 0.42940889106008795
0.37874110399980054 0.48705422569614076 0.441133365901319
0.37892952799984414 0.4851001465559355 0.44992672203224227
0.3791189509997821 0.48412310698583294 0.4655593551538837
0.3793096519998471 0.48216902784562765 0.48216902784562765
0.37949883500004944 0.47728382999511476 0.5026868588177822
0.37968761000001905 0.4733756717147044 0.512457254518808
0.3798764220000521 0.4733756717147044 0.512457254518808
0.3800650489997679 0.4704445530043966 0.4978016609672691
0.3802541569998539 0.4684904738641915 0.4665363947239862
0.38044404399988707 0.4587200781631655 0.4264777723497801
0.3806332630001634 0.45481191988275516 0.376648754274548
0.3808223719997841 0.45188080117244755 0.31900341963849543
0.3810111469997537 0.44406448461162684 0.2613580850024426
0.38120073699974455 0.4382022471910112 0.22129946262823652
0.3813897159998305 0.43429408891060084 0.2037127503663898
0.38157932400008576 0.4284318514899854 0.21934538348803123
0.38176874800001315 0.42745481191988266 0.2613580850024426
0.3819576519999828 0.42452369320957506 0.32193453834880303
0.3821555009999429 0.42256961406936977 0.38641914997557403
0.38234588800014535 0.4176844162188569 0.441133365901319
0.38253544100007275 0.41670737664875435 0.47728382999511476
0.38272454900015873 0.41670737664875435 0.4909623839765511
0.3829137869997794 0.41475329750854906 0.4929164631167562
0.3831040989998655 0.41670737664875435 0.4909623839765511
0.3832932450000044 0.4206155349291647 0.47923790913532005
0.3834827790001327 0.42452369320957506 0.4655593551538837
0.3836721100001341 0.42745481191988266 0.45188080117244755
0.38386155199987115 0.42745481191988266 0.4382022471910112
0.3840513089999149 0.42940889106008795 0.4382022471910112
0.3842409730000327 0.42940889106008795 0.4479726428920372
0.38443008100011866 0.431362970200293 0.46458231558378116
0.38462000399977114 0.43429408891060084 0.4851001465559355
0.38480896500004746 0.431362970200293 0.5007327796775769
0.3849982030001229 0.431362970200293 0.5144113336590133
0.3851874219999445 0.4303859306301905 0.5329750854909623
0.3853768270000728 0.4255007327796776 0.5564240351734244
0.3855660099998204 0.4284318514899854 0.5837811431362969
0.385756044000118 0.42745481191988266 0.6140693698094772
0.38594652299980226 0.4255007327796776 0.6443575964826576
0.3861448349998682 0.42256961406936977 0.6648754274548119
0.38633681400006026 0.4206155349291647 0.67171470444553
0.3865260339998713 0.42256961406936977 0.6697606253053248
0.3867161049997776 0.42452369320957506 0.6609672691744015
0.38690637999980027 0.42256961406936977 0.6472887151929654
0.3870955809998122 0.42256961406936977 0.6345872007816316
0.38728537499991944 0.42452369320957506 0.6189545676599901
0.3874752609999632 0.4255007327796776 0.6072300928187591
0.3876648330001444 0.4303859306301905 0.6013678553981436
0.3878546450000613 0.42745481191988266 0.6111382510991694
0.38804384600007324 0.4284318514899854 0.6228627259404005
0.3882334360000641 0.4333170493404983 0.6228627259404005
0.3884227290000126 0.4323400097703958 0.6150464093795798
0.38861196800007747 0.4382022471910112 0.6013678553981436
0.3888017609997405 0.4333170493404983 0.5779189057156815
0.3889915919999112 0.441133365901319 0.5622862725940401
0.38918103400010295 0.43917928676111373 0.5495847581827065
0.3893709389999458 0.441133365901319 0.5476306790425012
0.38956006599983084 0.4460185637518319 0.540791402051783
0.389749970000139 0.4509037616023448 0.5388373229115779
0.389939726999728 0.4587200781631655 0.5446995603321934
0.39012890999993033 0.4665363947239862 0.5534929164631168
0.39032864699993297 0.46946751343429405 0.5691255495847583
0.39051779300007183 0.4782608695652173 0.5808500244259893
0.3907077159997243 0.4763067904250122 0.5867122618466047
0.39089719499997955 0.4811919882755251 0.58866634098681
0.3910871739999493 0.4802149487054226 0.5808500244259893
0.39127598599998237 0.48216902784562765 0.5613092330239375
0.3914657239997723 0.47923790913532005 0.522227650219834
0.391655018000165 0.47728382999511476 0.46262823644357587
0.39184531199998673 0.4753297508549097 0.3952125061064973
0.3920351789997767 0.4753297508549097 0.3453834880312652
0.3922244360001059 0.4704445530043966 0.30239374694675125
0.39241395199996987 0.4704445530043966 0.27210552027357116
0.3926032459999078 0.4704445530043966 0.2515876893014166
0.39279248399998323 0.467513434294089 0.2408402540302883
0.39298150000013266 0.46458231558378116 0.2330239374694676
0.3931706079997639 0.46165119687347334 0.22911577918905723
0.3933597169998393 0.45969711773326827 0.2330239374694676
0.3935483440000098 0.46165119687347334 0.23693209574987795
0.3937380080001276 0.45676599902296044 0.24670249145090373
0.3939273749997483 0.45481191988275516 0.2633121641426477
0.3941172619997815 0.46165119687347334 0.28969223253541765
0.39430714799982525 0.45676599902296044 0.3180263800683927
0.3944966270000805 0.45676599902296044 0.33952125061064975
0.39468634600007135 0.45676599902296044 0.35222276502198335
0.39487538100001984 0.45676599902296044 0.3707865168539326
0.39506459999984145 0.4557889594528579 0.36980947728383007
0.3952540790000967 0.457743038593063 0.3913043478260869
0.3954434279999077 0.45969711773326827 0.412799218368344
0.3956334069998775 0.4606741573033708 0.4323400097703958
0.395822570999826 0.4655593551538837 0.4479726428920372
0.39601216099981684 0.46946751343429405 0.4606741573033708
0.39620095500004027 0.4704445530043966 0.4704445530043966
0.3963897859998724 0.47142159257449934 0.46165119687347334
0.3965787460001593 0.47142159257449934 0.4450415241817294
0.3967673729998751 0.4733756717147044 0.42159257449926724
0.3969563149998976 0.4704445530043966 0.39228138739618945
0.3971455719997721 0.46458231558378116 0.35710796287249624
0.39733423600000606 0.45969711773326827 0.32486565705911086
0.39752378899993346 0.45676599902296044 0.2955544699560333
0.39771267500009344 0.4538348803126526 0.2760136785539815
0.3979018019999785 0.45676599902296044 0.2506106497313141
0.39809144699984245 0.4557889594528579 0.22911577918905723
0.39828231499996036 0.4557889594528579 0.21934538348803123
0.39847196099981375 0.4557889594528579 0.22032242305813377
0.39866073599978336 0.457743038593063 0.22911577918905723
0.3988501220001126 0.4606741573033708 0.2437713727405959
0.3990399710000929 0.46262823644357587 0.2613580850024426
0.3992305239999041 0.4636052760136786 0.2789447972642891
0.3994200960000853 0.4636052760136786 0.3063019052271616
0.3996112780000658 0.4665363947239862 0.33170493404982904
0.39980077500013067 0.4665363947239862 0.36199316072300936
0.3999899949999417 0.4655593551538837 0.38153395212506114
0.4001791040000171 0.46458231558378116 0.39912066438690763
0.4003679709999233 0.4655593551538837 0.3981436248168051
0.40055739499985066 0.4636052760136786 0.4079140205178309
0.40074650299993664 0.46165119687347334 0.4176844162188569
0.4009350749997793 0.4606741573033708 0.42745481191988266
0.4011238130001402 0.46458231558378116 0.44211040547142155
0.4013130509997609 0.45969711773326827 0.45676599902296044
0.40150191900011123 0.4606741573033708 0.4704445530043966
0.4016906570000174 0.4655593551538837 0.4880312652662433
0.40187963600010335 0.4636052760136786 0.5046409379579873
0.4020695220001471 0.4636052760136786 0.522227650219834
0.40225950100011687 0.4636052760136786 0.5446995603321934
0.40244944300002317 0.4587200781631655 0.5622862725940401
0.4026384399999188 0.457743038593063 0.5759648265754762
0.4028272709997509 0.45481191988275516 0.5779189057156815
0.4030168419999427 0.4557889594528579 0.5779189057156815
0.403206247000071 0.4509037616023448 0.5710796287249633
0.40339568899980804 0.4528578407425501 0.5710796287249633
0.4035856299997249 0.45188080117244755 0.5701025891548608
0.4037771459998112 0.44699560332193444 0.5759648265754762
0.4039670140000453 0.4479726428920372 0.5779189057156815
0.404155807999814 0.44992672203224227 0.5818270639960919
0.4043454530001327 0.4509037616023448 0.5818270639960919
0.4045351539998592 0.45188080117244755 0.5828041035661944
0.40472437400012495 0.4528578407425501 0.5779189057156815
0.40491331600014746 0.4528578407425501 0.5701025891548608
0.4051023689999056 0.4528578407425501 0.5661944308744504
0.4052911989997483 0.44894968246213973 0.567171470444553
0.4054800119997708 0.44992672203224227 0.5798729848558866
0.40566923100004715 0.44894968246213973 0.6062530532486565
0.4058591170000909 0.44406448461162684 0.6267708842208108
0.4060486889998174 0.44211040547142155 0.6541279921836833
0.40624792700009493 0.4382022471910112 0.6775769418661455
0.40643753499989543 0.43722520762090866 0.7020029311187104
0.4066273660000661 0.43624816805080613 0.716658524670249
0.4068161599998348 0.43429408891060084 0.7381533952125061
0.40700567600015347 0.4333170493404983 0.7537860283341475
0.4071955250001338 0.4333170493404983 0.7684416218856864
0.4073852819997228 0.4352711284807034 0.7733268197361993
0.4075742229997559 0.4352711284807034 0.7703957010258915
0.40776388699987365 0.4352711284807034 0.769418661455789
0.4079524959997798 0.4401563263312165 0.7674645823155837
0.40814227100008793 0.4382022471910112 0.7684416218856864
0.4083322500000577 0.4382022471910112 0.7606253053248657
0.40852213600010145 0.4333170493404983 0.7342452369320958
0.40871144799984904 0.4352711284807034 0.6951636541279922
0.40890007500001957 0.4323400097703958 0.6384953590620419
0.4090895360000104 0.431362970200293 0.5740107474352711
0.4092785150000964 0.4323400097703958 0.5017098192476794
0.4094674009998016 0.4323400097703958 0.41670737664875435
0.4096565649997501 0.4323400097703958 0.33268197361993157
0.4098460069999419 0.43429408891060084 0.2506106497313141
0.4100357629999962 0.4352711284807034 0.1783097215437226
0.41023474199982957 0.4382022471910112 0.12066438690766979
0.4104245539997464 0.4450415241817294 0.08549096238397658
0.41061403300000165 0.4430874450415241 0.07474352711284804
0.4108033819998127 0.4430874450415241 0.09233023937469476
0.41099263900014193 0.44406448461162684 0.13727405959941374
0.4111817839998366 0.4460185637518319 0.19785051294577438
0.4113710599999649 0.4460185637518319 0.2730825598436737
0.41155988999980764 0.44699560332193444 0.34636052760136793
0.41174905399975614 0.44992672203224227 0.41670737664875435
0.41193840400001136 0.4479726428920372 0.4802149487054226
0.4121272709999175 0.44992672203224227 0.524181729360039
0.4123170090001622 0.4509037616023448 0.5554469956033219
0.4125068220000685 0.4557889594528579 0.5710796287249633
0.41269622599975264 0.4587200781631655 0.5808500244259893
0.4128854830000819 0.45969711773326827 0.5779189057156815
0.41307457299990347 0.457743038593063 0.5720566682950659
0.41326468199986266 0.4587200781631655 0.5613092330239375
0.41345395700000154 0.457743038593063 0.5456765999022961
0.41364289900002404 0.46458231558378116 0.5212506106497312
0.41383174800012057 0.46262823644357587 0.4909623839765511
0.4140206530000796 0.4636052760136786 0.457743038593063
0.4142110570001023 0.46458231558378116 0.4235466536394723
0.41440042500016716 0.4655593551538837 0.38641914997557403
0.4145899410000311 0.467513434294089 0.33463605276013686
0.41477923499996905 0.47142159257449934 0.2838299951148022
0.41496839899991755 0.47239863214460187 0.22716170004885194
0.4151573029998872 0.47239863214460187 0.16658524670249153
0.41534611599990967 0.4753297508549097 0.11187103077674654
0.41553498299981584 0.47142159257449934 0.0639960918417195
0.41572360999998637 0.4684904738641915 0.037616023448949765
0.4159127369998714 0.4655593551538837 0.03175378602833412
0.41610225299973536 0.4636052760136786 0.047386419149975545
0.41629097299983187 0.46458231558378116 0.08255984367366875
0.4164800630001082 0.46262823644357587 0.1333659013190034
0.41666996799995104 0.45676599902296044 0.18808011724474838
0.41685879799979375 0.4528578407425501 0.23888617489008301
0.4170473330000277 0.4538348803126526 0.28285295554469947
0.4172375150001244 0.4538348803126526 0.3150952613580851
0.4174260869999671 0.4557889594528579 0.32975085490962375
0.4176158619998205 0.45969711773326827 0.3336590131900341
0.4178053219998219 0.45481191988275516 0.33463605276013686
0.4179951349997282 0.4557889594528579 0.32975085490962375
0.4181850760000998 0.4557889594528579 0.32975085490962375
0.4183745179998368 0.4538348803126526 0.3385442110405472
0.4185637189998488 0.457743038593063 0.3551538837322912
0.41875299399998767 0.45481191988275516 0.37469467513434296
0.4189427510000314 0.4557889594528579 0.3913043478260869
0.41913228500015975 0.457743038593063 0.403028822667318
0.41932254199991803 0.45481191988275516 0.40889106008793363
0.41951133600014145 0.4557889594528579 0.4040058622374205
0.41970009199985725 0.4528578407425501 0.3981436248168051
0.41988895999975284 0.45188080117244755 0.3932584269662922
0.4200777910000397 0.4509037616023448 0.3952125061064973
0.4202680660000624 0.44894968246213973 0.40009770395701016
0.42045697100002144 0.4509037616023448 0.41670737664875435
0.4206464680000863 0.4557889594528579 0.43917928676111373
0.42083576200002426 0.4509037616023448 0.46262823644357587
0.4210244999999304 0.4538348803126526 0.48412310698583294
0.4212132200000269 0.45481191988275516 0.49877870053737183
0.4214028100000178 0.45676599902296044 0.5134342940889105
0.42159251099974426 0.46165119687347334 0.5192965315095261
0.4217815819997668 0.45481191988275516 0.5261358085002443
0.42197124599988456 0.457743038593063 0.5329750854909623
0.4221614469997803 0.45481191988275516 0.5446995603321934
0.4223511300001519 0.4509037616023448 0.5632633121641426
0.42254055300008986 0.4479726428920372 0.5759648265754762
0.4227299760000278 0.4479726428920372 0.5876893014167073
0.4229196769997543 0.44699560332193444 0.5945285784074255
0.42310882299989316 0.4479726428920372 0.5935515388373229
0.42329831999995804 0.4509037616023448 0.5906204201270151
0.42348787299988544 0.4479726428920372 0.5837811431362969
0.42367742599981284 0.44699560332193444 0.5661944308744504
0.42386727499979315 0.44699560332193444 0.5534929164631168
0.42405695800016474 0.4450415241817294 0.5368832437713726
0.42424723299973266 0.4479726428920372 0.5290669272105519
0.42443763799974477 0.4479726428920372 0.5271128480703469
0.42462720899993656 0.4430874450415241 0.5280898876404494
0.42481615099995906 0.4450415241817294 0.5329750854909623
0.42500526000003447 0.44211040547142155 0.5388373229115779
0.42519446100004643 0.4401563263312165 0.5466536394723986
0.4253839769999104 0.43722520762090866 0.5525158768930141
0.42557391799982724 0.4352711284807034 0.5652173913043479
0.4257632119997652 0.43624816805080613 0.5749877870053737
0.42595276500014734 0.43429408891060084 0.5896433805569126
0.42615383600013956 0.4352711284807034 0.6033219345383487
0.4263448149999931 0.4333170493404983 0.6140693698094772
0.4265342939997936 0.43624816805080613 0.6345872007816316
0.42672299500009103 0.4352711284807034 0.6375183194919394
0.4269123069998386 0.4333170493404983 0.6453346360527601
0.42710200800001985 0.43429408891060084 0.6590131900341964
0.4272911540001587 0.4323400097703958 0.6570591108939912
0.4274801510000543 0.43429408891060084 0.6580361504640937
0.4276696299998548 0.43917928676111373 0.6609672691744015
0.42785905299979277 0.43624816805080613 0.6678065461651197
0.42804805100013255 0.43429408891060084 0.6746458231558379
0.4282370850000916 0.43429408891060084 0.6834391792867611
0.4284258970001247 0.4333170493404983 0.6902784562774793
0.428615617000105 0.43624816805080613 0.6971177332681973
0.428805187999842 0.4382022471910112 0.6980947728383
0.42899442699990686 0.43917928676111373 0.6873473375671715
0.4291836649999823 0.43917928676111373 0.6560820713238886
0.4293731059997299 0.43917928676111373 0.605276013678554
0.42956217799974183 0.43917928676111373 0.5456765999022961
0.4297516940000605 0.4430874450415241 0.47435271128480694
0.429941079999935 0.4460185637518319 0.41963849535906195
0.43013041099993643 0.4450415241817294 0.38251099169516367
0.43032918600010817 0.44992672203224227 0.35710796287249624
0.43051810899987686 0.4509037616023448 0.3404982901807523
0.43070714399982535 0.4509037616023448 0.33170493404982904
0.4309021220001341 0.45188080117244755 0.3356130923302394
0.4310916569997971 0.44992672203224227 0.35417684416218864
0.4312807840001369 0.45188080117244755 0.37274059599413767
0.4314701509997576 0.44992672203224227 0.3834880312652662
0.43165911200003393 0.4538348803126526 0.3854421104054715
0.43185009099988747 0.44894968246213973 0.3688324377137273
0.4320399580001322 0.44992672203224227 0.33756717147044446
0.43222919699974227 0.4538348803126526 0.2955544699560333
0.4324183610001455 0.4587200781631655 0.24865657059110902
0.4326069319999988 0.45969711773326827 0.21446018563751834
0.4327960410000742 0.46165119687347334 0.1890571568148509
0.43298524200008615 0.46262823644357587 0.18026380068392767
0.43317383199973847 0.46262823644357587 0.18514899853444056
0.4333625139997821 0.4636052760136786 0.19882755251587692
0.4335521970001537 0.46262823644357587 0.21934538348803123
0.4337408979999964 0.46165119687347334 0.2457254518808012
0.43393109899989213 0.46165119687347334 0.27699071812408405
0.43412018900016847 0.45969711773326827 0.3150952613580851
0.43431781599974784 0.45676599902296044 0.35417684416218864
0.4345068689999607 0.457743038593063 0.38935026868588185
0.4346958480000467 0.4557889594528579 0.4079140205178309
0.4348851229997308 0.45969711773326827 0.4176844162188569
0.43507450900006006 0.4557889594528579 0.4235466536394723
0.43526337699995565 0.4509037616023448 0.4264777723497801
0.43545226300011564 0.45188080117244755 0.4264777723497801
0.43564140899979975 0.4538348803126526 0.4176844162188569
0.43583036900008665 0.4528578407425501 0.4108451392281387
0.4360192179997284 0.4557889594528579 0.4059599413776258
0.4362086599999202 0.4587200781631655 0.403028822667318
0.43639780500006964 0.4606741573033708 0.40986809965803617
0.43658628399998634 0.46165119687347334 0.4264777723497801
0.4367756520000512 0.4655593551538837 0.4450415241817294
0.4369647610001266 0.4665363947239862 0.46946751343429405
0.437154757999906 0.467513434294089 0.486077186126038
0.4373438479997276 0.4665363947239862 0.495847581827064
0.43753340100010973 0.4684904738641915 0.49193942354665365
0.4377237690000584 0.47142159257449934 0.4831460674157304
0.4379138399999647 0.46946751343429405 0.4802149487054226
0.4381033189997652 0.4704445530043966 0.48216902784562765
0.4382940939999571 0.47239863214460187 0.4948705422569615
0.43848377699987395 0.4753297508549097 0.5085490962383976
0.4386729960001503 0.4753297508549097 0.5173424523693209
0.43886288199973933 0.4782608695652173 0.5232046897899365
0.4390526019997196 0.4802149487054226 0.5144113336590133
0.43924252499982686 0.47728382999511476 0.5036638983878847
0.4394323559999975 0.47435271128480694 0.4782608695652173
0.43962311299992507 0.4733756717147044 0.4606741573033708
0.43981305399984194 0.4684904738641915 0.43624816805080613
0.4400021440001183 0.46458231558378116 0.40009770395701016
0.44019295699990835 0.4606741573033708 0.3551538837322912
0.4403822869999203 0.4587200781631655 0.3014167073766487
0.4405711919998794 0.4538348803126526 0.24181729360039084
0.4407603559998279 0.4509037616023448 0.18221787982413296
0.44094922399972347 0.4509037616023448 0.14509037616023446
0.44113835100006327 0.4509037616023448 0.1362970200293112
0.4413276999998743 0.44992672203224227 0.15779189057156806
0.4415179379998335 0.44992672203224227 0.2232535417684416
0.4417079909999302 0.4509037616023448 0.33170493404982904
0.4418975630001114 0.4509037616023448 0.44992672203224227
0.44208696699979555 0.45188080117244755 0.5710796287249633
0.44227746499973364 0.44992672203224227 0.6736687835857351
0.4424677580000207 0.44992672203224227 0.759648265754763
0.44265744099993753 0.44699560332193444 0.8153395212506107
0.44284660499988604 0.44406448461162684 0.8573522227650219
0.443035583999972 0.4450415241817294 0.8768930141670737
0.4432248959997196 0.4450415241817294 0.8729848558866633
0.44341389300006995 0.4450415241817294 0.8563751831949193
0.4436027430001559 0.44211040547142155 0.824132877381534
0.44379177700011496 0.441133365901319 0.7987298485588665
0.4439805150000211 0.4382022471910112 0.771372740595994
0.44417097599989575 0.43722520762090866 0.7459697117733268
0.4443605100000241 0.43624816805080613 0.704934049829018
0.4445492849999937 0.431362970200293 0.6492427943331704
0.4447381159998258 0.4303859306301905 0.5730337078651686
0.44492703900004926 0.42940889106008795 0.4753297508549097
0.4451159249997545 0.4303859306301905 0.3737176355642404
0.44530444099973465 0.43429408891060084 0.2760136785539815
0.44549356800007445 0.431362970200293 0.2037127503663898
0.4456821769999806 0.4323400097703958 0.15974596971177335
0.44587082199996075 0.4333170493404983 0.15192965315095264
0.4460596529997929 0.4352711284807034 0.15681485100146553
0.44625000199994247 0.431362970200293 0.1783097215437226
0.4464396289999968 0.4303859306301905 0.20664386907669763
0.4466283490000933 0.4352711284807034 0.24767953102100626
0.44681816100001015 0.4323400097703958 0.28187591597459694
0.44700708399977884 0.4264777723497801 0.30727894479726436
0.4471957669998119 0.4264777723497801 0.31998045920859797
0.4473851719999402 0.4264777723497801 0.32193453834880303
0.447575501999836 0.42940889106008795 0.3307278944797265
0.44776555499993265 0.4284318514899854 0.3512457254518808
0.4479554599997755 0.4303859306301905 0.38935026868588185
0.4481446429999778 0.42940889106008795 0.44699560332193444
0.44833406599991577 0.4284318514899854 0.5017098192476794
0.4485234339999806 0.42745481191988266 0.5554469956033219
0.44871374600006675 0.4303859306301905 0.6023448949682462
0.4489033360000576 0.4323400097703958 0.6306790425012212
0.4490929439998581 0.43429408891060084 0.659990229604299
0.4492819789998066 0.4352711284807034 0.6687835857352222
0.4494711610000195 0.44211040547142155 0.6834391792867611
0.4496600849997776 0.4460185637518319 0.6873473375671715
0.4498494889999165 0.4479726428920372 0.6932095749877869
0.4500390610000977 0.44894968246213973 0.6912554958475818
0.45023759500008964 0.44894968246213973 0.6873473375671715
0.4504270739998901 0.45188080117244755 0.6756228627259404
0.4506166450000819 0.4479726428920372 0.6629213483146068
0.4508051239999986 0.4479726428920372 0.6443575964826576
