0 0.4460185637518319 0.3952125061064973
0.0006313799999588809 0.4509037616023448 0.3913043478260869
0.001509442000042327 0.45188080117244755 0.3707865168539326
0.0018030860001090332 0.45481191988275516 0.36980947728383007
0.002358689000175218 0.46165119687347334 0.37469467513434296
0.0026128150002477923 0.46458231558378116 0.3776257938446508
0.002820423000230221 0.46458231558378116 0.37274059599413767
0.003016698000010365 0.4665363947239862 0.3688324377137273
0.003211233000001812 0.467513434294089 0.3639472398632144
0.003407451999919431 0.4655593551538837 0.36687835857352225
0.00360137500001656 0.467513434294089 0.3678553981436248
0.0037933359999442473 0.4636052760136786 0.3737176355642404
0.00398557400012578 0.4636052760136786 0.37274059599413767
0.0041790710001805564 0.4655593551538837 0.3688324377137273
0.0043733460001931235 0.46458231558378116 0.36687835857352225
0.004566343000078632 0.4665363947239862 0.35710796287249624
0.004759118000038143 0.47239863214460187 0.3453834880312652
0.0049967260001722025 0.47239863214460187 0.3307278944797265
0.005195557000206463 0.47923790913532005 0.3180263800683927
0.005392571999891516 0.4763067904250122 0.30727894479726436
0.0055882179999571235 0.47239863214460187 0.29946262823644365
0.005780382000011741 0.4704445530043966 0.29750854909623836
0.00597371200001362 0.47142159257449934 0.2984855886663409
0.006167523999920377 0.46946751343429405 0.303370786516854
0.006359670000165352 0.4684904738641915 0.3141182217879823
0.00656114899993554 0.46458231558378116 0.3258426966292134
0.00675925699988511 0.46458231558378116 0.3404982901807523
0.00697706900018602 0.4665363947239862 0.3551538837322912
0.007198658000106661 0.467513434294089 0.35906204201270153
0.007419285000196396 0.4733756717147044 0.36492427943331696
0.007988127999851713 0.4733756717147044 0.44699560332193444
0.009582513000168547 0.45676599902296044 0.5017098192476794
0.010306855000180803 0.45676599902296044 0.5046409379579873
0.01064588700000968 0.45969711773326827 0.5007327796775769
0.010901087000092957 0.4587200781631655 0.5007327796775769
0.01114471400023831 0.4587200781631655 0.49975574010747437
0.01136293299987301 0.4557889594528579 0.5095261358085001
0.011584263000258943 0.44992672203224227 0.524181729360039
0.011802944999999454 0.4460185637518319 0.5359062042012701
0.012013516000024538 0.44406448461162684 0.5486077186126037
0.012235217000124976 0.44211040547142155 0.5554469956033219
0.012525323999852844 0.43722520762090866 0.5642403517342451
0.012894504000087181 0.43624816805080613 0.5603321934538348
0.013183054999899468 0.43722520762090866 0.5476306790425012
0.013492199000211258 0.431362970200293 0.5359062042012701
0.013770880000265606 0.431362970200293 0.5232046897899365
0.01399030299990045 0.43429408891060084 0.5251587689301416
0.014192151999850466 0.441133365901319 0.5319980459208598
0.014444112000091991 0.4323400097703958 0.5368832437713726
0.014716552000209049 0.4303859306301905 0.5437225207620908
0.01493821600024603 0.431362970200293 0.5525158768930141
0.01514808299998549 0.431362970200293 0.5574010747435272
0.015352284000073269 0.4284318514899854 0.5564240351734244
0.015555540000150359 0.42745481191988266 0.5554469956033219
0.015757852000206185 0.431362970200293 0.5515388373229115
0.015958924000187835 0.4264777723497801 0.5495847581827065
0.01616371699992669 0.4255007327796776 0.5446995603321934
0.016369548000056966 0.4255007327796776 0.5398143624816805
0.01657182200005991 0.42745481191988266 0.5349291646311676
0.016769709000072908 0.42745481191988266 0.5359062042012701
0.01700274199993146 0.4255007327796776 0.533952125061065
0.017201701999965735 0.42452369320957506 0.5329750854909623
0.01740771799995855 0.4255007327796776 0.533952125061065
0.0176048449998234 0.4264777723497801 0.5319980459208598
0.017802027000016096 0.4264777723497801 0.5251587689301416
0.018009468999935052 0.42940889106008795 0.5075720566682951
0.018523924999954033 0.4323400097703958 0.49193942354665365
0.01893995599994014 0.4352711284807034 0.4655593551538837
0.019181322999884287 0.4460185637518319 0.45676599902296044
0.01939250500026901 0.44406448461162684 0.441133365901319
0.01959937199990236 0.4430874450415241 0.42745481191988266
0.01980670300008569 0.441133365901319 0.4206155349291647
0.02001751499983584 0.4450415241817294 0.41182217879824123
0.020225253000262455 0.44406448461162684 0.40986809965803617
0.02043486100001246 0.44699560332193444 0.4108451392281387
0.02064371000005849 0.44406448461162684 0.40986809965803617
0.020879521000097157 0.44211040547142155 0.4079140205178309
0.021096776999911526 0.44699560332193444 0.40693698094772834
0.02132031100018139 0.4509037616023448 0.40009770395701016
0.021545881999827543 0.4538348803126526 0.3903273082559844
0.021755193999979383 0.45676599902296044 0.38153395212506114
0.02196150600002511 0.45676599902296044 0.3805569125549584
0.022167409999838128 0.4636052760136786 0.38251099169516367
0.022374703999958 0.4655593551538837 0.38153395212506114
0.022576163999929122 0.46946751343429405 0.3834880312652662
0.022776772000270284 0.46946751343429405 0.3854421104054715
0.02297751000014614 0.4684904738641915 0.38446507083536874
0.02317698900014875 0.46946751343429405 0.38739618954567656
0.02342033700006141 0.4763067904250122 0.38251099169516367
0.023627594000117824 0.46946751343429405 0.38153395212506114
0.02382760899990899 0.46946751343429405 0.37176355642403514
0.024032347000229493 0.46946751343429405 0.3659013190034197
0.024233658999946783 0.47239863214460187 0.3551538837322912
0.02443628599985459 0.46946751343429405 0.34733756717147046
0.02464137600009053 0.4733756717147044 0.3424523693209576
0.024880427999960375 0.4753297508549097 0.33756717147044446
0.02509294299989051 0.4753297508549097 0.3356130923302394
0.025295144000210712 0.4802149487054226 0.3336590131900341
0.02549543800023457 0.47923790913532005 0.3365901319003419
0.02570097199986776 0.4811919882755251 0.33756717147044446
0.025922986999830755 0.47923790913532005 0.3404982901807523
0.026167223999891576 0.4782608695652173 0.3424523693209576
0.026367444000243268 0.4831460674157304 0.34440644846116264
0.026558996999938245 0.4753297508549097 0.3512457254518808
0.026751568000236148 0.47728382999511476 0.3531998045920859
0.026943269000184955 0.47239863214460187 0.3561309233023937
0.027134378000027937 0.4733756717147044 0.3551538837322912
0.027324986000166973 0.467513434294089 0.35906204201270153
0.027517612999872654 0.47142159257449934 0.3531998045920859
0.027713851000044087 0.4733756717147044 0.35417684416218864
0.027910884999982954 0.47142159257449934 0.3561309233023937
0.028104290000101173 0.46946751343429405 0.35710796287249624
0.028300138999838964 0.46946751343429405 0.36003908158280407
0.028504025000074762 0.467513434294089 0.3707865168539326
0.028709263000109786 0.467513434294089 0.38446507083536874
0.028908852999848023 0.46262823644357587 0.4079140205178309
0.029108442000051582 0.45969711773326827 0.4264777723497801
0.029313847000139504 0.46165119687347334 0.45481191988275516
0.029518955000185088 0.46165119687347334 0.4684904738641915
0.02975354399995922 0.45969711773326827 0.5007327796775769
0.03062943900022219 0.45676599902296044 0.5017098192476794
0.03091126900017116 0.45481191988275516 0.5114802149487054
0.03132480000022042 0.4509037616023448 0.5456765999022961
0.03190549600003578 0.4430874450415241 0.5574010747435272
0.03222260200027449 0.43917928676111373 0.5661944308744504
0.03255598600026133 0.44211040547142155 0.5720566682950659
0.032786261000183003 0.43917928676111373 0.5740107474352711
0.03302464599983068 0.43624816805080613 0.5847581827063997
0.033249957999942126 0.4333170493404983 0.567171470444553
0.034507885000039096 0.42256961406936977 0.5593551538837322
0.0355878139998822 0.4303859306301905 0.5495847581827065
0.036181639000005816 0.4264777723497801 0.5173424523693209
0.037241734999952314 0.4303859306301905 0.5105031753786029
0.03757547099985459 0.42940889106008795 0.5212506106497312
0.037948003000110475 0.4284318514899854 0.540791402051783
0.038192869999875256 0.42745481191988266 0.5437225207620908
0.038399051999931544 0.431362970200293 0.5388373229115779
0.03879941700006384 0.43722520762090866 0.522227650219834
0.039251651000085985 0.44406448461162684 0.5095261358085001
0.03946131500015326 0.4460185637518319 0.5017098192476794
0.039651461000175914 0.4450415241817294 0.4938935026868587
0.03984062500012442 0.4460185637518319 0.48705422569614076
0.040029529000094044 0.44211040547142155 0.4831460674157304
0.04021754499990493 0.4382022471910112 0.47728382999511476
0.04040641300025527 0.4352711284807034 0.47728382999511476
0.04059578099986538 0.4333170493404983 0.4665363947239862
0.0407897220002269 0.4323400097703958 0.4587200781631655
0.04107084799989025 0.4323400097703958 0.45188080117244755
0.04127288200015755 0.4333170493404983 0.4401563263312165
0.041477342000234785 0.43722520762090866 0.42452369320957506
0.04166771000018343 0.4430874450415241 0.40986809965803617
0.0418634480001856 0.44992672203224227 0.3913043478260869
0.04209842599993863 0.45481191988275516 0.38251099169516367
0.042307312000048114 0.46262823644357587 0.29653150952613583
0.04315885599999092 0.4606741573033708 0.2584269662921348
0.043415833999915776 0.4636052760136786 0.22129946262823652
0.04392071500024031 0.46262823644357587 0.18514899853444056
0.04414145300006567 0.46946751343429405 0.19785051294577438
0.044977348999964306 0.4763067904250122 0.29164631167562294
0.04522349299986672 0.4782608695652173 0.3111871030776747
0.04542384200021843 0.4802149487054226 0.32975085490962375
0.045621191000009276 0.4782608695652173 0.3414753297508548
0.04581963300006464 0.4802149487054226 0.35222276502198335
0.046013890000267565 0.4802149487054226 0.35906204201270153
0.046210554000026605 0.4831460674157304 0.3629702002931119
0.04640606900011335 0.48705422569614076 0.36687835857352225
0.04659962200003065 0.4811919882755251 0.37274059599413767
0.046799638000265986 0.4831460674157304 0.3786028334147533
0.04699270899982366 0.4851001465559355 0.37957987298485585
0.0471860210000159 0.4880312652662433 0.3854421104054715
0.04737892599996485 0.48412310698583294 0.38739618954567656
0.047574034000263055 0.4851001465559355 0.3913043478260869
0.04776851299993723 0.48216902784562765 0.39716658524670256
0.04797189900000376 0.4851001465559355 0.40986809965803617
0.048164414999973815 0.48705422569614076 0.4235466536394723
0.04835909700022967 0.4851001465559355 0.43722520762090866
0.04855146499994589 0.48216902784562765 0.45188080117244755
0.0487924250001015 0.4831460674157304 0.4665363947239862
0.04899556999998822 0.4753297508549097 0.47728382999511476
0.049199529999896185 0.47239863214460187 0.48705422569614076
0.04939282399982403 0.46946751343429405 0.4938935026868587
0.04959546899999623 0.46458231558378116 0.49877870053737183
0.04979509600025267 0.46262823644357587 0.49877870053737183
0.04999140800009627 0.46165119687347334 0.48998534440644836
0.050183238000045094 0.45969711773326827 0.4811919882755251
0.05037423600015245 0.457743038593063 0.4684904738641915
0.05056393699987893 0.4557889594528579 0.4538348803126526
0.05075406400010252 0.4509037616023448 0.4333170493404983
0.050943654000093375 0.44992672203224227 0.41963849535906195
0.05113346600001023 0.44894968246213973 0.4206155349291647
0.05132270400008565 0.43722520762090866 0.4206155349291647
0.05151147900005526 0.4333170493404983 0.4284318514899854
0.05170001299984506 0.431362970200293 0.4401563263312165
0.051889103000121395 0.4284318514899854 0.45481191988275516
0.052077544999974634 0.4303859306301905 0.47142159257449934
0.05226978300015617 0.4333170493404983 0.48900830483634583
0.0530620499998804 0.42745481191988266 0.5456765999022961
0.05352241399987179 0.4333170493404983 0.550561797752809
0.053740966000077606 0.431362970200293 0.5554469956033219
0.05394574100000682 0.4333170493404983 0.5593551538837322
0.05436227200016219 0.4303859306301905 0.5691255495847583
0.05456408400004875 0.431362970200293 0.5798729848558866
0.054753618000177084 0.43429408891060084 0.5896433805569126
0.054941875000167784 0.42745481191988266 0.6003908158280411
0.05513016900022194 0.4264777723497801 0.6033219345383487
0.05531922199998007 0.4264777723497801 0.6062530532486565
0.055508756000108406 0.42940889106008795 0.6062530532486565
0.05569643900025767 0.42745481191988266 0.6003908158280411
0.05588399099997332 0.42745481191988266 0.5964826575476307
0.05607313700011218 0.4255007327796776 0.5857352222765022
0.05626150499983851 0.4235466536394723 0.578895945285784
0.056448983999871416 0.42256961406936977 0.567171470444553
0.05663625900024272 0.42452369320957506 0.5642403517342451
0.05841560399994705 0.43429408891060084 0.5095261358085001
0.05871354400005657 0.44406448461162684 0.4948705422569615
0.05890637499987861 0.4460185637518319 0.4851001465559355
0.05909524300022895 0.4430874450415241 0.4684904738641915
0.05928325800005041 0.4479726428920372 0.4557889594528579
0.05949910700019245 0.4450415241817294 0.4509037616023448
0.059693029999834835 0.44699560332193444 0.44406448461162684
0.059886990999984846 0.44699560332193444 0.4401563263312165
0.060081783999976324 0.4450415241817294 0.4352711284807034
0.060286132999863185 0.4430874450415241 0.43429408891060084
0.0605033340002592 0.4401563263312165 0.4333170493404983
0.06070508999982849 0.4401563263312165 0.4333170493404983
0.0609197540002242 0.44211040547142155 0.42745481191988266
0.06116806499994709 0.44406448461162684 0.412799218368344
0.06154091200005496 0.44894968246213973 0.39912066438690763
0.06175090900023861 0.457743038593063 0.38739618954567656
0.06195320200004062 0.45969711773326827 0.3805569125549584
0.06214166300014767 0.4606741573033708 0.3737176355642404
0.062328696999884414 0.467513434294089 0.36980947728383007
0.06251693500007605 0.46165119687347334 0.36199316072300936
0.06270980299996154 0.4655593551538837 0.35906204201270153
0.06289820800020607 0.4704445530043966 0.35417684416218864
0.06308524199994281 0.46458231558378116 0.35710796287249624
0.0632724249999228 0.4665363947239862 0.36003908158280407
0.06346303300006184 0.4665363947239862 0.3561309233023937
0.06364977100020042 0.46458231558378116 0.3561309233023937
0.06383673100026499 0.4684904738641915 0.35222276502198335
0.06402345100013918 0.467513434294089 0.35222276502198335
0.06421107799997117 0.4733756717147044 0.34929164631167553
0.06439853800020501 0.4753297508549097 0.3502686858817783
0.0645861100001639 0.4753297508549097 0.348314606741573
0.06477297699984774 0.4753297508549097 0.34440644846116264
0.06526282200002242 0.4811919882755251 0.34929164631167553
0.0654662830002053 0.4831460674157304 0.34636052760136793
0.06565600200019617 0.4782608695652173 0.34733756717147046
0.06584349900003872 0.47435271128480694 0.3551538837322912
0.06603079300020909 0.4763067904250122 0.35710796287249624
0.06621697599985055 0.4733756717147044 0.36492427943331696
0.0664048990001902 0.4753297508549097 0.3737176355642404
0.06659293300026548 0.4753297508549097 0.376648754274548
0.06677980099993874 0.47239863214460187 0.38251099169516367
0.06696742800022548 0.4753297508549097 0.3932584269662922
0.06715474000020549 0.47923790913532005 0.3932584269662922
0.06734188600012203 0.47728382999511476 0.3981436248168051
0.06752893900011259 0.47435271128480694 0.40205178309721545
0.06771575099992333 0.4753297508549097 0.4206155349291647
0.06821079900009863 0.4684904738641915 0.4284318514899854
0.06945496700018339 0.45481191988275516 0.45969711773326827
0.07054178499993213 0.45676599902296044 0.4401563263312165
0.07084774399982052 0.457743038593063 0.43429408891060084
0.07115877700016426 0.4538348803126526 0.44699560332193444
0.07140397700004542 0.44894968246213973 0.46262823644357587
0.07161556600021868 0.4479726428920372 0.47923790913532005
0.07187091500009046 0.4430874450415241 0.48900830483634583
0.07209430000011707 0.4430874450415241 0.495847581827064
0.07230996399994183 0.44211040547142155 0.5026868588177822
0.07250990600005025 0.43917928676111373 0.5105031753786029
0.07270221799990395 0.4382022471910112 0.5144113336590133
0.07293260300002657 0.4352711284807034 0.5251587689301416
0.07312904499985962 0.43624816805080613 0.5290669272105519
0.07331632000023092 0.43429408891060084 0.533952125061065
0.07350311400023202 0.4333170493404983 0.5378602833414754
0.07369161099995836 0.4333170493404983 0.5359062042012701
0.07387807199984309 0.43624816805080613 0.540791402051783
0.07406464299992876 0.4333170493404983 0.5437225207620908
0.07425082600002497 0.4333170493404983 0.5456765999022961
0.0744384340000579 0.4333170493404983 0.5476306790425012
0.0746272090000275 0.43624816805080613 0.5515388373229115
0.0748142249999546 0.4323400097703958 0.5544699560332194
0.07500083400009316 0.431362970200293 0.5593551538837322
0.07518792400014718 0.4284318514899854 0.5613092330239375
0.0753746800000954 0.4284318514899854 0.5574010747435272
0.07556121500010704 0.4303859306301905 0.5613092330239375
0.07574784200005524 0.42940889106008795 0.5642403517342451
0.07593493200010926 0.4303859306301905 0.5632633121641426
0.07612081800016313 0.43624816805080613 0.5661944308744504
0.07630663000009008 0.42940889106008795 0.5652173913043479
0.07649275699986902 0.431362970200293 0.5661944308744504
0.0767285870001615 0.4303859306301905 0.5613092330239375
0.07691760299985617 0.42940889106008795 0.5534929164631168
0.07711689600000682 0.4284318514899854 0.5515388373229115
0.07730939400016723 0.4255007327796776 0.550561797752809
0.07749507600010475 0.42452369320957506 0.5476306790425012
0.07768070300016916 0.42745481191988266 0.5417684416218858
0.07786633000023357 0.42452369320957506 0.533952125061065
0.07805197600009706 0.4284318514899854 0.524181729360039
0.07823745499990764 0.4284318514899854 0.5144113336590133
0.07842300799984514 0.4323400097703958 0.5056179775280898
0.07860865300017394 0.4323400097703958 0.48998534440644836
0.07879363200027001 0.4333170493404983 0.4763067904250122
0.07898007399990092 0.44699560332193444 0.4684904738641915
0.0791659050000817 0.43917928676111373 0.4606741573033708
0.07935151299989229 0.44406448461162684 0.45188080117244755
0.07954730700021173 0.44406448461162684 0.441133365901319
0.07973360000005414 0.4460185637518319 0.44406448461162684
0.07991859799994927 0.4430874450415241 0.4352711284807034
0.08010794700021506 0.44699560332193444 0.4323400097703958
0.08029362900015258 0.44699560332193444 0.4303859306301905
0.08063343899993924 0.44992672203224227 0.4264777723497801
0.08091323200005718 0.44699560332193444 0.4235466536394723
0.08110548800004835 0.4479726428920372 0.41475329750854906
0.08129344899998614 0.4509037616023448 0.4108451392281387
0.08148024199999782 0.4538348803126526 0.3952125061064973
0.08166642500009402 0.457743038593063 0.38446507083536874
0.08185440399984145 0.45969711773326827 0.376648754274548
0.08205245699991792 0.45969711773326827 0.3688324377137273
0.08226208299993232 0.46165119687347334 0.3688324377137273
0.0824722100001054 0.46262823644357587 0.3639472398632144
0.08267526300005557 0.4606741573033708 0.358085002442599
0.08288214899994273 0.46165119687347334 0.3551538837322912
0.08308471999998801 0.4636052760136786 0.35710796287249624
0.0832726060002642 0.46165119687347334 0.35906204201270153
0.0834589370001595 0.4606741573033708 0.3610161211529066
0.08364513800006534 0.46262823644357587 0.3659013190034197
0.08383206100006646 0.4684904738641915 0.36003908158280407
0.08401855800002522 0.467513434294089 0.35417684416218864
0.08420413000021654 0.46458231558378116 0.3561309233023937
0.0843897750000906 0.4704445530043966 0.3512457254518808
0.08457629099984842 0.46946751343429405 0.35417684416218864
0.08476262200019846 0.4763067904250122 0.3434294088910601
0.08497476699994877 0.47435271128480694 0.3414753297508548
0.0851833940000688 0.4753297508549097 0.3414753297508548
0.08540274300003148 0.4782608695652173 0.33756717147044446
0.08566544299992529 0.47728382999511476 0.3385442110405472
0.08585473599987381 0.4802149487054226 0.3404982901807523
0.0860406229999171 0.47923790913532005 0.34440644846116264
0.08622821300014039 0.4811919882755251 0.34440644846116264
0.08641424699999334 0.4763067904250122 0.34733756717147046
0.08659989299985682 0.48216902784562765 0.36003908158280407
0.08678592700016452 0.4782608695652173 0.36003908158280407
0.08698246099993412 0.4763067904250122 0.3678553981436248
0.08718369899997924 0.4753297508549097 0.3737176355642404
0.08737515900020298 0.4763067904250122 0.3737176355642404
0.08756778599990866 0.47435271128480694 0.38153395212506114
0.08777243199983786 0.47923790913532005 0.3805569125549584
0.08796813300023132 0.47728382999511476 0.3913043478260869
0.08818683300023622 0.47435271128480694 0.4049829018075233
0.0890683950001403 0.46458231558378116 0.4655593551538837
0.08970797800020591 0.45969711773326827 0.4782608695652173
0.09043170899985853 0.4606741573033708 0.4831460674157304
0.09083131399984268 0.45481191988275516 0.4831460674157304
0.09104607100016437 0.46262823644357587 0.4811919882755251
0.09124751199988168 0.45676599902296044 0.48900830483634583
0.09144539799990525 0.45188080117244755 0.5007327796775769
0.09164722900004563 0.4460185637518319 0.5085490962383976
0.09186259599982805 0.4450415241817294 0.5183194919394236
0.09208409300026688 0.4460185637518319 0.5261358085002443
0.09231066400025156 0.441133365901319 0.540791402051783
0.09254167900007815 0.44406448461162684 0.540791402051783
0.09276204700017843 0.4460185637518319 0.5495847581827065
0.09305585699985386 0.43917928676111373 0.5515388373229115
0.09324792899997192 0.43917928676111373 0.5515388373229115
0.09343616700016355 0.43624816805080613 0.5525158768930141
0.0936225899999954 0.4382022471910112 0.5515388373229115
0.09380953200025033 0.4401563263312165 0.5554469956033219
0.09399554799983889 0.4333170493404983 0.5613092330239375
0.09418261900009384 0.4323400097703958 0.5681485100146555
0.09436894999998913 0.43429408891060084 0.576941866145579
0.09455752099984238 0.4284318514899854 0.5867122618466047
0.09474450000016077 0.4264777723497801 0.5945285784074255
0.0949299419999079 0.4264777723497801 0.6023448949682462
0.09511529100018379 0.42256961406936977 0.6101612115290669
0.09530186300025889 0.4255007327796776 0.6140693698094772
0.09551210000017818 0.42452369320957506 0.6160234489496825
0.09570302400015862 0.4264777723497801 0.6130923302393747
0.09588983599996936 0.4235466536394723 0.6111382510991694
0.0960760000002665 0.4235466536394723 0.6082071323888618
0.09626133099982326 0.4264777723497801 0.6082071323888618
0.0964468840002155 0.4235466536394723 0.6072300928187591
0.09663210300004721 0.4264777723497801 0.6003908158280411
0.09681780400023854 0.4303859306301905 0.6013678553981436
0.09700641300014468 0.4284318514899854 0.595505617977528
0.09720879899987267 0.4264777723497801 0.5915974596971176
0.09739625900010651 0.4264777723497801 0.5876893014167073
0.09758162700018147 0.42745481191988266 0.5759648265754762
0.09776723499999207 0.4264777723497801 0.5622862725940401
0.09795241800020449 0.42940889106008795 0.5495847581827065
0.09813734099998328 0.4333170493404983 0.524181729360039
0.09832407900012186 0.431362970200293 0.49682462139716654
0.09851002100003825 0.4323400097703958 0.4665363947239862
0.09869696299983843 0.431362970200293 0.44211040547142155
0.09888222000017777 0.44211040547142155 0.41475329750854906
0.09906931000023178 0.441133365901319 0.38935026868588185
0.09926010300023336 0.44211040547142155 0.376648754274548
0.09944652700005463 0.441133365901319 0.37274059599413767
0.09963193100020362 0.44699560332193444 0.36687835857352225
0.09981744700007766 0.4450415241817294 0.3629702002931119
0.10000305599987769 0.4479726428920372 0.36687835857352225
0.10019562700017559 0.45188080117244755 0.35710796287249624
0.10038214299993342 0.44894968246213973 0.3531998045920859
0.100568659000146 0.44992672203224227 0.34636052760136793
0.10075454500019987 0.4479726428920372 0.33952125061064975
0.10096435700006623 0.4538348803126526 0.33268197361993157
0.10115046600003552 0.44894968246213973 0.32193453834880303
0.10133631500002593 0.4528578407425501 0.3131411822178798
0.10152231200027018 0.45676599902296044 0.30434782608695654
0.10171558699994421 0.4606741573033708 0.2984855886663409
0.1019100100002106 0.46262823644357587 0.293600390815828
0.10209717399993679 0.4636052760136786 0.2877381533952126
0.10228391300006479 0.4655593551538837 0.2681973619931608
0.10283651600002486 0.4655593551538837 0.26722032242305804
0.10305091999998695 0.4665363947239862 0.27503663898387876
0.10341728599996713 0.4684904738641915 0.29946262823644365
0.1036206530002346 0.4733756717147044 0.3180263800683927
0.10380755799997132 0.467513434294089 0.3307278944797265
0.10399348100008865 0.467513434294089 0.34440644846116264
0.10418257099991024 0.46946751343429405 0.35417684416218864
0.10436784600005922 0.4704445530043966 0.36492427943331696
0.10455402900015542 0.47239863214460187 0.37176355642403514
0.10474041499992381 0.4782608695652173 0.3776257938446508
0.10497270799987746 0.4763067904250122 0.37469467513434296
0.1051637240002492 0.4802149487054226 0.3756717147044455
0.10535025800027142 0.4802149487054226 0.376648754274548
0.10553532999983872 0.47923790913532005 0.3756717147044455
0.10572154900000896 0.47728382999511476 0.3776257938446508
0.1059065469999041 0.47728382999511476 0.38153395212506114
0.1060914889999367 0.47923790913532005 0.38446507083536874
0.1062766710001597 0.4753297508549097 0.3903273082559844
0.1064672430002247 0.47435271128480694 0.39912066438690763
0.10665366600005655 0.4763067904250122 0.4049829018075233
0.10683944099992004 0.4704445530043966 0.412799218368344
0.10706140100000994 0.4733756717147044 0.4137762579384465
0.10727195300023595 0.47728382999511476 0.40986809965803617
0.10747191400014344 0.4753297508549097 0.4059599413776258
0.10767342899998766 0.4802149487054226 0.40889106008793363
0.10786877800001093 0.4753297508549097 0.412799218368344
0.10806710899987593 0.47239863214460187 0.4264777723497801
0.10825490300021556 0.4704445530043966 0.4382022471910112
0.10844343700000536 0.47142159257449934 0.44894968246213973
0.10862965700016503 0.467513434294089 0.467513434294089
0.1088173020002614 0.46262823644357587 0.48216902784562765
0.10900811400006205 0.4655593551538837 0.495847581827064
0.10920607400021254 0.46262823644357587 0.5056179775280898
0.10939275700002327 0.4587200781631655 0.5114802149487054
0.10958214299989777 0.4587200781631655 0.512457254518808
0.1097672330001842 0.45676599902296044 0.5085490962383976
0.10995367500026987 0.457743038593063 0.5026868588177822
0.11014120900017588 0.457743038593063 0.4909623839765511
0.110326428999997 0.4587200781631655 0.48216902784562765
0.11051122300023053 0.4557889594528579 0.47239863214460187
0.11069675699991421 0.457743038593063 0.46946751343429405
0.11088238399997863 0.4557889594528579 0.46458231558378116
0.11106939999990573 0.4538348803126526 0.467513434294089
0.11125571200000195 0.4557889594528579 0.47923790913532005
0.11144348700008777 0.4479726428920372 0.48705422569614076
0.11162989200010998 0.4450415241817294 0.49682462139716654
0.11181583400002637 0.44211040547142155 0.5007327796775769
0.1120021279998582 0.4460185637518319 0.5046409379579873
0.11218966200021896 0.441133365901319 0.5046409379579873
0.1123745479999343 0.4401563263312165 0.5075720566682951
0.11256819400023232 0.4430874450415241 0.5075720566682951
0.11275995000005423 0.43624816805080613 0.5056179775280898
0.1129737619999105 0.4352711284807034 0.5026868588177822
0.11316031500018653 0.43722520762090866 0.49682462139716654
0.11334584999985964 0.43722520762090866 0.4938935026868587
0.11353123600019899 0.43624816805080613 0.49193942354665365
0.11371660400027395 0.43429408891060084 0.49682462139716654
0.11390424899991558 0.4333170493404983 0.5056179775280898
0.11409300600007555 0.4323400097703958 0.5153883732291158
0.11427896600025633 0.4323400097703958 0.5251587689301416
0.11446453700000347 0.4303859306301905 0.5388373229115779
0.11465034999991985 0.4303859306301905 0.5525158768930141
0.11483716200018534 0.4303859306301905 0.5603321934538348
0.11502536299985877 0.4284318514899854 0.5710796287249633
0.11521300799995515 0.42745481191988266 0.5749877870053737
0.11539983900001971 0.4284318514899854 0.5749877870053737
0.11558766999996806 0.4284318514899854 0.576941866145579
0.11577544500005388 0.4284318514899854 0.5720566682950659
0.11598803500010035 0.42745481191988266 0.5740107474352711
0.1161755500002073 0.4255007327796776 0.5710796287249633
0.11636158500004967 0.4264777723497801 0.5710796287249633
0.11654748999990261 0.4284318514899854 0.5691255495847583
0.11673383900006229 0.4255007327796776 0.5710796287249633
0.11693529900003341 0.42256961406936977 0.5681485100146555
0.11712290700006633 0.4264777723497801 0.5710796287249633
0.11730942299982416 0.4235466536394723 0.5691255495847583
0.11749656900019545 0.42452369320957506 0.5642403517342451
0.11768262199984747 0.4235466536394723 0.5574010747435272
0.11786947100017642 0.4264777723497801 0.5486077186126037
0.11805596800013518 0.4303859306301905 0.5378602833414754
0.11824298400006228 0.43429408891060084 0.5271128480703469
0.11842951900007392 0.4352711284807034 0.5075720566682951
0.11861590499984231 0.43722520762090866 0.4948705422569615
0.11880255000005491 0.4430874450415241 0.47435271128480694
0.11898884399988674 0.43917928676111373 0.4655593551538837
0.11917476700000407 0.44211040547142155 0.4557889594528579
0.11936156100000517 0.4401563263312165 0.44992672203224227
0.11954796600002737 0.441133365901319 0.44406448461162684
0.11973390799994377 0.43917928676111373 0.43917928676111373
0.11991927600001873 0.4382022471910112 0.43722520762090866
0.12010573599991403 0.4401563263312165 0.43624816805080613
0.12029082600020047 0.4382022471910112 0.4333170493404983
0.12049599000010858 0.43917928676111373 0.4264777723497801
0.12068163499998263 0.441133365901319 0.4284318514899854
0.12087433600026998 0.4401563263312165 0.4157303370786516
0.12106149999999616 0.44406448461162684 0.4079140205178309
0.12124731199992311 0.44894968246213973 0.3961895456765998
0.12143356900014624 0.4528578407425501 0.376648754274548
0.12162002900004154 0.4587200781631655 0.3639472398632144
0.12180589699983102 0.4606741573033708 0.35222276502198335
0.12199194999993779 0.4606741573033708 0.3434294088910601
0.12217763299986473 0.45969711773326827 0.33952125061064975
0.12236372300003495 0.46165119687347334 0.33952125061064975
0.12254994200020519 0.46262823644357587 0.33756717147044446
0.12273580999999467 0.46458231558378116 0.3424523693209576
0.12292106699987926 0.4655593551538837 0.3453834880312652
0.12310811999986981 0.46262823644357587 0.3551538837322912
0.12329395000006116 0.4684904738641915 0.3629702002931119
0.12348189200019988 0.46458231558378116 0.36980947728383007
0.12367092600015894 0.4655593551538837 0.37274059599413767
0.12388481200014212 0.4665363947239862 0.37469467513434296
0.12407923499995377 0.4665363947239862 0.376648754274548
0.12426632500000778 0.46946751343429405 0.3737176355642404
0.12445260100002997 0.4684904738641915 0.3707865168539326
0.12463865400013674 0.4704445530043966 0.3639472398632144
0.12482474399985222 0.47923790913532005 0.3531998045920859
0.12502959199991892 0.47435271128480694 0.33952125061064975
0.12521597900013148 0.4753297508549097 0.3336590131900341
0.1254024949998893 0.47435271128480694 0.33170493404982904
0.1255892330000279 0.4763067904250122 0.3287738153395212
0.1257757670000501 0.4782608695652173 0.3307278944797265
0.12596206099988194 0.47923790913532005 0.33170493404982904
0.12615009499995722 0.47923790913532005 0.3385442110405472
0.12633651900023324 0.4831460674157304 0.3434294088910601
0.1265229420000651 0.4831460674157304 0.3502686858817783
0.12670919799984404 0.48412310698583294 0.36199316072300936
0.1268944180001199 0.48412310698583294 0.3678553981436248
0.1270805270000892 0.4831460674157304 0.37469467513434296
0.1272666909999316 0.4851001465559355 0.38446507083536874
0.1274534100002711 0.48412310698583294 0.38739618954567656
0.12763962999997602 0.4851001465559355 0.39228138739618945
0.12782533100016735 0.486077186126038 0.4010747435271129
0.12801195800011556 0.4851001465559355 0.4079140205178309
0.12819743699992614 0.4831460674157304 0.4157303370786516
0.12838737899983244 0.4831460674157304 0.42256961406936977
0.1285756349998337 0.47923790913532005 0.4284318514899854
0.1287613180002154 0.4753297508549097 0.43624816805080613
0.12895874100013316 0.4704445530043966 0.4430874450415241
0.12914514600015536 0.46946751343429405 0.44992672203224227
0.12933077300021978 0.46458231558378116 0.45481191988275516
0.12951656599989292 0.4606741573033708 0.46165119687347334
0.1297019530002217 0.4587200781631655 0.4665363947239862
0.12988743200003228 0.457743038593063 0.46946751343429405
0.13007300300023417 0.45481191988275516 0.47239863214460187
0.13025859300023512 0.45188080117244755 0.4733756717147044
0.13044903499985594 0.44894968246213973 0.47142159257449934
0.13063529100008964 0.44406448461162684 0.4684904738641915
0.130823029000112 0.4401563263312165 0.46946751343429405
0.13101069399999687 0.4382022471910112 0.47435271128480694
0.13119658000005074 0.43429408891060084 0.4851001465559355
0.13138257699984024 0.431362970200293 0.49682462139716654
0.131568851999873 0.431362970200293 0.5075720566682951
0.1317552569998952 0.4303859306301905 0.5153883732291158
0.13194214299983287 0.42745481191988266 0.5212506106497312
0.13212806699993962 0.4303859306301905 0.5271128480703469
0.13231413799985603 0.43722520762090866 0.533952125061065
0.13250067299986767 0.4303859306301905 0.5378602833414754
0.13268615100014358 0.4284318514899854 0.5456765999022961
0.1328795929998705 0.4284318514899854 0.5525158768930141
0.13306658999999854 0.42940889106008795 0.5642403517342451
0.13325240299991492 0.4323400097703958 0.5642403517342451
0.1334385109998948 0.4323400097703958 0.5701025891548608
0.13362415700021302 0.43429408891060084 0.576941866145579
0.1338095239998438 0.4352711284807034 0.578895945285784
0.13399644799983434 0.43429408891060084 0.5828041035661944
0.13418253800000457 0.431362970200293 0.5847581827063997
0.13436872000011135 0.4303859306301905 0.5876893014167073
0.13455449499997485 0.42940889106008795 0.5818270639960919
0.13473954800019783 0.4284318514899854 0.5808500244259893
0.1349247309999555 0.42745481191988266 0.578895945285784
0.13511072800019974 0.4255007327796776 0.5779189057156815
0.13529626299987285 0.4255007327796776 0.5691255495847583
0.13548137099996893 0.4264777723497801 0.567171470444553
0.13566675799984296 0.4264777723497801 0.5574010747435272
0.13585327400005553 0.42745481191988266 0.5515388373229115
0.13603895599999305 0.431362970200293 0.5446995603321934
0.136224545999994 0.42745481191988266 0.5417684416218858
0.13641000600000552 0.4303859306301905 0.5349291646311676
0.136595651999869 0.42940889106008795 0.5310210063507572
0.13678135300006034 0.431362970200293 0.5280898876404494
0.13697005399990303 0.431362970200293 0.5319980459208598
0.13715586599982998 0.42745481191988266 0.533952125061065
0.13734206700019058 0.4303859306301905 0.5378602833414754
0.13752724999994825 0.4303859306301905 0.540791402051783
0.13771287700001267 0.42940889106008795 0.5388373229115779
0.13789793000023565 0.4303859306301905 0.5359062042012701
0.13808320499992988 0.431362970200293 0.5290669272105519
0.13826916500011066 0.43429408891060084 0.5212506106497312
0.13845899599982658 0.43624816805080613 0.5105031753786029
0.1386451789999228 0.4401563263312165 0.5007327796775769
0.13883175000000847 0.44406448461162684 0.4909623839765511
0.13901711800008343 0.44406448461162684 0.4831460674157304
0.13920357799997873 0.4479726428920372 0.47142159257449934
0.1393896129998211 0.44992672203224227 0.467513434294089
0.139575184000023 0.44699560332193444 0.46165119687347334
0.13976086699994994 0.4460185637518319 0.457743038593063
0.13994660500020473 0.4460185637518319 0.4538348803126526
0.14013258400018458 0.4430874450415241 0.4450415241817294
0.14032574800012299 0.44406448461162684 0.4382022471910112
0.14051698599996598 0.4460185637518319 0.4333170493404983
0.1407039639998402 0.44894968246213973 0.42256961406936977
0.14089405400000032 0.4460185637518319 0.41182217879824123
0.1410851260002346 0.44894968246213973 0.40009770395701016
0.1412755860001198 0.4509037616023448 0.38446507083536874
0.14146515699985684 0.45481191988275516 0.3688324377137273
0.14165396999987934 0.457743038593063 0.34929164631167553
0.14184320799995476 0.4606741573033708 0.3356130923302394
0.14203363100023125 0.4606741573033708 0.32486565705911086
0.14222209099989414 0.46165119687347334 0.31704934049829014
0.14241173700020227 0.46458231558378116 0.31900341963849543
0.14260119700020368 0.4655593551538837 0.32193453834880303
0.14278986099998292 0.4665363947239862 0.3307278944797265
0.1429791179998574 0.4655593551538837 0.3336590131900341
0.14316818899987993 0.4655593551538837 0.3453834880312652
0.1433573899998919 0.46946751343429405 0.35222276502198335
0.1435463500001788 0.46946751343429405 0.3561309233023937
0.14373621799995817 0.47239863214460187 0.3610161211529066
0.1439253080002345 0.46458231558378116 0.36003908158280407
0.14411450900024647 0.46458231558378116 0.36003908158280407
0.1443037290000575 0.46458231558378116 0.358085002442599
0.1444925589999002 0.46458231558378116 0.3561309233023937
0.14468050100003893 0.4655593551538837 0.34733756717147046
0.14487096099992414 0.46458231558378116 0.3356130923302394
0.14505940300023212 0.46946751343429405 0.32486565705911086
0.14524823400006426 0.4684904738641915 0.3111871030776747
0.14543662000005497 0.46946751343429405 0.30434782608695654
0.14562526600002457 0.46946751343429405 0.2984855886663409
0.14581468899996253 0.47142159257449934 0.2984855886663409
0.14600329699987924 0.46946751343429405 0.3053248656570591
0.14619164700025067 0.46946751343429405 0.3082559843673669
0.14638066199995592 0.47435271128480694 0.3160723009281876
0.14656914099987262 0.48216902784562765 0.32975085490962375
0.14675910200003273 0.47728382999511476 0.3414753297508548
0.14694908000001305 0.47923790913532005 0.3531998045920859
0.1471379109998452 0.4763067904250122 0.3610161211529066
0.14732650099995226 0.47923790913532005 0.3707865168539326
0.14751499800013335 0.4831460674157304 0.3756717147044455
0.14770466200025112 0.47728382999511476 0.3854421104054715
0.14789325199990344 0.4753297508549097 0.39716658524670256
0.14808237900024324 0.4753297508549097 0.4059599413776258
0.14827067299984265 0.47142159257449934 0.4186614557889594
0.14846016999990752 0.46458231558378116 0.43624816805080613
0.14864924199991947 0.46262823644357587 0.4479726428920372
0.14883799800009 0.4636052760136786 0.467513434294089
0.14904144000001907 0.4587200781631655 0.4811919882755251
0.14923084500014738 0.45969711773326827 0.4948705422569615
0.14941982300024392 0.46262823644357587 0.5007327796775769
0.1496092279999175 0.457743038593063 0.5056179775280898
0.14979922500015164 0.45969711773326827 0.5046409379579873
0.14998911200018483 0.45676599902296044 0.5065950170981925
0.15017894199991133 0.4587200781631655 0.5085490962383976
0.15036817999998675 0.4587200781631655 0.5095261358085001
0.1505567889998929 0.4587200781631655 0.5095261358085001
0.15074593400004233 0.457743038593063 0.5134342940889105
0.15093467199994848 0.45481191988275516 0.5173424523693209
0.15112335499998153 0.4528578407425501 0.5251587689301416
0.15131225999994058 0.4528578407425501 0.5368832437713726
0.15150079400018512 0.4479726428920372 0.5466536394723986
0.15169016200024998 0.4450415241817294 0.5525158768930141
0.15187919600020905 0.4430874450415241 0.5564240351734244
0.15206921200024226 0.441133365901319 0.5583781143136297
0.15225869100004275 0.44406448461162684 0.5632633121641426
0.15244739199988544 0.43722520762090866 0.5652173913043479
0.15263720400025704 0.43722520762090866 0.5613092330239375
0.15282636800020555 0.43624816805080613 0.5544699560332194
0.15302399500023967 0.43624816805080613 0.5476306790425012
0.1532128809999449 0.43624816805080613 0.5388373229115779
0.15340217499988285 0.4382022471910112 0.5261358085002443
0.15359122800009573 0.4352711284807034 0.5163654127992183
0.15378031799991732 0.4352711284807034 0.5085490962383976
0.1539692589999504 0.4333170493404983 0.5105031753786029
0.15415822000022672 0.4333170493404983 0.5036638983878847
0.15434660600021743 0.431362970200293 0.5065950170981925
0.15453497399994376 0.42940889106008795 0.5105031753786029
0.15472417499995572 0.431362970200293 0.522227650219834
0.15491296800018972 0.4284318514899854 0.5261358085002443
0.15510166900003242 0.4284318514899854 0.5319980459208598
0.1552909440001713 0.4284318514899854 0.5378602833414754
0.15548021999984485 0.42940889106008795 0.5437225207620908
0.15567593900004795 0.4284318514899854 0.5456765999022961
0.15587630700019872 0.42940889106008795 0.5495847581827065
0.15607172999989416 0.4235466536394723 0.5456765999022961
0.15626191199999084 0.4264777723497801 0.540791402051783
0.15645137299998169 0.4284318514899854 0.540791402051783
0.1566403699998773 0.42745481191988266 0.533952125061065
0.15682927499983634 0.4284318514899854 0.5280898876404494
0.15705660499997975 0.4284318514899854 0.5261358085002443
0.15724636100003409 0.4284318514899854 0.5290669272105519
0.15743550700017295 0.4264777723497801 0.5271128480703469
0.15762465199986764 0.4284318514899854 0.5202735710796287
0.15781427899992195 0.4284318514899854 0.5134342940889105
0.15800292499989155 0.4255007327796776 0.5065950170981925
0.15819349599996713 0.42745481191988266 0.49682462139716654
0.1583820310002011 0.4284318514899854 0.4851001465559355
0.15857110200022362 0.4333170493404983 0.4763067904250122
0.15876030300023558 0.43624816805080613 0.4636052760136786
0.15894983699990917 0.43917928676111373 0.45188080117244755
0.15913881599999513 0.43917928676111373 0.44894968246213973
0.15932822100012345 0.4430874450415241 0.44406448461162684
0.15951701499989213 0.4430874450415241 0.43917928676111373
0.15970688200013683 0.44699560332193444 0.4333170493404983
0.15989602799982094 0.44211040547142155 0.4323400097703958
0.16008419199988566 0.4430874450415241 0.42745481191988266
0.16027322599984473 0.441133365901319 0.42940889106008795
0.1604622049999307 0.441133365901319 0.42452369320957506
0.1606513689998792 0.43917928676111373 0.4206155349291647
0.16085049599996637 0.4430874450415241 0.41182217879824123
0.16104221500017957 0.44406448461162684 0.40009770395701016
0.1612322679998215 0.4479726428920372 0.38739618954567656
0.1614212839999709 0.45969711773326827 0.37957987298485585
0.16160991100014144 0.4557889594528579 0.37274059599413767
0.16179768600022726 0.46165119687347334 0.3786028334147533
0.16198627599987958 0.4587200781631655 0.3786028334147533
0.16217495899991263 0.4606741573033708 0.38446507083536874
0.1623646230000304 0.4636052760136786 0.3883732291157791
0.16255382400004237 0.4655593551538837 0.39228138739618945
0.16274354300003324 0.4655593551538837 0.39716658524670256
0.16293285500023558 0.467513434294089 0.40009770395701016
0.1631212229999619 0.4665363947239862 0.40205178309721545
0.16331003499999497 0.4655593551538837 0.4040058622374205
0.16349877299990112 0.46946751343429405 0.40986809965803617
0.1636877710002409 0.4655593551538837 0.4079140205178309
0.16387645299982978 0.4684904738641915 0.4059599413776258
0.16406480200021178 0.4704445530043966 0.40205178309721545
0.16425383700016027 0.47239863214460187 0.40009770395701016
0.16444235300014043 0.47142159257449934 0.3961895456765998
0.16463062799994077 0.46946751343429405 0.3883732291157791
0.16481927299992094 0.46946751343429405 0.38935026868588185
0.1650101039999754 0.47728382999511476 0.3756717147044455
0.16519889800019882 0.4753297508549097 0.36980947728383007
0.16538761699985116 0.4763067904250122 0.3639472398632144
0.16557652200026496 0.4733756717147044 0.3610161211529066
0.16576531600003364 0.4763067904250122 0.35710796287249624
0.16595392399995035 0.4733756717147044 0.3551538837322912
0.16614299499997287 0.4733756717147044 0.35906204201270153
0.16633127100021738 0.4753297508549097 0.35222276502198335
0.1665206570000919 0.4753297508549097 0.34636052760136793
0.1667096539999875 0.47239863214460187 0.3385442110405472
0.1668984289999571 0.4704445530043966 0.3258426966292134
0.16708735200018054 0.47239863214460187 0.30727894479726436
0.16727566500003377 0.47239863214460187 0.2857840742550073
0.16746440299993992 0.4753297508549097 0.28187591597459694
0.16765303000011045 0.47142159257449934 0.265266243282853
0.16784104599992133 0.4704445530043966 0.2681973619931608
0.1680304689998593 0.47142159257449934 0.28187591597459694
0.16821966999987126 0.47142159257449934 0.3014167073766487
0.1684085749998303 0.46946751343429405 0.3277967757694187
0.1685965159999796 0.4655593551538837 0.35710796287249624
0.16878781000013987 0.46262823644357587 0.3903273082559844
0.16897756700018363 0.4636052760136786 0.41963849535906195
0.16916634200015324 0.46165119687347334 0.4460185637518319
0.16935472800014395 0.46165119687347334 0.4636052760136786
0.16954244799990192 0.4587200781631655 0.47923790913532005
0.16973037100024158 0.45969711773326827 0.4929164631167562
0.16991853499985154 0.457743038593063 0.49975574010747437
0.17010679099985282 0.457743038593063 0.5065950170981925
0.1702954369998224 0.457743038593063 0.5085490962383976
0.17048521200013056 0.45481191988275516 0.5095261358085001
0.17067798700009007 0.4509037616023448 0.5114802149487054
0.17086741000002803 0.4538348803126526 0.5095261358085001
0.1710559819998707 0.4509037616023448 0.5163654127992183
0.17124523800021052 0.4460185637518319 0.5251587689301416
0.17143421699984174 0.44406448461162684 0.5349291646311676
0.17162269600021318 0.44211040547142155 0.5446995603321934
0.17181193399983385 0.4401563263312165 0.5515388373229115
0.17200145000015254 0.43722520762090866 0.5613092330239375
0.1721908730000905 0.4382022471910112 0.5613092330239375
0.17237924100027158 0.43624816805080613 0.5691255495847583
0.1725681269999768 0.43624816805080613 0.5701025891548608
0.17275706899999932 0.4333170493404983 0.5710796287249633
0.17295623300014995 0.4323400097703958 0.5740107474352711
0.17314569300015137 0.43429408891060084 0.5642403517342451
0.17333443100005752 0.43429408891060084 0.5603321934538348
0.17352303999996366 0.43429408891060084 0.5544699560332194
0.17371896299982836 0.4303859306301905 0.5495847581827065
0.17390862699994614 0.4303859306301905 0.5427454811919883
0.1740978460002225 0.431362970200293 0.5456765999022961
0.1742866029999277 0.42940889106008795 0.5417684416218858
0.17447523000009824 0.4284318514899854 0.5378602833414754
0.1746640420001313 0.4303859306301905 0.5388373229115779
0.1748529649999 0.42940889106008795 0.5437225207620908
0.1750418520000494 0.42452369320957506 0.5476306790425012
0.17523047900021993 0.4255007327796776 0.5495847581827065
0.1754193279998617 0.4255007327796776 0.5534929164631168
0.17560834400001113 0.4303859306301905 0.5554469956033219
0.1757965259998855 0.4264777723497801 0.5593551538837322
0.17598604200020418 0.42745481191988266 0.5613092330239375
0.17617461300005743 0.4264777723497801 0.5603321934538348
0.17636325900002703 0.4264777723497801 0.5593551538837322
0.17655181200007064 0.4255007327796776 0.5564240351734244
0.17674012399993444 0.4255007327796776 0.5525158768930141
0.17693938100001105 0.42452369320957506 0.550561797752809
0.17712845200003358 0.42452369320957506 0.5534929164631168
0.1773170599999503 0.42256961406936977 0.5476306790425012
0.177505316999941 0.4255007327796776 0.5417684416218858
0.17769398100017497 0.4284318514899854 0.5368832437713726
0.17788288600013402 0.4284318514899854 0.5319980459208598
0.17807201300001907 0.4323400097703958 0.5183194919394236
0.17826121400003103 0.43429408891060084 0.5085490962383976
0.1784495629999583 0.4333170493404983 0.49877870053737183
0.17863898599989625 0.43624816805080613 0.48412310698583294
0.17882761300006678 0.4401563263312165 0.47239863214460187
0.17901592499993058 0.44211040547142155 0.4606741573033708
0.17920538599992142 0.44211040547142155 0.4509037616023448
0.1793938639998487 0.44406448461162684 0.44699560332193444
0.1795823620000192 0.44211040547142155 0.441133365901319
0.17977074800000992 0.4509037616023448 0.43722520762090866
0.17995898600020155 0.4430874450415241 0.43429408891060084
0.1801474839999173 0.44406448461162684 0.4323400097703958
0.18033590699997148 0.44406448461162684 0.43429408891060084
0.1805244600000151 0.4450415241817294 0.42940889106008795
0.1807129389999318 0.44406448461162684 0.4264777723497801
0.18090295399997558 0.4450415241817294 0.42159257449926724
0.1810948779998398 0.4460185637518319 0.41182217879824123
0.18128393000006326 0.44992672203224227 0.40205178309721545
0.18147235400010686 0.45481191988275516 0.38935026868588185
0.18166090700015047 0.45676599902296044 0.3756717147044455
0.18184977400005664 0.45676599902296044 0.36980947728383007
0.18203821599990988 0.4606741573033708 0.3639472398632144
0.1822266210001544 0.4636052760136786 0.358085002442599
0.1824159520001558 0.4636052760136786 0.35222276502198335
0.1826046710002629 0.46458231558378116 0.348314606741573
0.18279351999990467 0.46458231558378116 0.34733756717147046
0.18298164699990593 0.467513434294089 0.3453834880312652
0.1831710890000977 0.467513434294089 0.34440644846116264
0.18335993800019423 0.4655593551538837 0.348314606741573
0.18354906500007928 0.46458231558378116 0.34929164631167553
0.18373758100005944 0.4684904738641915 0.3502686858817783
0.18392669000013484 0.47142159257449934 0.348314606741573
0.184115113000189 0.4733756717147044 0.34929164631167553
0.18430409199982023 0.4753297508549097 0.34929164631167553
0.1844923479998215 0.4753297508549097 0.34929164631167553
0.1846810120000555 0.47728382999511476 0.34440644846116264
0.18487049099985597 0.4811919882755251 0.3453834880312652
0.1850591180000265 0.4811919882755251 0.3424523693209576
0.18524744900014412 0.48412310698583294 0.34636052760136793
0.18543618700005027 0.48216902784562765 0.3424523693209576
0.18562474000009388 0.48216902784562765 0.3424523693209576
0.1858124959999259 0.4782608695652173 0.34733756717147046
0.18600064200018096 0.4811919882755251 0.3453834880312652
0.18618956499994965 0.47923790913532005 0.34733756717147046
0.1863784699999087 0.4811919882755251 0.348314606741573
0.18656783799997356 0.47923790913532005 0.3512457254518808
0.1867567419999432 0.4753297508549097 0.358085002442599
0.1869457580000926 0.47239863214460187 0.3639472398632144
0.18713390399989294 0.4753297508549097 0.3639472398632144
0.18732284499992602 0.47728382999511476 0.3688324377137273
0.18751178699994853 0.4753297508549097 0.376648754274548
0.18770165500018265 0.47435271128480694 0.3913043478260869
0.1878901710001628 0.4763067904250122 0.3952125061064973
0.1880787979998786 0.4733756717147044 0.40693698094772834
0.18826760999991166 0.4684904738641915 0.41475329750854906
0.18845725500023036 0.4704445530043966 0.42256961406936977
0.18864599400012594 0.467513434294089 0.43429408891060084
0.18883523200020136 0.47239863214460187 0.44699560332193444
0.18903732099988702 0.4636052760136786 0.457743038593063
0.18922628200016334 0.46165119687347334 0.4704445530043966
0.18941429799997422 0.46165119687347334 0.4782608695652173
0.18960325800026112 0.46946751343429405 0.48998534440644836
0.18979284800025198 0.46458231558378116 0.49682462139716654
0.18998138200004178 0.4655593551538837 0.5056179775280898
0.19016945400016994 0.46262823644357587 0.5114802149487054
0.19035828400001265 0.46262823644357587 0.5114802149487054
0.1905467450001197 0.46165119687347334 0.5144113336590133
0.19073568600015278 0.46262823644357587 0.5114802149487054
0.19092438699999548 0.45969711773326827 0.5163654127992183
0.1911129400000391 0.4557889594528579 0.5202735710796287
0.19130190099986066 0.4538348803126526 0.5300439667806547
0.19149084199989375 0.4460185637518319 0.5417684416218858
0.19167996900023354 0.4460185637518319 0.5515388373229115
0.19186889299999166 0.4430874450415241 0.5574010747435272
0.1920587230001729 0.441133365901319 0.5642403517342451
0.19224790599992048 0.4401563263312165 0.5701025891548608
0.192436976999943 0.43917928676111373 0.5740107474352711
0.19262558599984914 0.4382022471910112 0.5740107474352711
0.19281517599984 0.43624816805080613 0.5749877870053737
0.19300570999985212 0.43917928676111373 0.5652173913043479
0.19319496700018135 0.43722520762090866 0.5574010747435272
0.19338372299989715 0.43917928676111373 0.5534929164631168
0.19357264600012059 0.43917928676111373 0.5593551538837322
0.19376066199993147 0.43624816805080613 0.5593551538837322
0.19394880800018655 0.43624816805080613 0.5622862725940401
0.19413824999992357 0.43624816805080613 0.5622862725940401
0.1943270990000201 0.42940889106008795 0.5652173913043479
0.19451639199996862 0.42745481191988266 0.5652173913043479
0.19470535300024494 0.4255007327796776 0.5661944308744504
0.19489446099987617 0.42256961406936977 0.5661944308744504
0.19508319900023707 0.42745481191988266 0.5632633121641426
0.19527197400020668 0.4235466536394723 0.5583781143136297
0.1954605270002503 0.4235466536394723 0.5534929164631168
0.1956494690002728 0.4235466536394723 0.550561797752809
0.19583841099984056 0.4303859306301905 0.5456765999022961
0.19602751899992654 0.4264777723497801 0.5378602833414754
0.19621614600009707 0.42745481191988266 0.524181729360039
0.1964049769999292 0.42745481191988266 0.5114802149487054
0.1965939189999517 0.42745481191988266 0.4880312652662433
0.19678306400010115 0.42745481191988266 0.4733756717147044
0.19697380200022963 0.4255007327796776 0.4655593551538837
0.19716235500027324 0.4264777723497801 0.45481191988275516
0.1973505189998832 0.4264777723497801 0.4587200781631655
0.1975387390002652 0.4264777723497801 0.4636052760136786
0.19772706899993864 0.4303859306301905 0.467513434294089
0.19791606699982367 0.42940889106008795 0.4684904738641915
0.19810528600010002 0.431362970200293 0.46458231558378116
0.19829389500000616 0.431362970200293 0.46458231558378116
0.19848250299992287 0.43722520762090866 0.44992672203224227
0.19867053799998757 0.43624816805080613 0.44211040547142155
0.19885972000020047 0.43722520762090866 0.43722520762090866
0.19904875500014896 0.441133365901319 0.4284318514899854
0.1992374189999282 0.4479726428920372 0.4264777723497801
0.1994264340000882 0.4450415241817294 0.42256961406936977
0.1996153760001107 0.4460185637518319 0.4323400097703958
0.19980439200026012 0.4479726428920372 0.4303859306301905
0.19999350099988078 0.4460185637518319 0.4323400097703958
0.20018229400011478 0.4460185637518319 0.4303859306301905
0.20037090300002092 0.44699560332193444 0.4284318514899854
0.20056021500022325 0.4460185637518319 0.42940889106008795
0.20074897099993905 0.44699560332193444 0.4284318514899854
0.20095137599992086 0.44894968246213973 0.4206155349291647
0.20114009500002794 0.4528578407425501 0.4108451392281387
0.2013283890000821 0.45676599902296044 0.40009770395701016
0.2015160350001679 0.4606741573033708 0.38935026868588185
0.2017041799999788 0.46262823644357587 0.37957987298485585
0.20189225200010696 0.467513434294089 0.37176355642403514
0.20208149000018238 0.46165119687347334 0.3659013190034197
0.2022700799998347 0.4636052760136786 0.3639472398632144
0.20245866999994178 0.46165119687347334 0.3629702002931119
0.2026477590002287 0.46458231558378116 0.3639472398632144
0.2028381640002408 0.4665363947239862 0.36980947728383007
0.20302790200003074 0.4665363947239862 0.3678553981436248
0.20321652900020126 0.46458231558378116 0.3678553981436248
0.20340498999985357 0.4655593551538837 0.37176355642403514
0.20359341299990774 0.4636052760136786 0.37176355642403514
0.2037815580001734 0.467513434294089 0.3688324377137273
0.2039698150001641 0.4665363947239862 0.36492427943331696
0.204157959999975 0.4665363947239862 0.3639472398632144
0.2043464389998917 0.47142159257449934 0.3629702002931119
0.20453406600017843 0.4753297508549097 0.3629702002931119
0.20472237800004223 0.47435271128480694 0.35906204201270153
0.20491207900022346 0.4763067904250122 0.35710796287249624
0.20510078000006615 0.4811919882755251 0.35710796287249624
0.20528927800023666 0.4782608695652173 0.35710796287249624
0.205477774999963 0.47728382999511476 0.3629702002931119
0.2056660319999537 0.4782608695652173 0.37176355642403514
0.20585404800021934 0.47728382999511476 0.37957987298485585
0.20604237799989278 0.4811919882755251 0.3883732291157791
0.2062306160000844 0.4782608695652173 0.3961895456765998
0.20641998400014927 0.47923790913532005 0.40205178309721545
0.20660790700003417 0.47728382999511476 0.4108451392281387
0.2067970900002365 0.4753297508549097 0.4079140205178309
0.20698582800014265 0.47728382999511476 0.4040058622374205
0.20717438100018626 0.47728382999511476 0.3961895456765998
0.20736378599985983 0.4763067904250122 0.38446507083536874
0.2075525979998929 0.4802149487054226 0.3805569125549584
0.20774087300014799 0.4763067904250122 0.37957987298485585
0.20792931500000122 0.4753297508549097 0.3756717147044455
0.20811760800006596 0.47239863214460187 0.37957987298485585
0.20830569800000376 0.47239863214460187 0.3854421104054715
0.2084943069999099 0.4684904738641915 0.3961895456765998
0.2086827859998266 0.467513434294089 0.4108451392281387
0.20887337600015599 0.467513434294089 0.4255007327796776
0.20906274300023142 0.4655593551538837 0.441133365901319
0.2092503150001903 0.45969711773326827 0.4528578407425501
0.20943871899999067 0.4587200781631655 0.46458231558378116
0.20962645800000246 0.4606741573033708 0.47435271128480694
0.2098143620000883 0.45969711773326827 0.4782608695652173
0.21000309999999445 0.4587200781631655 0.48705422569614076
0.21019146800017552 0.457743038593063 0.486077186126038
0.21038122500021927 0.45969711773326827 0.486077186126038
0.21057001799999853 0.46262823644357587 0.4880312652662433
0.2107586820002325 0.4606741573033708 0.49193942354665365
0.21094714299988482 0.4636052760136786 0.49877870053737183
0.21113577000005535 0.4655593551538837 0.5085490962383976
0.21132467400002497 0.4636052760136786 0.5202735710796287
0.2115139120001004 0.4606741573033708 0.5319980459208598
0.21170170599998528 0.4606741573033708 0.5359062042012701
0.21188775900009205 0.4587200781631655 0.540791402051783
0.21207410800025173 0.4587200781631655 0.5437225207620908
0.21226005000016812 0.4587200781631655 0.5446995603321934
0.21244515900025362 0.4538348803126526 0.5466536394723986
0.21263121199990564 0.4557889594528579 0.5495847581827065
0.2128166349998537 0.457743038593063 0.5476306790425012
0.21300765100022545 0.4538348803126526 0.5486077186126037
0.2131970549999096 0.4538348803126526 0.550561797752809
0.21338559000014357 0.4509037616023448 0.550561797752809
0.21357371700014482 0.44894968246213973 0.5544699560332194
0.21376289899990297 0.4430874450415241 0.5583781143136297
0.21395184099992548 0.43917928676111373 0.5613092330239375
0.21414018999985274 0.43624816805080613 0.567171470444553
0.21432861399989633 0.4284318514899854 0.5691255495847583
0.21451779600010923 0.42452369320957506 0.5720566682950659
0.2147073860001001 0.41963849535906195 0.5808500244259893
0.21489614300026005 0.41475329750854906 0.5808500244259893
0.21508412100001806 0.40986809965803617 0.5847581827063997
0.21527398900025219 0.4059599413776258 0.578895945285784
0.21546283799989396 0.40986809965803617 0.5818270639960919
0.21565129900000102 0.4010747435271129 0.5808500244259893
0.21584033299996008 0.4010747435271129 0.576941866145579
0.21602860800021517 0.403028822667318 0.5720566682950659
0.21621729100024822 0.4010747435271129 0.567171470444553
0.21640564000017548 0.4049829018075233 0.5603321934538348
0.21659452599988072 0.4108451392281387 0.5486077186126037
0.21678315300005124 0.41182217879824123 0.5388373229115779
0.21697259500024302 0.41670737664875435 0.5329750854909623
0.21716111100022317 0.41475329750854906 0.5310210063507572
0.21734984900012932 0.4186614557889594 0.5261358085002443
0.21753901300007783 0.4206155349291647 0.5202735710796287
0.21772773200018491 0.42256961406936977 0.5134342940889105
0.21791684100026032 0.42452369320957506 0.5036638983878847
0.21810519000018758 0.42745481191988266 0.4938935026868587
0.21829453899999862 0.4303859306301905 0.48216902784562765
0.21848294400024315 0.43624816805080613 0.4665363947239862
0.21867171900021276 0.4401563263312165 0.45676599902296044
0.2188604570001189 0.4430874450415241 0.441133365901319
0.21904891800022597 0.44406448461162684 0.4333170493404983
0.21923748900007922 0.44211040547142155 0.4235466536394723
0.2194265230000383 0.4479726428920372 0.41475329750854906
0.21961572400005025 0.44406448461162684 0.4059599413776258
0.21980412899984003 0.4450415241817294 0.40009770395701016
0.21999347800010582 0.4460185637518319 0.39423546653639474
0.22018203100014944 0.4450415241817294 0.3903273082559844
0.2203712320001614 0.44699560332193444 0.3883732291157791
0.220559785000205 0.44699560332193444 0.38641914997557403
0.2207482449998679 0.4509037616023448 0.38446507083536874
0.22094800200011377 0.4479726428920372 0.38153395212506114
0.22113696199994592 0.4557889594528579 0.37176355642403514
0.22132592300022225 0.4557889594528579 0.3629702002931119
0.22151382699985334 0.45969711773326827 0.35710796287249624
0.22170237999989695 0.4587200781631655 0.3512457254518808
0.2218903030002366 0.46262823644357587 0.34440644846116264
0.2220787639998889 0.4606741573033708 0.3424523693209576
0.22226724300026035 0.4636052760136786 0.3385442110405472
0.22245583299991267 0.4636052760136786 0.3404982901807523
0.22264425599996684 0.4655593551538837 0.3434294088910601
0.22283234599990465 0.46262823644357587 0.348314606741573
0.22302012099999047 0.467513434294089 0.3561309233023937
0.22320869199984372 0.4665363947239862 0.3629702002931119
0.22339663399998244 0.4655593551538837 0.3707865168539326
0.22358507599983568 0.4704445530043966 0.36980947728383007
0.22377351800014367 0.4684904738641915 0.3678553981436248
0.22396188499988057 0.4733756717147044 0.36492427943331696
0.2241505120000511 0.4753297508549097 0.3610161211529066
0.22433871300017927 0.4782608695652173 0.35710796287249624
0.22452672899999015 0.47435271128480694 0.3512457254518808
0.2247147819998645 0.47923790913532005 0.3453834880312652
0.2249040760002572 0.4802149487054226 0.3414753297508548
0.2250927770000999 0.4811919882755251 0.3424523693209576
0.22528160799993202 0.47923790913532005 0.3414753297508548
0.22546962300020823 0.4782608695652173 0.3434294088910601
0.22565788000019893 0.4802149487054226 0.3502686858817783
0.22584687700009454 0.4802149487054226 0.348314606741573
0.22603580099985265 0.47923790913532005 0.35222276502198335
0.2262252800001079 0.4782608695652173 0.358085002442599
0.22641361000023608 0.4753297508549097 0.3659013190034197
0.22660238500020569 0.47239863214460187 0.37176355642403514
0.22679149399982634 0.4753297508549097 0.3776257938446508
0.22698001000026125 0.4753297508549097 0.3854421104054715
0.2271685629998501 0.4753297508549097 0.38739618954567656
0.22735772700025336 0.47435271128480694 0.3913043478260869
0.2275467419999586 0.4753297508549097 0.3952125061064973
0.22773546200005512 0.46946751343429405 0.4010747435271129
0.22792432999995071 0.47142159257449934 0.40693698094772834
0.22811295700012124 0.47142159257449934 0.41475329750854906
0.22830204699994283 0.4684904738641915 0.42452369320957506
0.2284910809999019 0.4684904738641915 0.4323400097703958
0.22867907799991372 0.4655593551538837 0.43917928676111373
0.22886800200012658 0.46262823644357587 0.44406448461162684
0.2290603880001072 0.46262823644357587 0.4460185637518319
0.22924871800023539 0.45969711773326827 0.45188080117244755
0.22943710500021552 0.4606741573033708 0.4538348803126526
0.22962558400013222 0.4587200781631655 0.4587200781631655
0.22981389599999602 0.4587200781631655 0.4606741573033708
0.23000250399991273 0.4587200781631655 0.46458231558378116
0.23019100100009382 0.45676599902296044 0.4684904738641915
0.23037923999982013 0.45481191988275516 0.47239863214460187
0.23056773700000122 0.45481191988275516 0.47142159257449934
0.23075556799994956 0.45188080117244755 0.47728382999511476
0.2309468610001204 0.44894968246213973 0.4831460674157304
0.23113906200023848 0.4450415241817294 0.495847581827064
0.23132817099985914 0.441133365901319 0.5065950170981925
0.2315169829998922 0.43722520762090866 0.5202735710796287
0.2317057210002531 0.43624816805080613 0.5280898876404494
0.23189468100008526 0.4323400097703958 0.5319980459208598
0.23208349300011832 0.4303859306301905 0.5359062042012701
0.2322724720002043 0.4323400097703958 0.540791402051783
0.23246098800018444 0.43429408891060084 0.5446995603321934
0.2326503369999955 0.43429408891060084 0.5525158768930141
0.23283887200022946 0.431362970200293 0.5603321934538348
0.23304090600004201 0.4333170493404983 0.5730337078651686
0.2332296250001491 0.4333170493404983 0.5701025891548608
0.23341808600025615 0.43624816805080613 0.5720566682950659
0.2336063610000565 0.43429408891060084 0.5779189057156815
0.23379495100016356 0.43429408891060084 0.5847581827063997
0.23398355900008028 0.4333170493404983 0.5915974596971176
0.23417276000009224 0.43429408891060084 0.5935515388373229
0.23436118400013584 0.4303859306301905 0.595505617977528
0.23454986600017946 0.42940889106008795 0.6033219345383487
0.2347390859999905 0.4264777723497801 0.6082071323888618
0.23493089800012967 0.4264777723497801 0.6091841719589643
0.23512002500001472 0.4264777723497801 0.6101612115290669
0.23530846699986796 0.4264777723497801 0.6091841719589643
0.23549748200002796 0.42745481191988266 0.6091841719589643
0.235686479999913 0.4235466536394723 0.605276013678554
0.23587471800010462 0.4235466536394723 0.5974596971177333
0.23606377099986275 0.4235466536394723 0.5896433805569126
0.23625226800004384 0.4264777723497801 0.5837811431362969
0.23644193200016161 0.42452369320957506 0.5730337078651686
0.23663020699996196 0.42745481191988266 0.5603321934538348
0.23681905600005848 0.4333170493404983 0.5525158768930141
0.2370086280002397 0.42940889106008795 0.5495847581827065
0.23719645800019862 0.431362970200293 0.5456765999022961
0.2373848080001153 0.43429408891060084 0.5388373229115779
0.2375739720000638 0.42940889106008795 0.5290669272105519
0.2377629130000969 0.43722520762090866 0.5183194919394236
0.23795167000025685 0.4323400097703958 0.4978016609672691
0.23813987099993028 0.43624816805080613 0.47435271128480694
0.23832788700019591 0.43917928676111373 0.441133365901319
0.23851684700002806 0.441133365901319 0.4040058622374205
0.23870558499993422 0.4430874450415241 0.36492427943331696
0.23889452699995672 0.44406448461162684 0.3336590131900341
0.23908315400012725 0.44699560332193444 0.31216414264777725
0.2392720399998325 0.4479726428920372 0.30239374694675125
0.2394610010001088 0.44699560332193444 0.303370786516854
0.23964888699993026 0.4509037616023448 0.3150952613580851
0.23983834699993167 0.4509037616023448 0.3307278944797265
0.24002686299991183 0.4509037616023448 0.35222276502198335
0.24021539700015637 0.4509037616023448 0.36687835857352225
0.24040396899999905 0.44894968246213973 0.38153395212506114
0.24059239200005322 0.4538348803126526 0.39228138739618945
0.24078111200014973 0.4528578407425501 0.39912066438690763
0.24097325699995054 0.4557889594528579 0.3961895456765998
0.24116136600014215 0.457743038593063 0.3932584269662922
0.24134919600010107 0.46165119687347334 0.3854421104054715
0.2415367859998696 0.4655593551538837 0.3786028334147533
0.24172487600026216 0.4704445530043966 0.3756717147044455
0.24191289200007304 0.467513434294089 0.37176355642403514
0.24210129699986283 0.46946751343429405 0.3688324377137273
0.24228936800000156 0.47142159257449934 0.36492427943331696
0.24247779200004516 0.4684904738641915 0.3639472398632144
0.2426665299999513 0.4684904738641915 0.36687835857352225
0.24285499000006894 0.47142159257449934 0.3688324377137273
0.2430433389999962 0.47142159257449934 0.3707865168539326
0.24323131800019837 0.4684904738641915 0.3737176355642404
0.24341992600011508 0.4665363947239862 0.3756717147044455
0.2436078499999894 0.46946751343429405 0.37274059599413767
0.24379540300014924 0.4704445530043966 0.3737176355642404
0.24398262200020326 0.47142159257449934 0.37274059599413767
0.2441703790000247 0.46946751343429405 0.37469467513434296
0.2443585430000894 0.4684904738641915 0.3659013190034197
0.24454603999993196 0.47239863214460187 0.35906204201270153
0.24473394500000722 0.47435271128480694 0.35417684416218864
0.24493057200015755 0.4782608695652173 0.34733756717147046
0.24511988399990514 0.4753297508549097 0.34636052760136793
0.24530786300010732 0.47728382999511476 0.348314606741573
0.24549643399996057 0.4782608695652173 0.3424523693209576
0.2456850429998667 0.4753297508549097 0.3424523693209576
0.24587328100005834 0.4753297508549097 0.3414753297508548
0.24606059300003835 0.47435271128480694 0.34636052760136793
0.24624814600019818 0.4753297508549097 0.3512457254518808
0.24643621699988216 0.4753297508549097 0.35710796287249624
0.24662438099994688 0.47435271128480694 0.36199316072300936
0.24681506400020226 0.47728382999511476 0.36980947728383007
0.2470035800001824 0.47728382999511476 0.3737176355642404
0.2471917249999933 0.47923790913532005 0.376648754274548
0.2473798149999311 0.47923790913532005 0.3805569125549584
0.24756768299994292 0.47728382999511476 0.3854421104054715
0.24775640200005 0.4782608695652173 0.3913043478260869
0.24794395500020983 0.4811919882755251 0.40009770395701016
0.248131211999862 0.47435271128480694 0.4059599413776258
0.2483197649999056 0.47239863214460187 0.412799218368344
0.24850840999988577 0.47239863214460187 0.42452369320957506
0.24869674100000339 0.4733756717147044 0.43429408891060084
0.24888640500012116 0.4684904738641915 0.44406448461162684
0.24907455099992148 0.46458231558378116 0.45969711773326827
0.24926306599991221 0.4636052760136786 0.4665363947239862
0.24945124900023075 0.46458231558378116 0.4763067904250122
0.2496403760001158 0.4655593551538837 0.486077186126038
0.24982818800026507 0.46262823644357587 0.49193942354665365
0.25001690799990683 0.46458231558378116 0.49877870053737183
0.25020484900005613 0.4606741573033708 0.5017098192476794
0.25039351299983537 0.4606741573033708 0.49975574010747437
0.2505824549998579 0.4606741573033708 0.49975574010747437
0.25077050800018696 0.45969711773326827 0.5017098192476794
0.2509587829999873 0.457743038593063 0.5075720566682951
0.25114663300018947 0.45676599902296044 0.5163654127992183
0.2513342410002224 0.44992672203224227 0.5251587689301416
0.2515222199999698 0.44406448461162684 0.533952125061065
0.251710199000172 0.4430874450415241 0.5319980459208598
0.2518975849998242 0.44211040547142155 0.5359062042012701
0.2520863790000476 0.441133365901319 0.5378602833414754
0.2522748569999749 0.4382022471910112 0.5427454811919883
0.25246389199992336 0.43624816805080613 0.5476306790425012
0.2526520559999881 0.4352711284807034 0.550561797752809
0.2528495159999693 0.4352711284807034 0.550561797752809
0.25304019800023525 0.4333170493404983 0.5544699560332194
0.2532290290000674 0.4352711284807034 0.5544699560332194
0.25341663800008973 0.43624816805080613 0.5544699560332194
0.25360494999995353 0.4382022471910112 0.5583781143136297
0.2537932250002086 0.43429408891060084 0.5603321934538348
0.2539810190000935 0.431362970200293 0.5613092330239375
0.25416868299998896 0.42940889106008795 0.567171470444553
0.25435695800024405 0.4323400097703958 0.5613092330239375
0.25454571399995984 0.4284318514899854 0.5603321934538348
0.2547333779998553 0.4264777723497801 0.5642403517342451
0.25492274599992015 0.42452369320957506 0.5652173913043479
0.25511135399983687 0.4255007327796776 0.5622862725940401
0.2552997040002083 0.4284318514899854 0.5613092330239375
0.2554877379998288 0.4264777723497801 0.5593551538837322
0.2556765130002532 0.4284318514899854 0.5564240351734244
0.2558646590000535 0.4303859306301905 0.5554469956033219
0.25605278600005477 0.42940889106008795 0.5515388373229115
0.2562407830000666 0.4303859306301905 0.5486077186126037
0.2564293360001102 0.4303859306301905 0.5466536394723986
0.2566174809999211 0.431362970200293 0.533952125061065
0.25680579400022907 0.4284318514899854 0.5388373229115779
0.25699493899992376 0.42940889106008795 0.533952125061065
0.25718314000005194 0.4284318514899854 0.5329750854909623
0.25737108200019065 0.4264777723497801 0.5290669272105519
0.2575589680000121 0.42745481191988266 0.5192965315095261
0.2577467800001614 0.42940889106008795 0.5105031753786029
0.257935333000205 0.4333170493404983 0.49682462139716654
0.25812305299996297 0.4382022471910112 0.48216902784562765
0.2583116609998797 0.4382022471910112 0.4684904738641915
0.25849973300000784 0.43917928676111373 0.4606741573033708
0.258688156000062 0.441133365901319 0.44992672203224227
0.25887698699989414 0.44211040547142155 0.4382022471910112
0.25906583599999067 0.44406448461162684 0.42940889106008795
0.2592546300002141 0.4479726428920372 0.4264777723497801
0.25944279399982406 0.4479726428920372 0.42159257449926724
0.2596310130002166 0.44699560332193444 0.4186614557889594
0.25981877000003806 0.4528578407425501 0.4206155349291647
0.26000697100016623 0.44699560332193444 0.4206155349291647
0.260197079000136 0.4509037616023448 0.4176844162188569
0.2603853169998729 0.4509037616023448 0.4186614557889594
0.2605731849998847 0.4557889594528579 0.4176844162188569
0.26076177499999176 0.4557889594528579 0.412799218368344
0.26095808699983536 0.4557889594528579 0.4049829018075233
0.2611464920000799 0.45676599902296044 0.39423546653639474
0.26133452600015517 0.46458231558378116 0.38739618954567656
0.2615229680000084 0.4636052760136786 0.3805569125549584
0.2617110579999462 0.467513434294089 0.3786028334147533
0.2618996659998629 0.47239863214460187 0.38153395212506114
0.26208729300014966 0.46946751343429405 0.376648754274548
0.26227564300006634 0.4733756717147044 0.3707865168539326
0.26246347300002526 0.47435271128480694 0.3659013190034197
0.2626522850000583 0.47435271128480694 0.3659013190034197
0.2628410420002183 0.47239863214460187 0.36687835857352225
0.26302987300005043 0.47239863214460187 0.3639472398632144
0.26321825900004114 0.47239863214460187 0.3639472398632144
0.2634068299998944 0.47239863214460187 0.36199316072300936
0.26359573499985345 0.47142159257449934 0.3551538837322912
0.2637832509999498 0.4704445530043966 0.348314606741573
0.2639716190001309 0.4704445530043966 0.348314606741573
0.26415928300002633 0.47142159257449934 0.3414753297508548
0.2643476130001545 0.47142159257449934 0.33756717147044446
0.26453585199988083 0.47435271128480694 0.33463605276013686
0.2647230339998714 0.4753297508549097 0.3277967757694187
0.264911679999841 0.47923790913532005 0.3229115779189058
0.26510043600001154 0.4753297508549097 0.3209574987787005
0.26528830400002334 0.4753297508549097 0.3160723009281876
0.2654763750001621 0.4782608695652173 0.3160723009281876
0.26566416900004697 0.47239863214460187 0.31704934049829014
0.26585227700024916 0.47239863214460187 0.31998045920859797
0.2660400899999331 0.4733756717147044 0.3258426966292134
0.2662282169999344 0.47435271128480694 0.3385442110405472
0.26641625100000965 0.4763067904250122 0.3502686858817783
0.2666044890002013 0.4753297508549097 0.3659013190034197
0.26679289399999107 0.47728382999511476 0.37469467513434296
0.26698352099992917 0.4763067904250122 0.3805569125549584
0.26717157400025826 0.48216902784562765 0.3854421104054715
0.26735971900006916 0.4782608695652173 0.3834880312652662
0.2675479570002608 0.4763067904250122 0.3834880312652662
0.26773628799992366 0.47923790913532005 0.3854421104054715
0.2679244519999884 0.4753297508549097 0.3903273082559844
0.2681125419999262 0.4704445530043966 0.39716658524670256
0.2683003360002658 0.4665363947239862 0.40693698094772834
0.2684885180001402 0.4665363947239862 0.42452369320957506
0.2686768859998665 0.4606741573033708 0.4401563263312165
0.26886647599985736 0.4587200781631655 0.4538348803126526
0.26905458400005955 0.4557889594528579 0.467513434294089
0.2692423220000819 0.45481191988275516 0.47239863214460187
0.2694300419998399 0.45481191988275516 0.47923790913532005
0.26961852100021133 0.45481191988275516 0.4802149487054226
0.2698069250000117 0.4557889594528579 0.4811919882755251
0.2699944040000446 0.45969711773326827 0.4782608695652173
0.27018225400024676 0.45481191988275516 0.47239863214460187
0.2703704179998567 0.45676599902296044 0.47142159257449934
0.2705589150000378 0.4538348803126526 0.4655593551538837
0.2707480970002507 0.4509037616023448 0.4655593551538837
0.2709362800001145 0.44894968246213973 0.4733756717147044
0.2711243510002532 0.4460185637518319 0.486077186126038
0.27131288600003245 0.4430874450415241 0.5065950170981925
0.27150088300004427 0.441133365901319 0.524181729360039
0.2716885469999397 0.4401563263312165 0.5398143624816805
0.2718775260000257 0.4382022471910112 0.5486077186126037
0.27206572700015386 0.43917928676111373 0.5603321934538348
0.27225398400014456 0.43917928676111373 0.5642403517342451
0.2724422770002093 0.4382022471910112 0.5622862725940401
0.27262992299984035 0.4460185637518319 0.5642403517342451
0.27281780900011654 0.4401563263312165 0.5593551538837322
0.2730071770001814 0.4401563263312165 0.5554469956033219
0.27319435900017197 0.4382022471910112 0.550561797752809
0.2733829680000781 0.43917928676111373 0.5495847581827065
0.27357120600026974 0.4382022471910112 0.5476306790425012
0.2737598510002499 0.43917928676111373 0.5495847581827065
0.2739481080002406 0.43429408891060084 0.5486077186126037
0.2741367899998295 0.4303859306301905 0.550561797752809
0.27432493600008456 0.4303859306301905 0.5534929164631168
0.2745127670000329 0.4255007327796776 0.5574010747435272
0.27470089400003417 0.4264777723497801 0.5603321934538348
0.27488883500018346 0.4264777723497801 0.5661944308744504
0.2750775180002165 0.4255007327796776 0.5661944308744504
0.27526627499992173 0.42940889106008795 0.5661944308744504
0.2754549199999019 0.42256961406936977 0.5632633121641426
0.27564362100019935 0.4255007327796776 0.5564240351734244
0.2758313409999573 0.4264777723497801 0.550561797752809
0.27601989400000093 0.4255007327796776 0.5398143624816805
0.27620835400011856 0.42452369320957506 0.533952125061065
0.27639649899992946 0.4255007327796776 0.5251587689301416
0.27658494100023745 0.4264777723497801 0.5173424523693209
0.27677369799994267 0.42452369320957506 0.5163654127992183
0.2769633430002614 0.42452369320957506 0.5183194919394236
0.2771524889999455 0.42256961406936977 0.5212506106497312
0.2773403380001582 0.42256961406936977 0.5271128480703469
0.2775283720002335 0.4235466536394723 0.5271128480703469
0.2777166850000867 0.4255007327796776 0.5261358085002443
0.27790446000017255 0.4264777723497801 0.522227650219834
0.2780920129998776 0.4284318514899854 0.512457254518808
0.27828052799986835 0.431362970200293 0.5046409379579873
0.2784689149998485 0.4323400097703958 0.4929164631167562
0.2786579309999979 0.4333170493404983 0.4733756717147044
0.27884653899991463 0.4382022471910112 0.46262823644357587
0.27903477700010626 0.4382022471910112 0.44894968246213973
0.2792226820001815 0.4382022471910112 0.44211040547142155
0.27941067900019334 0.44406448461162684 0.4352711284807034
0.27959899100005714 0.44406448461162684 0.4333170493404983
0.27978746999997384 0.44406448461162684 0.43624816805080613
0.279975764000028 0.4430874450415241 0.4401563263312165
0.28016394599990235 0.441133365901319 0.4479726428920372
0.28035236999994595 0.4401563263312165 0.45188080117244755
0.28054053400001067 0.44406448461162684 0.45676599902296044
0.2807287529999485 0.4450415241817294 0.45676599902296044
0.2809177509998335 0.4479726428920372 0.4528578407425501
0.2811072290000993 0.4509037616023448 0.44406448461162684
0.2812961340000584 0.4528578407425501 0.4303859306301905
0.28148492799982705 0.457743038593063 0.4176844162188569
0.28167386999984956 0.46165119687347334 0.40693698094772834
0.28186227400010466 0.4606741573033708 0.39716658524670256
0.28205047500023284 0.4636052760136786 0.3883732291157791
0.28223893599988514 0.46262823644357587 0.3786028334147533
0.2824270810001508 0.46262823644357587 0.3737176355642404
0.2826154859999406 0.46458231558378116 0.36980947728383007
0.2828036500000053 0.46458231558378116 0.3629702002931119
0.2829921100001229 0.46262823644357587 0.3610161211529066
0.2831802189998598 0.46262823644357587 0.36003908158280407
0.2833687160000409 0.46262823644357587 0.358085002442599
0.28355741699988357 0.4636052760136786 0.3561309233023937
0.2837452660000963 0.4636052760136786 0.34929164631167553
0.2839336900001399 0.4655593551538837 0.33952125061064975
0.2841213910000988 0.467513434294089 0.33463605276013686
0.28430861000015284 0.467513434294089 0.3238886174890083
0.2844966259999637 0.4665363947239862 0.3150952613580851
0.28468427200004953 0.4684904738641915 0.3063019052271616
0.2848733800001355 0.47142159257449934 0.29946262823644365
0.2850619330001791 0.47142159257449934 0.293600390815828
0.2852506340000218 0.47239863214460187 0.2906692721055202
0.2854385020000336 0.4763067904250122 0.2808988764044944
0.285626461999982 0.47435271128480694 0.27503663898387876
0.28581388500015237 0.4753297508549097 0.27503663898387876
0.28600192000021707 0.4753297508549097 0.2779677576941866
0.28618910200020764 0.4753297508549097 0.2867611138251098
0.28637713700027234 0.4753297508549097 0.30239374694675125
0.28656583800011504 0.4753297508549097 0.31704934049829014
0.2867537980000634 0.47435271128480694 0.33170493404982904
0.2869417770002656 0.47923790913532005 0.348314606741573
0.28712995900013993 0.47923790913532005 0.3610161211529066
0.2873178459999508 0.48705422569614076 0.36687835857352225
0.28750591700008954 0.4782608695652173 0.3756717147044455
0.28769337699986863 0.4733756717147044 0.39228138739618945
0.287880892999965 0.47435271128480694 0.4059599413776258
0.28806950199987114 0.47239863214460187 0.4206155349291647
0.2882574810000733 0.47239863214460187 0.4352711284807034
0.2884452369999053 0.46946751343429405 0.44699560332193444
0.2886327159999382 0.4684904738641915 0.46165119687347334
0.28882034300022497 0.46165119687347334 0.47239863214460187
0.2890096179999091 0.46165119687347334 0.4831460674157304
0.2891977270001007 0.45969711773326827 0.4929164631167562
0.2893856870000491 0.45969711773326827 0.49682462139716654
0.2895741289999023 0.45969711773326827 0.4978016609672691
0.28976227400016796 0.45676599902296044 0.4948705422569615
0.2899510490001376 0.45676599902296044 0.4948705422569615
0.2901384360002339 0.4557889594528579 0.48998534440644836
0.2903276370002459 0.4587200781631655 0.48705422569614076
0.2905160599998453 0.4636052760136786 0.48705422569614076
0.29070366799987823 0.4538348803126526 0.4880312652662433
0.29089131399996404 0.4509037616023448 0.4929164631167562
0.29107901499992295 0.44406448461162684 0.5095261358085001
0.2912671419999242 0.4430874450415241 0.5173424523693209
0.29145538000011584 0.44211040547142155 0.5300439667806547
0.29164369199997964 0.441133365901319 0.5398143624816805
0.2918323009998858 0.43722520762090866 0.5486077186126037
0.2920199089999187 0.44211040547142155 0.5564240351734244
0.29220790699991994 0.43917928676111373 0.5642403517342451
0.2923970520000694 0.4352711284807034 0.5720566682950659
0.29258501200001774 0.43722520762090866 0.5749877870053737
0.2927731949998815 0.43429408891060084 0.576941866145579
0.2929624140001579 0.431362970200293 0.578895945285784
0.29315098600000056 0.4352711284807034 0.576941866145579
0.29333874199983256 0.4333170493404983 0.576941866145579
0.29352672100003474 0.43429408891060084 0.5759648265754762
0.29371447799985617 0.43429408891060084 0.576941866145579
0.2939026600001853 0.4333170493404983 0.5749877870053737
0.2940902499999538 0.4303859306301905 0.5759648265754762
0.29427769199992326 0.431362970200293 0.5720566682950659
0.29446652300021015 0.4284318514899854 0.5720566682950659
0.2946549650000634 0.42745481191988266 0.5749877870053737
0.2948430360002021 0.42745481191988266 0.5749877870053737
0.29503103300021394 0.4284318514899854 0.5749877870053737
0.2952190679998239 0.4284318514899854 0.5759648265754762
0.29540704700002607 0.4255007327796776 0.576941866145579
0.29559476600024936 0.4255007327796776 0.578895945285784
0.29578239300008136 0.4264777723497801 0.5779189057156815
0.2959700760002306 0.42745481191988266 0.5740107474352711
0.29615849899983004 0.42745481191988266 0.5740107474352711
0.2963462000002437 0.4255007327796776 0.576941866145579
0.2965338270000757 0.42940889106008795 0.5759648265754762
0.2967216759998337 0.4264777723497801 0.5740107474352711
0.2969101550002051 0.42452369320957506 0.576941866145579
0.2970988749998469 0.4255007327796776 0.5808500244259893
0.29728683500025 0.4255007327796776 0.5730337078651686
0.29747562900001867 0.4255007327796776 0.5642403517342451
0.2976627190000727 0.4264777723497801 0.5544699560332194
0.29785090099994704 0.4303859306301905 0.5427454811919883
0.29803952800011757 0.431362970200293 0.5310210063507572
0.2982279699999708 0.43429408891060084 0.5163654127992183
0.2984158379999826 0.43624816805080613 0.49975574010747437
0.298604019999857 0.4382022471910112 0.48216902784562765
0.2987918879998688 0.43917928676111373 0.4665363947239862
0.2989819780000289 0.441133365901319 0.45188080117244755
0.29917038300027343 0.44211040547142155 0.4430874450415241
0.2993587129999469 0.44211040547142155 0.4352711284807034
0.2995467480000116 0.44406448461162684 0.4352711284807034
0.2997355779998543 0.4430874450415241 0.4333170493404983
0.29992348299992955 0.4430874450415241 0.43624816805080613
0.3001113880000048 0.44699560332193444 0.431362970200293
0.3002991070002281 0.44992672203224227 0.4284318514899854
0.30048664200012354 0.4479726428920372 0.4206155349291647
0.30067480600018825 0.4460185637518319 0.4108451392281387
0.30086372899995695 0.44699560332193444 0.3913043478260869
0.30105144900016967 0.45188080117244755 0.3610161211529066
0.3012391500001286 0.45481191988275516 0.3287738153395212
0.3014270920002673 0.45481191988275516 0.29946262823644365
0.30161510700008876 0.457743038593063 0.2760136785539815
0.3018032529998891 0.4606741573033708 0.25940400586223733
0.3019914169999538 0.4655593551538837 0.25647288715192973
0.30217930300023 0.46262823644357587 0.25451880801172444
0.3023674860000938 0.46458231558378116 0.25647288715192973
0.30255572399983066 0.46458231558378116 0.26722032242305804
0.3027436470001703 0.4655593551538837 0.27992183683439187
0.30293181100023503 0.4665363947239862 0.2955544699560333
0.3031194750001305 0.467513434294089 0.31216414264777725
0.30330688000003647 0.4684904738641915 0.32486565705911086
0.3034942660001434 0.46946751343429405 0.33756717147044446
0.30368148600018685 0.4704445530043966 0.3424523693209576
0.3038696869998603 0.4782608695652173 0.348314606741573
0.30405711000003066 0.4733756717147044 0.34636052760136793
0.3042438850002327 0.47239863214460187 0.34440644846116264
0.3044311970002127 0.4763067904250122 0.3365901319003419
0.30461862099991777 0.47728382999511476 0.32681973619931615
0.3048065630000565 0.4802149487054226 0.3180263800683927
0.3049970410002061 0.47923790913532005 0.31998045920859797
0.3051854830000593 0.4782608695652173 0.3209574987787005
0.30537353599993367 0.4782608695652173 0.3287738153395212
0.30556173700006184 0.4753297508549097 0.33952125061064975
0.30574921600009475 0.47728382999511476 0.3414753297508548
0.30593747300008545 0.4782608695652173 0.3512457254518808
0.3061254879999069 0.4782608695652173 0.36199316072300936
0.30631331899985526 0.47728382999511476 0.37274059599413767
0.30650142800004687 0.47728382999511476 0.3834880312652662
0.30668907300014325 0.4782608695652173 0.39423546653639474
0.30687694100015506 0.4753297508549097 0.4049829018075233
0.30706534599994484 0.4753297508549097 0.40693698094772834
0.30725358400013647 0.4753297508549097 0.41182217879824123
0.307441395999831 0.4811919882755251 0.41670737664875435
0.3076295040000332 0.47239863214460187 0.41963849535906195
0.3078170389999286 0.4733756717147044 0.4255007327796776
0.3080047029998241 0.4704445530043966 0.4284318514899854
0.308192310999857 0.4684904738641915 0.43624816805080613
0.3083803459999217 0.46458231558378116 0.44699560332193444
0.308568287000071 0.45969711773326827 0.44894968246213973
0.3087559880000299 0.46262823644357587 0.45969711773326827
0.3089564860001701 0.45676599902296044 0.4665363947239862
0.30914214999984324 0.45676599902296044 0.47435271128480694
0.3093277580001086 0.45676599902296044 0.47435271128480694
0.30951340399997207 0.4557889594528579 0.47435271128480694
0.30969884600017394 0.4557889594528579 0.47435271128480694
0.3098841209998682 0.4557889594528579 0.47435271128480694
0.3100691370000277 0.45676599902296044 0.47435271128480694
0.31025485600002867 0.4538348803126526 0.4704445530043966
0.31044042800022 0.45676599902296044 0.46458231558378116
0.3106260360000306 0.4557889594528579 0.46165119687347334
0.31081186700021135 0.4538348803126526 0.4684904738641915
0.3109977720000643 0.45188080117244755 0.4733756717147044
0.3111840649999067 0.4460185637518319 0.48705422569614076
0.31136952599990764 0.4450415241817294 0.49877870053737183
0.31155446799994024 0.441133365901319 0.5134342940889105
0.31174020600019503 0.441133365901319 0.5212506106497312
0.31192531399983636 0.4401563263312165 0.5310210063507572
0.3121100890002708 0.43917928676111373 0.540791402051783
0.3122956610000074 0.441133365901319 0.550561797752809
0.312480381000114 0.43917928676111373 0.5525158768930141
0.3126652669998293 0.43917928676111373 0.5564240351734244
0.3128609680002228 0.44211040547142155 0.5574010747435272
0.3130495020000126 0.43917928676111373 0.5574010747435272
0.3132378330001302 0.43722520762090866 0.5515388373229115
0.3134256819998882 0.43722520762090866 0.5437225207620908
0.3136142530001962 0.4352711284807034 0.5417684416218858
0.3138020100000176 0.4303859306301905 0.5476306790425012
0.31399052599999777 0.4303859306301905 0.5437225207620908
0.31417902300017886 0.4284318514899854 0.5486077186126037
0.3143671689999792 0.4264777723497801 0.550561797752809
0.31455551799990644 0.4235466536394723 0.5544699560332194
0.3147434779998548 0.42452369320957506 0.5564240351734244
0.31493188300009933 0.42745481191988266 0.5613092330239375
0.3151203060001535 0.431362970200293 0.5603321934538348
0.31530869300013364 0.4235466536394723 0.5613092330239375
0.3154974310000398 0.42452369320957506 0.5593551538837322
0.3156850760001362 0.42452369320957506 0.5564240351734244
0.3158728329999576 0.4235466536394723 0.5554469956033219
0.31606082999996943 0.4255007327796776 0.5515388373229115
0.3162488090001716 0.4284318514899854 0.5486077186126037
0.31643656599999304 0.42745481191988266 0.5476306790425012
0.31662445200026923 0.4323400097703958 0.5437225207620908
0.31681265299994266 0.42940889106008795 0.5456765999022961
0.31700220599987006 0.4284318514899854 0.5456765999022961
0.3171901109999453 0.4284318514899854 0.5495847581827065
0.3173774780002532 0.4255007327796776 0.5495847581827065
0.3175653829998737 0.4264777723497801 0.5466536394723986
0.31775334299982205 0.42745481191988266 0.5378602833414754
0.3179408040000453 0.42940889106008795 0.5319980459208598
0.3181290600000466 0.4323400097703958 0.5192965315095261
0.31831705800004784 0.4352711284807034 0.5105031753786029
0.31850561100009145 0.441133365901319 0.5026868588177822
0.31869332999986 0.4401563263312165 0.4909623839765511
0.31888186500009397 0.44211040547142155 0.48216902784562765
0.3190695289999894 0.44699560332193444 0.4763067904250122
0.3192580260001705 0.4460185637518319 0.467513434294089
0.3194456710002669 0.4450415241817294 0.4606741573033708
0.3196329649999825 0.4509037616023448 0.45676599902296044
0.3198209990000578 0.441133365901319 0.4479726428920372
0.32000946000016484 0.44406448461162684 0.4382022471910112
0.32019691999994393 0.44699560332193444 0.4264777723497801
0.32038423199992394 0.4401563263312165 0.4186614557889594
0.32057139600010487 0.43917928676111373 0.4108451392281387
0.3207589859998734 0.43917928676111373 0.39912066438690763
0.3209556319998228 0.44211040547142155 0.38446507083536874
0.3211441100002048 0.4460185637518319 0.3737176355642404
0.32133242300005804 0.44992672203224227 0.35710796287249624
0.32151997600021787 0.4538348803126526 0.34636052760136793
0.3217078620000393 0.457743038593063 0.34636052760136793
0.32189661800020986 0.46262823644357587 0.34440644846116264
0.32208468999988327 0.4636052760136786 0.3404982901807523
0.322272761000022 0.46946751343429405 0.33952125061064975
0.32246081399989635 0.4704445530043966 0.33952125061064975
0.32264881099990816 0.4733756717147044 0.3434294088910601
0.3228367530000469 0.4733756717147044 0.34733756717147046
0.32302458399999523 0.47239863214460187 0.3512457254518808
0.32321250699988013 0.4733756717147044 0.3531998045920859
0.3234006530001352 0.47728382999511476 0.3551538837322912
0.32358837199990376 0.47728382999511476 0.3561309233023937
0.323776498999905 0.4753297508549097 0.3531998045920859
0.3239640890001283 0.47728382999511476 0.3502686858817783
0.32415275299990753 0.4763067904250122 0.348314606741573
0.3243404360000568 0.47728382999511476 0.3424523693209576
0.3245279890002166 0.4763067904250122 0.33756717147044446
0.32471550499985824 0.47728382999511476 0.32975085490962375
0.3249046690002615 0.47923790913532005 0.3277967757694187
0.32509318500024165 0.47923790913532005 0.3238886174890083
0.32528079300027457 0.4782608695652173 0.32681973619931615
0.3254686240002229 0.4753297508549097 0.32975085490962375
0.3256565470001078 0.47239863214460187 0.3356130923302394
0.32584487800022544 0.4684904738641915 0.3424523693209576
0.32603363399994123 0.4684904738641915 0.3512457254518808
0.32622113200022795 0.467513434294089 0.36003908158280407
0.326408906999859 0.4665363947239862 0.3678553981436248
0.3265971079999872 0.4655593551538837 0.376648754274548
0.3267850870001894 0.4636052760136786 0.3786028334147533
0.32697288000008484 0.46458231558378116 0.3854421104054715
0.3271607669998957 0.4684904738641915 0.3805569125549584
0.3273480970001401 0.4684904738641915 0.38641914997557403
0.3275356499998452 0.467513434294089 0.3903273082559844
0.32772377699984645 0.467513434294089 0.3961895456765998
0.32791142299993226 0.4665363947239862 0.40693698094772834
0.32809890099997574 0.4636052760136786 0.4157303370786516
0.3282865099999981 0.4655593551538837 0.4255007327796776
0.3284741920001579 0.4587200781631655 0.43624816805080613
0.3286619860000428 0.45969711773326827 0.4460185637518319
0.328857945999971 0.4557889594528579 0.4528578407425501
0.32904755500021565 0.4538348803126526 0.45969711773326827
0.32923545999983617 0.44894968246213973 0.46458231558378116
0.32942417899994325 0.45188080117244755 0.46165119687347334
0.32961199100009253 0.45188080117244755 0.46262823644357587
0.3297998960001678 0.4528578407425501 0.4557889594528579
0.32998733800013724 0.45188080117244755 0.45188080117244755
0.33017511300022306 0.4528578407425501 0.44894968246213973
0.3303631660000974 0.4587200781631655 0.44406448461162684
0.33055092299991884 0.4538348803126526 0.44406448461162684
0.3307394009998461 0.45481191988275516 0.4538348803126526
0.3309292130002177 0.4509037616023448 0.4684904738641915
0.3311175439998806 0.44894968246213973 0.48705422569614076
0.3313084860001254 0.4460185637518319 0.5007327796775769
0.3314983720001692 0.4460185637518319 0.5192965315095261
0.3316864439998426 0.45188080117244755 0.5319980459208598
0.33187381100015045 0.4450415241817294 0.5437225207620908
0.33207238300019526 0.44211040547142155 0.567171470444553
0.33251278399984585 0.44211040547142155 0.5710796287249633
0.33272596599999815 0.43917928676111373 0.5691255495847583
0.33295353699986663 0.44211040547142155 0.5710796287249633
0.3331785889999992 0.44211040547142155 0.5681485100146555
0.3334003270001631 0.4401563263312165 0.5730337078651686
0.3336306380001588 0.43722520762090866 0.5691255495847583
0.3338471719998779 0.4382022471910112 0.5808500244259893
0.33428611099998307 0.4352711284807034 0.5857352222765022
0.33448423800018645 0.4352711284807034 0.5896433805569126
0.33467677199996615 0.43429408891060084 0.6042989741084515
0.33486667700026373 0.4333170493404983 0.605276013678554
0.3350561550000748 0.431362970200293 0.6111382510991694
0.3352474120001716 0.43722520762090866 0.6150464093795798
0.33543714999996155 0.431362970200293 0.6130923302393747
0.3356259990000581 0.42940889106008795 0.6140693698094772
0.33581514500019694 0.42940889106008795 0.6091841719589643
0.3360042350000185 0.4303859306301905 0.6023448949682462
0.33619323199991413 0.431362970200293 0.58866634098681
0.3363817660001587 0.42940889106008795 0.5779189057156815
0.3365706710001177 0.4303859306301905 0.5603321934538348
0.33675911299997097 0.431362970200293 0.5446995603321934
0.3369787390001875 0.4284318514899854 0.5368832437713726
0.33716755200021 0.42940889106008795 0.5271128480703469
0.33735641900011615 0.42745481191988266 0.522227650219834
0.3375449909999588 0.4284318514899854 0.5144113336590133
0.3377337100000659 0.4323400097703958 0.5095261358085001
0.3379216890002681 0.431362970200293 0.5046409379579873
0.33810963099995206 0.43624816805080613 0.48900830483634583
0.33844823700019333 0.4382022471910112 0.48705422569614076
0.3386737159999029 0.441133365901319 0.46458231558378116
0.3388850269998329 0.441133365901319 0.4606741573033708
0.33907702499982406 0.4460185637518319 0.44699560332193444
0.3392665589999524 0.4460185637518319 0.43722520762090866
0.33945663099984813 0.4460185637518319 0.4284318514899854
0.3396465910000188 0.4479726428920372 0.4206155349291647
0.3398356990001048 0.4460185637518319 0.41475329750854906
0.3400246410001273 0.4450415241817294 0.4059599413776258
0.34021632400026647 0.44406448461162684 0.3952125061064973
0.3404060620000564 0.44699560332193444 0.3834880312652662
0.3405957810000473 0.44894968246213973 0.3737176355642404
0.3407851860001756 0.45188080117244755 0.35906204201270153
0.3409789050001564 0.45676599902296044 0.34733756717147046
0.3411685320002107 0.45676599902296044 0.33756717147044446
0.34135765900009574 0.45969711773326827 0.33170493404982904
0.34154676800017114 0.46458231558378116 0.33463605276013686
0.34173561700026767 0.4606741573033708 0.33463605276013686
0.34192446599990944 0.46262823644357587 0.3385442110405472
0.3421128340000905 0.46262823644357587 0.33756717147044446
0.3423009610000918 0.4655593551538837 0.3336590131900341
0.3424890689998392 0.4665363947239862 0.3307278944797265
0.3426770480000414 0.467513434294089 0.32681973619931615
0.3428661010002543 0.4665363947239862 0.3238886174890083
0.34305458000017097 0.467513434294089 0.32193453834880303
0.34324328100001367 0.4684904738641915 0.3238886174890083
0.3434322230000362 0.46946751343429405 0.32193453834880303
0.3436208309999529 0.4684904738641915 0.31900341963849543
0.34380919900013396 0.46946751343429405 0.31900341963849543
0.3439980480002305 0.4704445530043966 0.3141182217879823
0.3441864900000837 0.4733756717147044 0.3150952613580851
0.3443749690000004 0.47435271128480694 0.3160723009281876
0.3445629289999488 0.47435271128480694 0.3150952613580851
0.3447504820001086 0.47728382999511476 0.3160723009281876
0.3449582940002074 0.4802149487054226 0.31998045920859797
0.3451473469999655 0.47728382999511476 0.32681973619931615
0.3453348630000619 0.4782608695652173 0.32975085490962375
0.3455243230000633 0.47728382999511476 0.3365901319003419
0.34571250499993766 0.4782608695652173 0.3434294088910601
0.3459009100001822 0.4763067904250122 0.3502686858817783
0.3460900000000038 0.47728382999511476 0.3561309233023937
0.34627942299994174 0.4763067904250122 0.3610161211529066
0.34646792100011226 0.4763067904250122 0.3639472398632144
0.34665647400015587 0.4753297508549097 0.3639472398632144
0.3468449709998822 0.4763067904250122 0.3659013190034197
0.34703348699986236 0.4782608695652173 0.36492427943331696
0.3472212619999482 0.4763067904250122 0.3639472398632144
0.34741001900010815 0.47435271128480694 0.37274059599413767
0.34759857100016234 0.4753297508549097 0.37957987298485585
0.34778732799986756 0.46946751343429405 0.38641914997557403
0.3479769740001757 0.467513434294089 0.3952125061064973
0.3481660450001982 0.4665363947239862 0.4040058622374205
0.348354449999988 0.46458231558378116 0.4206155349291647
0.3485432249999576 0.4655593551538837 0.43429408891060084
0.3487317780000012 0.46165119687347334 0.44699560332193444
0.3489297380001517 0.4587200781631655 0.4606741573033708
0.34911855000018477 0.45969711773326827 0.467513434294089
0.3493069360001755 0.4587200781631655 0.4782608695652173
0.34949511900003927 0.45481191988275516 0.47923790913532005
0.34968370900014634 0.4557889594528579 0.48412310698583294
0.34987248400011595 0.45676599902296044 0.4909623839765511
0.35006072199985283 0.4557889594528579 0.4929164631167562
0.3502489970001079 0.45676599902296044 0.49877870053737183
0.3504373460000352 0.45676599902296044 0.5026868588177822
0.35062632500012114 0.45676599902296044 0.5085490962383976
0.35081524799988983 0.45188080117244755 0.5202735710796287
0.3510039309999229 0.4509037616023448 0.5290669272105519
0.35119276200020977 0.4479726428920372 0.5378602833414754
0.35138099999994665 0.4430874450415241 0.5456765999022961
0.3515702380000221 0.4450415241817294 0.5534929164631168
0.35175890200025606 0.4450415241817294 0.5534929164631168
0.35194782500002475 0.44406448461162684 0.5554469956033219
0.35213698899997325 0.44699560332193444 0.5564240351734244
0.35232513500022833 0.44406448461162684 0.5534929164631168
0.3525144840000394 0.4479726428920372 0.5534929164631168
0.352703166000083 0.44699560332193444 0.5486077186126037
0.35289292300012676 0.4460185637518319 0.5466536394723986
0.3530814390001069 0.44211040547142155 0.5398143624816805
0.35326938100024563 0.4479726428920372 0.5378602833414754
0.35345747100018343 0.4401563263312165 0.5349291646311676
0.35364544899994144 0.4401563263312165 0.5378602833414754
0.3538339649999216 0.4352711284807034 0.5446995603321934
0.3540226290001556 0.43624816805080613 0.5456765999022961
0.35421064499996646 0.4333170493404983 0.550561797752809
0.35439901300014753 0.42940889106008795 0.5534929164631168
0.3545875099998739 0.42745481191988266 0.5603321934538348
0.35477654499982236 0.4255007327796776 0.5730337078651686
0.35519829800023217 0.42745481191988266 0.5867122618466047
0.3555565890001162 0.4235466536394723 0.5915974596971176
0.3557591600001615 0.42452369320957506 0.5935515388373229
0.3559506579999834 0.42452369320957506 0.5964826575476307
0.3561408959999426 0.42452369320957506 0.5945285784074255
0.35633070799985944 0.42452369320957506 0.5896433805569126
0.3565217049999774 0.42452369320957506 0.5906204201270151
0.3567111840002326 0.4264777723497801 0.5867122618466047
0.3569030329999805 0.42159257449926724 0.5867122618466047
0.35709358600024643 0.42159257449926724 0.5876893014167073
0.3572826019999411 0.42256961406936977 0.5818270639960919
0.3574715439999636 0.42159257449926724 0.5749877870053737
0.3576608930002294 0.4235466536394723 0.5681485100146555
0.35785018600017793 0.4284318514899854 0.5574010747435272
0.35803951700017933 0.42940889106008795 0.5398143624816805
0.35822834800001147 0.43624816805080613 0.5290669272105519
0.35841767800002344 0.4333170493404983 0.5036638983878847
0.35860710199995083 0.43624816805080613 0.4811919882755251
0.35879572900012136 0.441133365901319 0.45676599902296044
0.3589840220001861 0.44211040547142155 0.4255007327796776
0.3591734639999231 0.4352711284807034 0.40205178309721545
0.3593625910002629 0.43624816805080613 0.38153395212506114
0.3595516810000845 0.4382022471910112 0.3659013190034197
0.3597404560000541 0.4382022471910112 0.35417684416218864
0.35992976800025644 0.43917928676111373 0.3531998045920859
0.36011908000000403 0.441133365901319 0.3561309233023937
0.3603075959999842 0.4401563263312165 0.3639472398632144
0.3604966860002605 0.441133365901319 0.3688324377137273
0.36068568400014556 0.4430874450415241 0.37274059599413767
0.36087558799999897 0.4479726428920372 0.37274059599413767
0.3610652150000533 0.44894968246213973 0.3678553981436248
0.36125450899999123 0.45188080117244755 0.3610161211529066
0.36144306200003484 0.4528578407425501 0.358085002442599
0.3616307259999303 0.457743038593063 0.3512457254518808
0.36181975999988936 0.45481191988275516 0.3414753297508548
0.3620078320000175 0.45969711773326827 0.3385442110405472
0.3621968110001035 0.4587200781631655 0.3336590131900341
0.36238521499990384 0.46165119687347334 0.3307278944797265
0.3625734900001589 0.46262823644357587 0.3277967757694187
0.36276243200018143 0.4606741573033708 0.3258426966292134
0.3629507260002356 0.46165119687347334 0.3229115779189058
0.36313916800008883 0.46165119687347334 0.3229115779189058
0.36332723900022756 0.46262823644357587 0.3209574987787005
0.3635152729998481 0.4636052760136786 0.3209574987787005
0.3637039370000821 0.46458231558378116 0.31900341963849543
0.3638921010001468 0.4655593551538837 0.3209574987787005
0.364084246999937 0.467513434294089 0.3229115779189058
0.36427287400010755 0.46946751343429405 0.32486565705911086
0.36446587099999306 0.47435271128480694 0.3229115779189058
0.36465531300018483 0.4704445530043966 0.3287738153395212
0.3648588659998495 0.4753297508549097 0.3277967757694187
0.3650508999999147 0.47923790913532005 0.33170493404982904
0.36523932299996886 0.47728382999511476 0.3365901319003419
0.36542808000012883 0.4802149487054226 0.34440644846116264
0.3656159289998868 0.4782608695652173 0.34929164631167553
0.3658045000001948 0.47923790913532005 0.36003908158280407
0.36599266400025954 0.4811919882755251 0.36492427943331696
0.36618095799985895 0.4831460674157304 0.3737176355642404
0.3663690480002515 0.48412310698583294 0.3805569125549584
0.36655749000010474 0.4802149487054226 0.3883732291157791
0.3667465980001907 0.48412310698583294 0.3932584269662922
0.3669355400002132 0.47923790913532005 0.3932584269662922
0.36712409300025683 0.4782608695652173 0.39228138739618945
0.3673125529999197 0.4802149487054226 0.3961895456765998
0.3675005320001219 0.4831460674157304 0.40205178309721545
0.36768858499999624 0.4753297508549097 0.40889106008793363
0.36787728599983893 0.47728382999511476 0.4176844162188569
0.36806591300000946 0.47435271128480694 0.42940889106008795
0.36825441000019055 0.47435271128480694 0.4460185637518319
0.36844287099984285 0.4684904738641915 0.4636052760136786
0.36863092400017194 0.46262823644357587 0.47728382999511476
0.3688191800001732 0.4606741573033708 0.4929164631167562
0.36900699199986775 0.4587200781631655 0.5075720566682951
0.3691948420000699 0.457743038593063 0.5183194919394236
0.3693828579998808 0.4606741573033708 0.5271128480703469
0.3695706329999666 0.45969711773326827 0.5280898876404494
0.3697591109998939 0.45481191988275516 0.5251587689301416
0.3699469240000326 0.4528578407425501 0.5144113336590133
0.3701355880002666 0.45481191988275516 0.5056179775280898
0.3703240290001304 0.45188080117244755 0.495847581827064
0.370512582000174 0.45481191988275516 0.4880312652662433
0.3707010060002176 0.4509037616023448 0.48705422569614076
0.3708897070000603 0.45188080117244755 0.486077186126038
0.37107805599998755 0.4460185637518319 0.49193942354665365
0.3712659980001263 0.4479726428920372 0.4948705422569615
0.3714544949998526 0.43917928676111373 0.4978016609672691
0.3716430479998962 0.4382022471910112 0.5026868588177822
0.3718316190002042 0.441133365901319 0.5085490962383976
0.3720201910000469 0.4352711284807034 0.5134342940889105
0.37220885499982614 0.43624816805080613 0.5232046897899365
0.372398129999965 0.43722520762090866 0.5300439667806547
0.3725873120001779 0.43429408891060084 0.533952125061065
0.37277567999990424 0.4352711284807034 0.5398143624816805
0.37296484399985275 0.4352711284807034 0.5417684416218858
0.3731537120002031 0.43429408891060084 0.5417684416218858
0.3733424309998554 0.431362970200293 0.5437225207620908
0.37353131800000483 0.4333170493404983 0.5495847581827065
0.3737195930002599 0.43429408891060084 0.5515388373229115
0.37390825700003916 0.441133365901319 0.5525158768930141
0.3740972360001251 0.43624816805080613 0.5534929164631168
0.37428573299985146 0.4401563263312165 0.5456765999022961
0.37447469300013836 0.43722520762090866 0.5398143624816805
0.3746631540002454 0.43722520762090866 0.5310210063507572
0.37485205800021504 0.43624816805080613 0.522227650219834
0.3750402410000788 0.4352711284807034 0.5173424523693209
0.37522907199991096 0.4352711284807034 0.5183194919394236
0.37541767999982767 0.4323400097703958 0.5183194919394236
0.37560571399990295 0.43722520762090866 0.524181729360039
0.3757939150000311 0.4323400097703958 0.5300439667806547
0.37598309800023344 0.4323400097703958 0.533952125061065
0.3761721139999281 0.4333170493404983 0.5398143624816805
0.3763608330000352 0.4323400097703958 0.5456765999022961
0.3765497750000577 0.4323400097703958 0.5515388373229115
0.3767383469999004 0.431362970200293 0.5544699560332194
0.37693645499984996 0.42745481191988266 0.5564240351734244
0.37712539699987246 0.4284318514899854 0.5574010747435272
0.37731361600026503 0.4264777723497801 0.550561797752809
0.37750129899995954 0.4303859306301905 0.5349291646311676
0.37768974100026753 0.4303859306301905 0.5173424523693209
0.37787760799983516 0.4333170493404983 0.49975574010747437
0.3780663090001326 0.43429408891060084 0.4802149487054226
0.3782545100002608 0.4401563263312165 0.46458231558378116
0.3784428970002409 0.4382022471910112 0.4509037616023448
0.3786313010000413 0.44211040547142155 0.44406448461162684
0.37881965099995796 0.44211040547142155 0.4382022471910112
0.3790080919998218 0.4450415241817294 0.4401563263312165
0.37919592300022487 0.4460185637518319 0.4382022471910112
0.37938464299986663 0.44699560332193444 0.43917928676111373
0.3795732879998468 0.4479726428920372 0.4382022471910112
0.37976148899997497 0.4509037616023448 0.4401563263312165
0.3799497089999022 0.44992672203224227 0.42745481191988266
0.380137576999914 0.44894968246213973 0.4206155349291647
0.38032618499983073 0.4538348803126526 0.40693698094772834
0.38051481200000126 0.4528578407425501 0.39228138739618945
0.3807031060000554 0.44894968246213973 0.3756717147044455
0.38089286200010974 0.4538348803126526 0.36003908158280407
0.3810809709998466 0.45676599902296044 0.34636052760136793
0.3812706160001653 0.4587200781631655 0.3424523693209576
0.381462799000019 0.45969711773326827 0.33268197361993157
0.381652129000031 0.4636052760136786 0.32975085490962375
0.38184108999985256 0.4684904738641915 0.33170493404982904
0.38202914300018165 0.4655593551538837 0.3287738153395212
0.38221738099991853 0.46458231558378116 0.3287738153395212
0.3824053409998669 0.4665363947239862 0.3258426966292134
0.3825930610000796 0.4655593551538837 0.32486565705911086
0.38278135400014435 0.4684904738641915 0.3258426966292134
0.38297000000011394 0.4655593551538837 0.32486565705911086
0.3831588860002739 0.46262823644357587 0.3258426966292134
0.38334749400019064 0.46458231558378116 0.3258426966292134
0.3835366210000757 0.4655593551538837 0.32975085490962375
0.38372502599986547 0.4665363947239862 0.3365901319003419
0.3839133569999831 0.46946751343429405 0.3424523693209576
0.3841021130001536 0.4704445530043966 0.3502686858817783
0.3842907590001232 0.47239863214460187 0.358085002442599
0.3844787749999341 0.4753297508549097 0.35710796287249624
0.3846669389999988 0.47923790913532005 0.3561309233023937
0.38486723200003325 0.4811919882755251 0.35417684416218864
0.38505534100022487 0.4802149487054226 0.3551538837322912
0.3852439120000781 0.4811919882755251 0.3512457254518808
0.38543237200019576 0.4782608695652173 0.3531998045920859
0.3856213700000808 0.47923790913532005 0.3551538837322912
0.38580971900000804 0.4753297508549097 0.36003908158280407
0.38599851300023147 0.4782608695652173 0.36687835857352225
0.3861871210001482 0.4763067904250122 0.37176355642403514
0.3863759519999803 0.4704445530043966 0.37469467513434296
0.3865641530001085 0.4753297508549097 0.3854421104054715
0.38675340899999355 0.4753297508549097 0.38251099169516367
0.38694205499996315 0.47435271128480694 0.38446507083536874
0.38713123700017604 0.47728382999511476 0.38446507083536874
0.38732049400005053 0.4763067904250122 0.3913043478260869
0.38750934300014706 0.47142159257449934 0.40009770395701016
0.3876977109998734 0.4782608695652173 0.412799218368344
0.38788581900007557 0.47435271128480694 0.41963849535906195
0.3880738170000768 0.47142159257449934 0.43429408891060084
0.388262147000205 0.4665363947239862 0.4509037616023448
0.3884497190001639 0.4655593551538837 0.46946751343429405
0.388638438000271 0.46165119687347334 0.486077186126038
0.3888275099998282 0.46262823644357587 0.5007327796775769
0.389025674000095 0.4587200781631655 0.5134342940889105
0.38921469000024445 0.4587200781631655 0.5212506106497312
0.3894036500000766 0.4557889594528579 0.5280898876404494
0.3895921289999933 0.45481191988275516 0.5329750854909623
0.3897806260001744 0.45676599902296044 0.5349291646311676
0.38996858600012274 0.457743038593063 0.5359062042012701
0.39015730600021925 0.4587200781631655 0.5368832437713726
0.3903456369998821 0.45969711773326827 0.5329750854909623
0.39053356000022177 0.4606741573033708 0.5310210063507572
0.3907219279999481 0.4636052760136786 0.533952125061065
0.39091040599987537 0.4587200781631655 0.5310210063507572
0.3910990330000459 0.45188080117244755 0.533952125061065
0.39128779000020586 0.4479726428920372 0.5359062042012701
0.39147586099988985 0.4450415241817294 0.5388373229115779
0.39166467399991234 0.44211040547142155 0.5378602833414754
0.39185322699995595 0.44406448461162684 0.540791402051783
0.39204222399985156 0.44406448461162684 0.5476306790425012
0.39223057300023356 0.43917928676111373 0.5427454811919883
0.39241897800002334 0.4382022471910112 0.5456765999022961
0.39260673399985535 0.43722520762090866 0.5476306790425012
0.3927946580001844 0.43624816805080613 0.5476306790425012
0.3929838029998791 0.4382022471910112 0.5456765999022961
0.3931720230002611 0.43917928676111373 0.5456765999022961
0.3933607240001038 0.44211040547142155 0.5417684416218858
0.3935495730002003 0.4352711284807034 0.5329750854909623
0.3937377180000112 0.4333170493404983 0.5251587689301416
0.3939264569999068 0.42940889106008795 0.512457254518808
0.3941149540000879 0.42745481191988266 0.5017098192476794
0.39430347000006805 0.4284318514899854 0.5046409379579873
0.3944918930001222 0.4235466536394723 0.5065950170981925
0.39468027900011293 0.42452369320957506 0.512457254518808
0.39486783200027276 0.4255007327796776 0.5192965315095261
0.39505651499985106 0.4206155349291647 0.5280898876404494
0.395245382000212 0.41963849535906195 0.5290669272105519
0.39543458400021336 0.4235466536394723 0.5329750854909623
0.39562313600026755 0.42159257449926724 0.5359062042012701
0.39581170800011023 0.41963849535906195 0.5329750854909623
0.39599998299991057 0.4255007327796776 0.5329750854909623
0.3961890730001869 0.4264777723497801 0.5251587689301416
0.3963770889999978 0.4303859306301905 0.5183194919394236
0.39656775299999936 0.4284318514899854 0.5153883732291158
0.39675680600021224 0.431362970200293 0.5105031753786029
0.39695539500007726 0.4303859306301905 0.5095261358085001
0.3971440780001103 0.431362970200293 0.5114802149487054
0.397332557000027 0.4303859306301905 0.5095261358085001
0.397520312999859 0.4323400097703958 0.5144113336590133
0.39770871800010354 0.4333170493404983 0.5095261358085001
0.39789634499993554 0.43624816805080613 0.5026868588177822
0.3980843980002646 0.4401563263312165 0.5026868588177822
0.3982727470001919 0.4401563263312165 0.48998534440644836
0.3984605040000133 0.44406448461162684 0.47923790913532005
0.3986482979998982 0.4450415241817294 0.4684904738641915
0.3988371650002591 0.44406448461162684 0.45969711773326827
0.3990254770001229 0.44699560332193444 0.45481191988275516
0.39921323399994435 0.44699560332193444 0.4509037616023448
0.39940110199995615 0.4479726428920372 0.4450415241817294
0.3995893950000209 0.4479726428920372 0.43722520762090866
0.39977724500022305 0.4479726428920372 0.43429408891060084
0.39996472300026653 0.4509037616023448 0.4255007327796776
0.40015303600011976 0.44992672203224227 0.41963849535906195
0.40034095900000466 0.44894968246213973 0.42256961406936977
0.40052893800020684 0.4557889594528579 0.4157303370786516
0.40071693500021865 0.45188080117244755 0.4108451392281387
0.4009056730001248 0.4538348803126526 0.403028822667318
0.40109433699990404 0.45481191988275516 0.39423546653639474
0.4012821490000533 0.4587200781631655 0.3883732291157791
0.40147025800024494 0.467513434294089 0.3903273082559844
0.40165845899991837 0.46262823644357587 0.38739618954567656
0.4018474750000678 0.46458231558378116 0.38641914997557403
0.40203565699994215 0.4655593551538837 0.38739618954567656
0.40222345099982704 0.46946751343429405 0.3834880312652662
0.4024122820001139 0.467513434294089 0.38739618954567656
0.4026004639999883 0.4684904738641915 0.38739618954567656
0.4027883500002645 0.467513434294089 0.3903273082559844
0.4029767920001177 0.47142159257449934 0.3952125061064973
0.4031648079999286 0.4704445530043966 0.40009770395701016
0.40335263899987694 0.46946751343429405 0.39912066438690763
0.40354182100008984 0.47239863214460187 0.3981436248168051
0.4037306149998585 0.46946751343429405 0.3952125061064973
0.4039185940000607 0.46946751343429405 0.3903273082559844
0.40410725799983993 0.47239863214460187 0.38935026868588185
0.4042957000001479 0.47142159257449934 0.38446507083536874
0.404484512000181 0.47435271128480694 0.36687835857352225
0.40467245399986496 0.4753297508549097 0.3561309233023937
0.4048621360002471 0.4753297508549097 0.34440644846116264
0.4050504850001744 0.4782608695652173 0.33756717147044446
0.4052385569998478 0.4782608695652173 0.3277967757694187
0.405426128000272 0.4763067904250122 0.3209574987787005
0.40561479200005124 0.4753297508549097 0.31704934049829014
0.40580317800004195 0.4763067904250122 0.3141182217879823
0.40599119399985284 0.47435271128480694 0.31216414264777725
0.40617902500025593 0.4733756717147044 0.3180263800683927
0.40636633700023594 0.48216902784562765 0.32486565705911086
0.40655472300022666 0.47728382999511476 0.3287738153395212
0.4067433320001328 0.4763067904250122 0.33463605276013686
0.40693153300026097 0.4802149487054226 0.3365901319003419
0.40712093799993454 0.48216902784562765 0.3434294088910601
0.4073093050001262 0.4811919882755251 0.35417684416218864
0.40749754299986307 0.4831460674157304 0.36492427943331696
0.4076852630000758 0.47728382999511476 0.3737176355642404
0.4078724080000029 0.4763067904250122 0.38446507083536874
0.40806001700002525 0.4733756717147044 0.3952125061064973
0.4082484770001429 0.4704445530043966 0.4059599413776258
0.40843638200021815 0.46946751343429405 0.4186614557889594
0.4086239349999232 0.46165119687347334 0.4264777723497801
0.4088115059998927 0.46458231558378116 0.43429408891060084
0.409001003999947 0.46458231558378116 0.4430874450415241
0.40918859400017027 0.4636052760136786 0.44992672203224227
0.40937646100019265 0.46165119687347334 0.457743038593063
0.40956416200015155 0.4606741573033708 0.4587200781631655
0.40975327100022696 0.46165119687347334 0.46165119687347334
0.40994113900023876 0.4587200781631655 0.46458231558378116
0.41012882099994385 0.45969711773326827 0.4655593551538837
0.4103168189999451 0.45676599902296044 0.467513434294089
0.41050457500023185 0.4538348803126526 0.46946751343429405
0.41069305400014855 0.44894968246213973 0.47728382999511476
0.4108819030002451 0.4479726428920372 0.48900830483634583
0.41106738200005566 0.43917928676111373 0.5026868588177822
0.4112534720002259 0.4333170493404983 0.512457254518808
0.4114389320002374 0.4284318514899854 0.5212506106497312
0.41162405900013255 0.42745481191988266 0.5300439667806547
0.4118095200001335 0.4303859306301905 0.5359062042012701
0.41199518400026136 0.4264777723497801 0.5476306790425012
0.4121808290001354 0.42745481191988266 0.5515388373229115
0.412365993000094 0.4264777723497801 0.5613092330239375
0.41255100900025354 0.4284318514899854 0.5642403517342451
0.41273571000010634 0.42745481191988266 0.567171470444553
0.41294111500019426 0.4284318514899854 0.5642403517342451
0.41313111199997365 0.42940889106008795 0.5642403517342451
0.41331899800024985 0.42940889106008795 0.5701025891548608
0.4135069960002511 0.4284318514899854 0.5730337078651686
0.4136946409998927 0.4284318514899854 0.576941866145579
0.41388234199985163 0.4264777723497801 0.576941866145579
0.4140703210000538 0.4264777723497801 0.578895945285784
0.41425854099998105 0.4284318514899854 0.5818270639960919
0.41444613100020433 0.42256961406936977 0.5867122618466047
0.41463501699990957 0.42256961406936977 0.58866634098681
0.41482316300016464 0.42159257449926724 0.5876893014167073
