0 0.45481191988275516 0.3834880312652662
0.00047310499985542265 0.4606741573033708 0.3531998045920859
0.000740582999696926 0.45676599902296044 0.32486565705911086
0.000998097999854508 0.4557889594528579 0.29164631167562294
0.001202724999984639 0.45188080117244755 0.25451880801172444
0.001396795999880851 0.4538348803126526 0.21739130434782616
0.0015889779997451114 0.44992672203224227 0.1861260381045433
0.0017808459997468162 0.44894968246213973 0.16560820713238877
0.0019714359996214625 0.4450415241817294 0.16170004885197842
0.002163618999929895 0.4479726428920372 0.17244748412310695
0.0023622639996574435 0.4450415241817294 0.20273571079628727
0.002553872999669693 0.4460185637518319 0.2506106497313141
0.0027450739999039797 0.4430874450415241 0.28969223253541765
0.002936089999820979 0.4450415241817294 0.3385442110405472
0.0031272169999283506 0.44406448461162684 0.4010747435271129
0.003318713999760803 0.4430874450415241 0.46262823644357587
0.003508970999973826 0.44406448461162684 0.5192965315095261
0.003699689999848488 0.44406448461162684 0.5661944308744504
0.0038914839997232775 0.44406448461162684 0.6013678553981436
0.0040824630000315665 0.4460185637518319 0.6238397655105032
0.004273477999959141 0.4450415241817294 0.6306790425012212
0.00446443900000304 0.4509037616023448 0.633610161211529
0.004655435999666224 0.4460185637518319 0.6101612115290669
0.004846544999963953 0.4479726428920372 0.5828041035661944
0.005036837999796262 0.44699560332193444 0.5466536394723986
0.005228187999819056 0.44699560332193444 0.512457254518808
0.005420054999831336 0.4509037616023448 0.48216902784562765
0.005611107999811793 0.4509037616023448 0.45188080117244755
0.005810327999824949 0.4509037616023448 0.4323400097703958
0.00602639899989299 0.44894968246213973 0.42256961406936977
0.006437262999952509 0.45188080117244755 0.4333170493404983
0.0068803129997832 0.45188080117244755 0.43917928676111373
0.00715201299999535 0.44992672203224227 0.44406448461162684
0.0075516739998420235 0.44699560332193444 0.42745481191988266
0.008207868999761558 0.44992672203224227 0.41475329750854906
0.008460161999664706 0.44992672203224227 0.40889106008793363
0.008665028999985225 0.44894968246213973 0.4049829018075233
0.008867414999713219 0.44894968246213973 0.39912066438690763
0.009073652999632031 0.44992672203224227 0.3913043478260869
0.00927790899959291 0.4509037616023448 0.39228138739618945
0.009479295999881288 0.4509037616023448 0.3883732291157791
0.009678329999587731 0.44992672203224227 0.403028822667318
0.009873900999991747 0.45188080117244755 0.4206155349291647
0.010072638999645278 0.4538348803126526 0.44211040547142155
0.010279747999902611 0.4557889594528579 0.49193942354665365
0.01086246199974994 0.4557889594528579 0.5114802149487054
0.011236233999625256 0.45676599902296044 0.5134342940889105
0.011676024999815127 0.45481191988275516 0.522227650219834
0.011977705999925092 0.4587200781631655 0.5251587689301416
0.012229442999796447 0.457743038593063 0.5290669272105519
0.01244823599972733 0.45676599902296044 0.5271128480703469
0.0126572699996359 0.45481191988275516 0.5212506106497312
0.012858859999596461 0.4538348803126526 0.512457254518808
0.013060986999789748 0.45188080117244755 0.49975574010747437
0.013262557999951241 0.44992672203224227 0.4948705422569615
0.013463666999996349 0.4509037616023448 0.4978016609672691
0.013661255999977584 0.44992672203224227 0.5046409379579873
0.01386367999975846 0.4509037616023448 0.5114802149487054
0.01406064000002516 0.4538348803126526 0.5134342940889105
0.014305728999715939 0.45188080117244755 0.5085490962383976
0.014896184000008361 0.45481191988275516 0.4763067904250122
0.015223012999740604 0.45481191988275516 0.4665363947239862
0.01544186199998876 0.45481191988275516 0.4684904738641915
0.015646839999590156 0.45676599902296044 0.4733756717147044
0.01584822599988911 0.457743038593063 0.4811919882755251
0.016051261000029626 0.45969711773326827 0.49193942354665365
0.01625159099967277 0.4587200781631655 0.49975574010747437
0.016458624999813765 0.4587200781631655 0.49877870053737183
0.016662047999943752 0.46262823644357587 0.4978016609672691
0.016859767999903852 0.45969711773326827 0.4938935026868587
0.017062301999885676 0.4587200781631655 0.4948705422569615
0.017261058999793022 0.4606741573033708 0.48900830483634583
0.017462259999774687 0.45969711773326827 0.4802149487054226
0.017662497999936022 0.45969711773326827 0.467513434294089
0.017858809999779623 0.457743038593063 0.4557889594528579
0.0180577699998139 0.4606741573033708 0.4323400097703958
0.018274766999638814 0.457743038593063 0.40986809965803617
0.018485356999917713 0.457743038593063 0.39423546653639474
0.01868459499974051 0.4557889594528579 0.38446507083536874
0.018883443999584415 0.4557889594528579 0.3913043478260869
0.019077922999713337 0.457743038593063 0.40009770395701016
0.01927516099976856 0.4528578407425501 0.41963849535906195
0.019470601999728387 0.4528578407425501 0.44211040547142155
0.01966763699965668 0.4528578407425501 0.45676599902296044
0.01986267099982797 0.45188080117244755 0.46458231558378116
0.020061260999682418 0.45676599902296044 0.4606741573033708
0.02025657299964223 0.4538348803126526 0.4538348803126526
0.020450847999654798 0.45481191988275516 0.44699560332193444
0.02064228999961415 0.4528578407425501 0.4382022471910112
0.02083345399978498 0.457743038593063 0.4303859306301905
0.02104663599993728 0.45481191988275516 0.4264777723497801
0.021256354999877658 0.457743038593063 0.4401563263312165
0.021449055999710254 0.45676599902296044 0.44894968246213973
0.021649664999586093 0.45969711773326827 0.46946751343429405
0.021844828999746824 0.457743038593063 0.5026868588177822
0.02203510399976949 0.4587200781631655 0.5417684416218858
0.02222756399987702 0.457743038593063 0.5935515388373229
0.022481893999611202 0.4587200781631655 0.631656082071324
0.02268881700001657 0.457743038593063 0.6551050317537861
0.022886999999627733 0.4587200781631655 0.661944308744504
0.02308082999979888 0.4606741573033708 0.650219833903273
0.023279513000034058 0.45969711773326827 0.633610161211529
0.023494064999795228 0.4587200781631655 0.6013678553981436
0.02373324699965451 0.45969711773326827 0.5710796287249633
0.02393129999973098 0.45481191988275516 0.5378602833414754
0.024124963999838656 0.4538348803126526 0.512457254518808
0.024316979999639443 0.45481191988275516 0.49193942354665365
0.024508811000032438 0.44699560332193444 0.4733756717147044
0.024698437999632006 0.4430874450415241 0.4509037616023448
0.02489487899993037 0.4450415241817294 0.4255007327796776
0.025086691999604227 0.441133365901319 0.403028822667318
0.025278429999616492 0.4430874450415241 0.37957987298485585
0.025468593999903533 0.441133365901319 0.3610161211529066
0.02566177599965158 0.44211040547142155 0.35417684416218864
0.02585545900001307 0.441133365901319 0.35417684416218864
0.026055714999984048 0.44406448461162684 0.3531998045920859
0.026282952999736153 0.44406448461162684 0.3512457254518808
0.026477932000034343 0.44211040547142155 0.33463605276013686
0.026673835999645235 0.44211040547142155 0.3111871030776747
0.026871851999658247 0.44211040547142155 0.2808988764044944
0.027067015999818977 0.4450415241817294 0.2506106497313141
0.027268735999768978 0.44406448461162684 0.23888617489008301
0.027482640000016545 0.44406448461162684 0.2408402540302883
0.02802039199968931 0.4382022471910112 0.2730825598436737
0.028689252999811288 0.4333170493404983 0.3229115779189058
0.029839514999821404 0.4450415241817294 0.467513434294089
0.030193139999937557 0.45188080117244755 0.5114802149487054
0.03113449699958437 0.45676599902296044 0.5075720566682951
0.0319167079996987 0.4557889594528579 0.48900830483634583
0.03280854799959343 0.457743038593063 0.48412310698583294
0.03340174400000251 0.4557889594528579 0.49682462139716654
0.03390610699989338 0.4557889594528579 0.5183194919394236
0.034218787999634515 0.4509037616023448 0.5271128480703469
0.03456911599960222 0.4538348803126526 0.5486077186126037
0.03503001699982633 0.44894968246213973 0.5632633121641426
0.035245365999799105 0.4479726428920372 0.576941866145579
0.03553569599989714 0.44406448461162684 0.5964826575476307
0.03590574600002583 0.44211040547142155 0.5896433805569126
0.03610998399972232 0.441133365901319 0.5710796287249633
0.036308591999841155 0.4430874450415241 0.5446995603321934
0.03649838599994837 0.44699560332193444 0.5065950170981925
0.03668877199970666 0.4430874450415241 0.4557889594528579
0.03687850999995135 0.4479726428920372 0.41182217879824123
0.03706635999969876 0.44992672203224227 0.38153395212506114
0.03725394999992204 0.4509037616023448 0.3678553981436248
0.03744220599992332 0.4557889594528579 0.3737176355642404
0.03762988899961783 0.45969711773326827 0.3961895456765998
0.03781866399958744 0.46165119687347334 0.42256961406936977
0.038006346999736706 0.4655593551538837 0.4479726428920372
0.03820106599960127 0.4655593551538837 0.4704445530043966
0.03844202599975688 0.4655593551538837 0.4782608695652173
0.038644207999823266 0.4655593551538837 0.48216902784562765
0.03883663199985676 0.4636052760136786 0.47728382999511476
0.03902485099979458 0.4655593551538837 0.4763067904250122
0.03922214499971233 0.467513434294089 0.47923790913532005
0.03945236399977148 0.4655593551538837 0.48900830483634583
0.03965608299995438 0.46458231558378116 0.5085490962383976
0.03985139499991419 0.4655593551538837 0.5319980459208598
0.04005085599965241 0.467513434294089 0.5554469956033219
0.04025313099964478 0.4655593551538837 0.5720566682950659
0.04045481299999665 0.467513434294089 0.576941866145579
0.04066312499980995 0.467513434294089 0.576941866145579
0.04086715899984483 0.4684904738641915 0.5759648265754762
0.04106995299980554 0.4684904738641915 0.5632633121641426
0.04128537599990523 0.4665363947239862 0.5427454811919883
0.0415129469997737 0.47239863214460187 0.5114802149487054
0.041717091999998956 0.467513434294089 0.4665363947239862
0.041910996999831696 0.46458231558378116 0.4059599413776258
0.04210117899992838 0.45969711773326827 0.33952125061064975
0.04229943599966646 0.457743038593063 0.27699071812408405
0.04250680299992382 0.4528578407425501 0.23400097703957012
0.04270068899995749 0.44992672203224227 0.2037127503663898
0.042894334999800776 0.44406448461162684 0.19198827552515874
0.04309297999998307 0.43917928676111373 0.18710307767464585
0.04328579200000604 0.43722520762090866 0.19198827552515874
0.04347306799991202 0.431362970200293 0.2085979482169027
0.043662434999987454 0.4333170493404983 0.23400097703957012
0.04385187699972448 0.42745481191988266 0.26233512457254515
0.04404361499973675 0.4264777723497801 0.2955544699560333
0.0442402979997496 0.4284318514899854 0.3287738153395212
0.044431905999772425 0.42745481191988266 0.36003908158280407
0.04462064399967858 0.4284318514899854 0.38446507083536874
0.04481734499995582 0.43429408891060084 0.40986809965803617
0.045017379999990226 0.431362970200293 0.4264777723497801
0.045373614999789424 0.43917928676111373 0.4401563263312165
0.04643980399987413 0.44211040547142155 0.3961895456765998
0.04682098399962342 0.44406448461162684 0.3629702002931119
0.04836772199996631 0.4509037616023448 0.4665363947239862
0.04875179099963134 0.4509037616023448 0.48412310698583294
0.04895769599988853 0.4528578407425501 0.512457254518808
0.04949679899982584 0.44894968246213973 0.5183194919394236
0.04971022199970321 0.4528578407425501 0.5183194919394236
0.04991707099998166 0.45188080117244755 0.5202735710796287
0.05015421600000991 0.45188080117244755 0.5300439667806547
0.05043430499972601 0.4538348803126526 0.5388373229115779
0.05064522799966653 0.4538348803126526 0.5388373229115779
0.05083602199965753 0.4538348803126526 0.5388373229115779
0.05102674099998694 0.4538348803126526 0.5319980459208598
0.051213961000030395 0.45188080117244755 0.5192965315095261
0.051401457999872946 0.4509037616023448 0.5065950170981925
0.051588103999620216 0.4538348803126526 0.4948705422569615
0.05178011999987575 0.45481191988275516 0.486077186126038
0.05196793200002503 0.4557889594528579 0.486077186126038
0.052155521999793564 0.4528578407425501 0.48900830483634583
0.05234225999993214 0.4528578407425501 0.4929164631167562
0.052529312999922695 0.4509037616023448 0.4909623839765511
0.05271668099976523 0.44894968246213973 0.48900830483634583
0.05290356699970289 0.4509037616023448 0.4851001465559355
0.05309091599974636 0.44894968246213973 0.4763067904250122
0.05327735799983202 0.44894968246213973 0.4704445530043966
0.053465003999917826 0.44699560332193444 0.47142159257449934
0.05365176099985547 0.44894968246213973 0.467513434294089
0.053838553999867145 0.44992672203224227 0.46165119687347334
0.05402638499981549 0.44992672203224227 0.45481191988275516
0.05421419699996477 0.4479726428920372 0.43429408891060084
0.055247608999707154 0.4538348803126526 0.44406448461162684
0.055456550999679166 0.45188080117244755 0.44406448461162684
0.05564717799961727 0.4509037616023448 0.44406448461162684
0.05583610099984071 0.45188080117244755 0.44699560332193444
0.05602422799984197 0.45188080117244755 0.4509037616023448
0.056212761999631766 0.44992672203224227 0.45969711773326827
0.056400833999759925 0.45188080117244755 0.4587200781631655
0.05658786799995141 0.4509037616023448 0.45969711773326827
0.05677536599978339 0.4538348803126526 0.45676599902296044
0.05696202999979505 0.45188080117244755 0.4528578407425501
0.05715045299984922 0.45676599902296044 0.4538348803126526
0.0573375619997023 0.4538348803126526 0.4587200781631655
0.05752404099985142 0.45188080117244755 0.4479726428920372
0.05770972299978894 0.45481191988275516 0.4460185637518319
0.057897794999917096 0.4557889594528579 0.441133365901319
0.05809031099988715 0.45676599902296044 0.4401563263312165
0.05830054799980644 0.4557889594528579 0.43624816805080613
0.05850008299967158 0.45481191988275516 0.43917928676111373
0.058710597999834135 0.45188080117244755 0.4382022471910112
0.0589279659998283 0.44992672203224227 0.4401563263312165
0.05912277799961885 0.4509037616023448 0.45481191988275516
0.059609789999740315 0.4509037616023448 0.4509037616023448
0.05981734199986022 0.4509037616023448 0.4479726428920372
0.06002726499991695 0.45676599902296044 0.4333170493404983
0.06022129999973913 0.45188080117244755 0.42256961406936977
0.06041012999958184 0.44992672203224227 0.41963849535906195
0.060597942999720544 0.4509037616023448 0.4186614557889594
0.06078488399998605 0.4479726428920372 0.42256961406936977
0.06097116000000824 0.44992672203224227 0.4323400097703958
0.06115961999967112 0.45188080117244755 0.44211040547142155
0.06142887599980895 0.45188080117244755 0.45481191988275516
0.06166901999995389 0.45188080117244755 0.4557889594528579
0.061863592000008794 0.44992672203224227 0.45188080117244755
0.062053662999915105 0.4479726428920372 0.4557889594528579
0.06227258599983543 0.45188080117244755 0.457743038593063
0.06247313899984874 0.44992672203224227 0.4606741573033708
0.06267063599989342 0.4538348803126526 0.46946751343429405
0.06286231900003258 0.4509037616023448 0.4782608695652173
0.06305226099993888 0.4538348803126526 0.48216902784562765
0.06323970199991891 0.45481191988275516 0.4909623839765511
0.06342734800000471 0.45676599902296044 0.48998534440644836
0.0636151419998896 0.45481191988275516 0.48900830483634583
0.06380188000002818 0.457743038593063 0.4909623839765511
0.06398882199982836 0.457743038593063 0.4909623839765511
0.06417581899995639 0.457743038593063 0.48998534440644836
0.06436307599960855 0.45481191988275516 0.4851001465559355
0.06455429499965248 0.4538348803126526 0.4831460674157304
0.06474294099962208 0.45676599902296044 0.47728382999511476
0.06493082699989827 0.45188080117244755 0.4733756717147044
0.06511837999960335 0.4538348803126526 0.4704445530043966
0.0653054329995939 0.4538348803126526 0.4733756717147044
0.06551009699978749 0.45188080117244755 0.47435271128480694
0.0657224089995907 0.4509037616023448 0.4733756717147044
0.06598388699967472 0.44992672203224227 0.4802149487054226
0.06622262399969259 0.4509037616023448 0.5046409379579873
0.06655850899960569 0.44894968246213973 0.5349291646311676
0.06681052399972032 0.45188080117244755 0.5534929164631168
0.0670219469998301 0.4509037616023448 0.5720566682950659
0.06729409099989425 0.4460185637518319 0.5876893014167073
0.06757484599984309 0.44894968246213973 0.5915974596971176
0.06784023199998046 0.4450415241817294 0.5974596971177333
0.06808169099986117 0.4460185637518319 0.5974596971177333
0.0682846879999488 0.4479726428920372 0.5857352222765022
0.06848311199973978 0.441133365901319 0.5661944308744504
0.06870981199972448 0.43917928676111373 0.5232046897899365
0.06916219499998988 0.43917928676111373 0.33463605276013686
0.06979929699991771 0.44406448461162684 0.30239374694675125
0.07012597799985087 0.4509037616023448 0.31704934049829014
0.07042339999998148 0.45969711773326827 0.34440644846116264
0.0706176929998037 0.4606741573033708 0.3610161211529066
0.07080672799975218 0.46165119687347334 0.38251099169516367
0.07100053999965894 0.46262823644357587 0.3981436248168051
0.07118840799967074 0.4636052760136786 0.40986809965803617
0.0713763679996191 0.46262823644357587 0.41670737664875435
0.07156466199967326 0.46458231558378116 0.4235466536394723
0.07175326999958997 0.4655593551538837 0.4333170493404983
0.07194147099971815 0.46165119687347334 0.43429408891060084
0.07212904299967704 0.46458231558378116 0.4303859306301905
0.07231635499965705 0.46458231558378116 0.4264777723497801
0.07250422299966885 0.4636052760136786 0.40889106008793363
0.07269433099963862 0.46165119687347334 0.38153395212506114
0.07288058799986175 0.4636052760136786 0.34440644846116264
0.07306884499985244 0.457743038593063 0.30239374694675125
0.07325587899958919 0.4538348803126526 0.2789447972642891
0.0734425249997912 0.44894968246213973 0.2887151929653151
0.07362968899997213 0.4460185637518319 0.3307278944797265
0.07381661199997325 0.4479726428920372 0.3834880312652662
0.07400340599997435 0.43917928676111373 0.4323400097703958
0.07419319999962681 0.43429408891060084 0.4704445530043966
0.07439834499973585 0.4323400097703958 0.4929164631167562
0.07459686099991814 0.431362970200293 0.5075720566682951
0.07483015399975557 0.4401563263312165 0.5261358085002443
0.07505198399985602 0.4352711284807034 0.5349291646311676
0.0752463329999955 0.4352711284807034 0.5476306790425012
0.07543771899963758 0.44211040547142155 0.5466536394723986
0.07562640199967063 0.43917928676111373 0.5378602833414754
0.07581323299973519 0.43917928676111373 0.5153883732291158
0.07600004500000068 0.441133365901319 0.48900830483634583
0.07618689399987488 0.4430874450415241 0.4528578407425501
0.07637379899961161 0.44406448461162684 0.4206155349291647
0.07656053699975018 0.4479726428920372 0.39423546653639474
0.07674727499988876 0.45188080117244755 0.37957987298485585
0.07693412499975238 0.44894968246213973 0.3805569125549584
0.07712106700000732 0.44894968246213973 0.3913043478260869
0.07730923099961728 0.44894968246213973 0.40986809965803617
0.07756511599973237 0.44699560332193444 0.43917928676111373
0.0777785209998001 0.44894968246213973 0.4655593551538837
0.0779862399999729 0.4538348803126526 0.49193942354665365
0.07818040399979509 0.4528578407425501 0.5056179775280898
0.07838728999968225 0.45676599902296044 0.5183194919394236
0.0785779719999482 0.45676599902296044 0.5280898876404494
0.07876633999967453 0.4587200781631655 0.5319980459208598
0.07895405999988725 0.457743038593063 0.5319980459208598
0.07914137199986726 0.45481191988275516 0.5271128480703469
0.07933909199982736 0.45969711773326827 0.5300439667806547
0.07953156999974453 0.457743038593063 0.5271128480703469
0.0797190859998409 0.4636052760136786 0.5183194919394236
0.07990656499987381 0.457743038593063 0.5017098192476794
0.08010259999991831 0.4587200781631655 0.47239863214460187
0.0803090039999006 0.45676599902296044 0.4450415241817294
0.08050192699965919 0.45481191988275516 0.41475329750854906
0.0806904249998297 0.457743038593063 0.3932584269662922
0.08087903299974641 0.45676599902296044 0.37274059599413767
0.08106577199987441 0.4509037616023448 0.3629702002931119
0.08125397300000259 0.4509037616023448 0.3502686858817783
0.08144232199992985 0.4479726428920372 0.3453834880312652
0.08162896699968769 0.4528578407425501 0.3424523693209576
0.08181700199975239 0.4509037616023448 0.3434294088910601
0.08200438799985932 0.4528578407425501 0.348314606741573
0.08219236699960675 0.45188080117244755 0.35906204201270153
0.08239567900000111 0.45188080117244755 0.37274059599413767
0.08258441699990726 0.4528578407425501 0.3932584269662922
0.08277137799996126 0.45188080117244755 0.40986809965803617
0.08296304199984661 0.4538348803126526 0.4333170493404983
0.08315768699958426 0.4538348803126526 0.457743038593063
0.08334490699962771 0.44992672203224227 0.4831460674157304
0.0835325709999779 0.45481191988275516 0.49877870053737183
0.08372014199994737 0.4538348803126526 0.5261358085002443
0.0839101399997162 0.45481191988275516 0.5427454811919883
0.0840989149996858 0.45481191988275516 0.5486077186126037
0.08429137499979333 0.45188080117244755 0.5534929164631168
0.08448779799982731 0.4509037616023448 0.5534929164631168
0.08469072199977745 0.4538348803126526 0.5437225207620908
0.08495079199974498 0.4509037616023448 0.5300439667806547
0.08514378899963049 0.44894968246213973 0.5183194919394236
0.0853482869997606 0.44894968246213973 0.5114802149487054
0.08555052399970009 0.44992672203224227 0.5046409379579873
0.08577787299964257 0.44992672203224227 0.5036638983878847
0.08646495599987247 0.44992672203224227 0.5622862725940401
0.08746496100002332 0.4636052760136786 0.4557889594528579
0.0904891969998971 0.44894968246213973 0.3952125061064973
0.0909635419998267 0.4430874450415241 0.4303859306301905
0.09116466899968145 0.4450415241817294 0.4450415241817294
0.09135581499958789 0.441133365901319 0.45969711773326827
0.09154612699967402 0.43917928676111373 0.4606741573033708
0.09173410599987619 0.4460185637518319 0.45188080117244755
0.09192247399960252 0.4401563263312165 0.44894968246213973
0.09210952699959307 0.43722520762090866 0.4460185637518319
0.09229650599991146 0.4352711284807034 0.4460185637518319
0.09248300299987022 0.4352711284807034 0.44406448461162684
0.09266890799972316 0.4333170493404983 0.4509037616023448
0.0928550720000203 0.4333170493404983 0.4684904738641915
0.09304177299964067 0.4382022471910112 0.4909623839765511
0.09322830699966289 0.43917928676111373 0.4948705422569615
0.0934614339998916 0.44406448461162684 0.4802149487054226
0.09365096800001993 0.4430874450415241 0.4430874450415241
0.09383965099959823 0.44699560332193444 0.39228138739618945
0.09402698199983206 0.44211040547142155 0.33463605276013686
0.09421499799964295 0.4430874450415241 0.2730825598436737
0.09440556899971853 0.4450415241817294 0.21739130434782616
0.09459247399991 0.441133365901319 0.1831949193942355
0.09477924899965728 0.4430874450415241 0.1685393258426966
0.09497822799994537 0.4401563263312165 0.17440156326331224
0.09516978099964035 0.44406448461162684 0.19980459208597945
0.09535583399974712 0.44406448461162684 0.2330239374694676
0.09554170199999135 0.45188080117244755 0.2662432828529555
0.09572834699974919 0.4460185637518319 0.2984855886663409
0.0959158259997821 0.44992672203224227 0.33170493404982904
0.09610343499980445 0.4479726428920372 0.37274059599413767
0.09629043199993248 0.44894968246213973 0.41963849535906195
0.09647616999973252 0.4587200781631655 0.4538348803126526
0.09666177899998729 0.4538348803126526 0.4880312652662433
0.09684729499986133 0.4538348803126526 0.5202735710796287
0.09704093999971519 0.4538348803126526 0.5368832437713726
0.09722773399971629 0.45188080117244755 0.5446995603321934
0.0974139719996856 0.4538348803126526 0.5349291646311676
0.09760933999996269 0.45481191988275516 0.5153883732291158
0.09779631899982633 0.4538348803126526 0.495847581827064
0.0979818159999013 0.4538348803126526 0.48412310698583294
0.09818818399980955 0.4538348803126526 0.4753297508549097
0.09838014399974782 0.4528578407425501 0.4753297508549097
0.0985661039999286 0.4528578407425501 0.4831460674157304
0.09875332399997205 0.45188080117244755 0.49193942354665365
0.09893943199995192 0.4538348803126526 0.4948705422569615
0.09912509699961447 0.4538348803126526 0.495847581827064
0.0993110749996049 0.45188080117244755 0.4909623839765511
0.09949857299989162 0.45188080117244755 0.48705422569614076
0.09968562599988218 0.45188080117244755 0.4831460674157304
0.0998708459997033 0.45481191988275516 0.4753297508549097
0.100438689999919 0.45676599902296044 0.47239863214460187
0.10064551999994364 0.45188080117244755 0.48216902784562765
0.10086281299982147 0.4557889594528579 0.4929164631167562
0.10108386599995356 0.45188080117244755 0.5046409379579873
0.1012706779997643 0.4557889594528579 0.5075720566682951
0.1014583049995963 0.4557889594528579 0.5095261358085001
0.1016450989995974 0.45969711773326827 0.5134342940889105
0.10183409599994775 0.45969711773326827 0.5232046897899365
0.10201964899988525 0.45969711773326827 0.5271128480703469
0.10220688699973834 0.46458231558378116 0.5368832437713726
0.10239947699983531 0.46165119687347334 0.540791402051783
0.10258862299997418 0.4606741573033708 0.5398143624816805
0.10278226799982804 0.46165119687347334 0.5349291646311676
0.10297672899969257 0.46165119687347334 0.5212506106497312
0.10316442999965147 0.46165119687347334 0.5085490962383976
0.10335174199963149 0.4606741573033708 0.4802149487054226
0.10353886899974896 0.4587200781631655 0.45676599902296044
0.10373051499982466 0.45481191988275516 0.43722520762090866
0.10391795599980469 0.4528578407425501 0.42159257449926724
0.10410460200000671 0.45481191988275516 0.40986809965803617
0.1042903219999971 0.45481191988275516 0.403028822667318
0.10447698600000876 0.44894968246213973 0.39716658524670256
0.1046627239998088 0.4538348803126526 0.40205178309721545
0.10484890699990501 0.44699560332193444 0.4157303370786516
0.10503477399970507 0.44699560332193444 0.431362970200293
0.10522021599990694 0.4450415241817294 0.44699560332193444
0.10540680599979169 0.4430874450415241 0.4636052760136786
0.10559224799999356 0.441133365901319 0.4733756717147044
0.10577830099964558 0.4401563263312165 0.4802149487054226
0.10596390999990035 0.4430874450415241 0.48216902784562765
0.10614935199964748 0.44406448461162684 0.4851001465559355
0.10635523799965085 0.441133365901319 0.4811919882755251
0.106541401999948 0.4430874450415241 0.4782608695652173
0.10672730699980093 0.44699560332193444 0.4733756717147044
0.10691247099975953 0.44894968246213973 0.4636052760136786
0.10709841299967593 0.44894968246213973 0.4587200781631655
0.10728377999976146 0.44894968246213973 0.4460185637518319
0.10747022199984713 0.44699560332193444 0.4264777723497801
0.10765634899962606 0.4460185637518319 0.412799218368344
0.10784247599985974 0.4460185637518319 0.403028822667318
0.1080280659998607 0.44699560332193444 0.38739618954567656
0.10821408199990401 0.44211040547142155 0.3776257938446508
0.10839967199990497 0.4430874450415241 0.3659013190034197
0.10858989199959979 0.4450415241817294 0.3561309233023937
0.10877607499969599 0.4479726428920372 0.34440644846116264
0.10896197900001425 0.4479726428920372 0.34440644846116264
0.10914677299979303 0.4479726428920372 0.3502686858817783
0.10933167799976218 0.4509037616023448 0.35906204201270153
0.10951682399991114 0.4528578407425501 0.38153395212506114
0.10970209899960537 0.4509037616023448 0.4040058622374205
0.1098876329997438 0.4538348803126526 0.4255007327796776
0.11007324199999857 0.4509037616023448 0.441133365901319
0.11028786899987608 0.45188080117244755 0.45676599902296044
0.11047960699988835 0.44894968246213973 0.4665363947239862
0.11066545599987876 0.4509037616023448 0.47435271128480694
0.11085169399984807 0.45188080117244755 0.486077186126038
0.11106698699995832 0.4509037616023448 0.4909623839765511
0.11127400299983492 0.45188080117244755 0.49975574010747437
0.11146801899985803 0.44894968246213973 0.5046409379579873
0.11166657199964902 0.44894968246213973 0.5202735710796287
0.11186412500001097 0.4509037616023448 0.5163654127992183
0.11207186199999342 0.4528578407425501 0.5163654127992183
0.11226891499973135 0.45188080117244755 0.5173424523693209
0.11247978299979877 0.45188080117244755 0.512457254518808
0.11267442799999117 0.45188080117244755 0.4978016609672691
0.11286103699967498 0.45969711773326827 0.48412310698583294
0.1130494229996657 0.4557889594528579 0.46262823644357587
0.1132455129995833 0.45481191988275516 0.43917928676111373
0.11343182499967952 0.45481191988275516 0.41475329750854906
0.11361780399965937 0.45676599902296044 0.3961895456765998
0.11380420899968158 0.4557889594528579 0.376648754274548
0.11403607599959287 0.4528578407425501 0.3737176355642404
0.11422455499996431 0.4528578407425501 0.3756717147044455
0.1144501069998114 0.4538348803126526 0.3805569125549584
0.11463727199998175 0.45481191988275516 0.3913043478260869
0.11482362099968668 0.45188080117244755 0.4010747435271129
0.11500967399979345 0.4557889594528579 0.4108451392281387
0.11519741199981581 0.45481191988275516 0.42940889106008795
0.11538313199980621 0.4538348803126526 0.44894968246213973
0.11556935099997645 0.45969711773326827 0.4753297508549097
0.11575694099974498 0.4538348803126526 0.5036638983878847
0.11594369799968263 0.4538348803126526 0.5310210063507572
0.11613036199969429 0.45481191988275516 0.5613092330239375
0.11631698899964249 0.457743038593063 0.5896433805569126
0.11650313499967524 0.45676599902296044 0.6150464093795798
0.11668996499975037 0.4587200781631655 0.6238397655105032
0.11687581499973021 0.46262823644357587 0.6297020029311187
0.11706183099977352 0.4557889594528579 0.6228627259404005
0.11724979099972188 0.4587200781631655 0.5984367366878358
0.11743526999998721 0.46262823644357587 0.5661944308744504
0.11762148999969213 0.45481191988275516 0.522227650219834
0.11780794999958744 0.4587200781631655 0.4655593551538837
0.11799463299985291 0.45969711773326827 0.40986809965803617
0.11819083399996089 0.457743038593063 0.3639472398632144
0.11838664599963522 0.45676599902296044 0.3365901319003419
0.11857629099995393 0.45676599902296044 0.3180263800683927
0.11876202899975397 0.4528578407425501 0.31998045920859797
0.11894785999993474 0.4557889594528579 0.3365901319003419
0.11913609799967162 0.4538348803126526 0.36003908158280407
0.11932211399971493 0.4509037616023448 0.3932584269662922
0.11950776000003316 0.4509037616023448 0.431362970200293
0.11969301699991775 0.44894968246213973 0.46946751343429405
0.11987799600001381 0.44894968246213973 0.49877870053737183
0.12006315999997241 0.44894968246213973 0.5163654127992183
0.1202482499998041 0.4479726428920372 0.5192965315095261
0.12043465499982631 0.44699560332193444 0.5134342940889105
0.12062070799993307 0.4479726428920372 0.5036638983878847
0.12081114900001921 0.44699560332193444 0.4880312652662433
0.12099707299967122 0.4509037616023448 0.46946751343429405
0.12118545899966193 0.4528578407425501 0.45676599902296044
0.12138278999964314 0.4528578407425501 0.44992672203224227
0.12157663899961335 0.4528578407425501 0.44992672203224227
0.12180982099971516 0.45481191988275516 0.4557889594528579
0.12199776299985388 0.4557889594528579 0.4606741573033708
0.12218418599968572 0.45188080117244755 0.46458231558378116
0.12237533199959216 0.4528578407425501 0.46946751343429405
0.12256105099959314 0.4538348803126526 0.4763067904250122
0.12274636299980557 0.457743038593063 0.48216902784562765
0.12293247199977486 0.4557889594528579 0.4909623839765511
0.12312152499998774 0.4606741573033708 0.4978016609672691
0.12330726299978778 0.46458231558378116 0.5134342940889105
0.12349263099986274 0.46458231558378116 0.5300439667806547
0.1236796839998533 0.467513434294089 0.5417684416218858
0.12386551500003407 0.467513434294089 0.5534929164631168
0.12405106799997156 0.47142159257449934 0.567171470444553
0.12423717599995143 0.4704445530043966 0.5828041035661944
0.1244235999997727 0.4733756717147044 0.5945285784074255
0.12461211599975286 0.4733756717147044 0.5945285784074255
0.12479731699977492 0.47142159257449934 0.5847581827063997
0.1249827589999768 0.4831460674157304 0.5740107474352711
0.1251692739997452 0.47239863214460187 0.5525158768930141
0.12535440199962977 0.4704445530043966 0.5144113336590133
0.12554052899986345 0.47142159257449934 0.47728382999511476
0.12572715599981166 0.4655593551538837 0.4528578407425501
0.12591280099968571 0.46165119687347334 0.4352711284807034
0.12610083599975042 0.45481191988275516 0.4323400097703958
0.12628998099989985 0.44992672203224227 0.4401563263312165
0.12648816399996576 0.44699560332193444 0.45481191988275516
0.1266753649997554 0.44699560332193444 0.4733756717147044
0.12686186199971416 0.44406448461162684 0.4831460674157304
0.12704759999996895 0.44211040547142155 0.4948705422569615
0.12723346799975843 0.4382022471910112 0.5017098192476794
0.12742676199968628 0.43722520762090866 0.5036638983878847
0.12761481500001537 0.4333170493404983 0.5036638983878847
0.12780131199997413 0.43722520762090866 0.49975574010747437
0.12798736499962615 0.4303859306301905 0.49193942354665365
0.12817599199979668 0.42940889106008795 0.47239863214460187
0.12836337899989303 0.4264777723497801 0.4528578407425501
0.12855322799987334 0.42452369320957506 0.4323400097703958
0.12873885499993776 0.4255007327796776 0.4157303370786516
0.12892479699985415 0.4264777723497801 0.39912066438690763
0.1291103129997282 0.42452369320957506 0.3834880312652662
0.12929579199999353 0.42159257449926724 0.3659013190034197
0.12948095599995213 0.4264777723497801 0.35222276502198335
0.1296662119998473 0.4264777723497801 0.3404982901807523
0.12985182099964732 0.431362970200293 0.33170493404982904
0.1300375409996377 0.43429408891060084 0.33268197361993157
0.13022313099963867 0.4333170493404983 0.33756717147044446
0.13042023899970445 0.43722520762090866 0.33463605276013686
0.13060584799995922 0.431362970200293 0.32193453834880303
0.13079102999972747 0.43624816805080613 0.303370786516854
0.13097665699979189 0.43722520762090866 0.27015144113336587
0.1311622659995919 0.43624816805080613 0.23204689789936483
0.13134754099974089 0.4382022471910112 0.19980459208597945
0.13153409400001692 0.43429408891060084 0.18514899853444056
0.13171985099961603 0.43722520762090866 0.18417195896433802
0.13190549599994483 0.44211040547142155 0.19980459208597945
0.13209117899987177 0.4401563263312165 0.2232535417684416
0.13227612099990438 0.44211040547142155 0.24474841231069866
0.13246113699960915 0.44406448461162684 0.27015144113336587
0.13264602299977923 0.4450415241817294 0.29750854909623836
0.13283172399997056 0.44211040547142155 0.32975085490962375
0.13301636999995026 0.44699560332193444 0.36980947728383007
0.13320107099980305 0.44699560332193444 0.4010747435271129
0.13338588299984622 0.44992672203224227 0.42940889106008795
0.13357139899972026 0.4528578407425501 0.457743038593063
0.13375678599959429 0.45188080117244755 0.47435271128480694
0.1339431159999549 0.4538348803126526 0.48998534440644836
0.13412885499974436 0.4538348803126526 0.49193942354665365
0.13432079599988356 0.4606741573033708 0.48998534440644836
0.13451168299980054 0.4557889594528579 0.48998534440644836
0.13470043899997108 0.45676599902296044 0.4948705422569615
0.13488878899988777 0.45676599902296044 0.5183194919394236
0.13507756399985738 0.4636052760136786 0.5359062042012701
0.1352661910000279 0.46165119687347334 0.5564240351734244
0.1354544289997648 0.4665363947239862 0.578895945285784
0.13564231499958623 0.4655593551538837 0.5964826575476307
0.13583479399994758 0.4684904738641915 0.6130923302393747
0.1360244579996106 0.46946751343429405 0.6238397655105032
0.13621295599978112 0.46946751343429405 0.621885686370298
0.13640108299978237 0.46946751343429405 0.6072300928187591
0.13658941299991056 0.46946751343429405 0.578895945285784
0.13677691099974254 0.46946751343429405 0.5398143624816805
0.13696507499980726 0.4636052760136786 0.486077186126038
0.13715310899988253 0.4684904738641915 0.4479726428920372
0.13734129199974632 0.46165119687347334 0.403028822667318
0.13752936299988505 0.4557889594528579 0.376648754274548
0.13771763899967482 0.45481191988275516 0.36687835857352225
0.13790554299976066 0.4538348803126526 0.3639472398632144
0.1380935590000263 0.44992672203224227 0.3659013190034197
0.1382836119996682 0.4509037616023448 0.3678553981436248
0.13847009099981733 0.45481191988275516 0.37176355642403514
0.13865534799970192 0.44699560332193444 0.3805569125549584
0.1388410119998298 0.45188080117244755 0.3981436248168051
0.1390268609998202 0.44894968246213973 0.4176844162188569
0.1392126359996837 0.4479726428920372 0.4284318514899854
0.13939880099997026 0.44894968246213973 0.43624816805080613
0.13958474199989723 0.44894968246213973 0.4333170493404983
0.13977090599973963 0.44894968246213973 0.4284318514899854
0.13995662599973002 0.45188080117244755 0.4176844162188569
0.14014301199995316 0.4538348803126526 0.4137762579384465
0.14032956499977445 0.4538348803126526 0.40986809965803617
0.1405150809996485 0.4557889594528579 0.42256961406936977
0.140699967999808 0.4509037616023448 0.4382022471910112
0.14088476099959735 0.4557889594528579 0.46946751343429405
0.1410694070000318 0.4538348803126526 0.49877870053737183
0.14125431200000094 0.45481191988275516 0.5359062042012701
0.1414409760000126 0.46165119687347334 0.576941866145579
0.14162671399981264 0.4587200781631655 0.6101612115290669
0.1418123039998136 0.4587200781631655 0.6306790425012212
0.14199783899994145 0.46165119687347334 0.6463116756228626
0.14218366999966747 0.4606741573033708 0.6551050317537861
0.14237533400000757 0.45676599902296044 0.6482657547630679
0.14256401599959645 0.45676599902296044 0.6472887151929654
0.1427531619997353 0.4587200781631655 0.6326331216414265
0.14294238100001166 0.46165119687347334 0.6257938446507083
0.14313067499961107 0.4587200781631655 0.6130923302393747
0.1433195239997076 0.4636052760136786 0.6130923302393747
0.14350791099968774 0.46165119687347334 0.6140693698094772
0.14369688899978428 0.4606741573033708 0.6101612115290669
0.1438858869996693 0.4587200781631655 0.6082071323888618
0.14408117999983006 0.4587200781631655 0.58866634098681
0.1442769369996313 0.45676599902296044 0.5661944308744504
0.14447108199965442 0.45676599902296044 0.5349291646311676
0.14466107999987798 0.45188080117244755 0.5036638983878847
0.14484983599959378 0.45188080117244755 0.4782608695652173
0.14503844499995466 0.44699560332193444 0.4557889594528579
0.14522684999974445 0.44992672203224227 0.4382022471910112
0.14541543999985151 0.44406448461162684 0.4157303370786516
0.1456043079997471 0.4401563263312165 0.3952125061064973
0.1457931939999071 0.4401563263312165 0.36492427943331696
0.14598189499974978 0.43722520762090866 0.33170493404982904
0.14617070699978285 0.43624816805080613 0.293600390815828
0.14637044499977492 0.43624816805080613 0.2408402540302883
0.1465593129996705 0.43624816805080613 0.1958964338055691
0.14674831000002087 0.43429408891060084 0.15681485100146553
0.14693751100003283 0.43722520762090866 0.13238886174890085
0.14712602700001298 0.43624816805080613 0.11480214948705414
0.14731430199981332 0.4382022471910112 0.10503175378602836
0.14750307799977236 0.44211040547142155 0.10796287249633618
0.14769320499999594 0.44406448461162684 0.11773326819736196
0.14788129499993374 0.44406448461162684 0.146067415730337
0.1480692549998821 0.44699560332193444 0.1890571568148509
0.14825715999995737 0.4479726428920372 0.2437713727405959
0.1484457499996097 0.44992672203224227 0.3063019052271616
0.1486355439997169 0.4479726428920372 0.3854421104054715
0.14882413399982397 0.4538348803126526 0.4460185637518319
0.14901185299959252 0.44699560332193444 0.5065950170981925
0.14919953599974178 0.4479726428920372 0.5534929164631168
0.14938947799964808 0.4479726428920372 0.5915974596971176
0.1495789379996495 0.4479726428920372 0.6297020029311187
0.14976862000003166 0.44894968246213973 0.6463116756228626
0.14995669199970507 0.44406448461162684 0.661944308744504
0.15014537499973812 0.45188080117244755 0.6707376648754275
0.15034750099994199 0.441133365901319 0.6756228627259404
0.15053622099958375 0.4430874450415241 0.6902784562774793
0.15072549599972263 0.4430874450415241 0.686370297997069
0.15091375299971332 0.44699560332193444 0.6765999022960429
0.15110208399983094 0.4479726428920372 0.6590131900341964
0.15129071100000147 0.44992672203224227 0.6414264777723497
0.1514796149999711 0.45188080117244755 0.6033219345383487
0.15166824199968687 0.4509037616023448 0.5681485100146555
0.15185707299997375 0.457743038593063 0.5290669272105519
0.15204603399979533 0.46262823644357587 0.5065950170981925
0.15223438299972258 0.46165119687347334 0.4948705422569615
0.15242247299966039 0.4636052760136786 0.49682462139716654
0.15261084099984146 0.46262823644357587 0.5017098192476794
0.15279987499980052 0.46946751343429405 0.5153883732291158
0.15298796499973832 0.4636052760136786 0.5251587689301416
0.15317648099971848 0.46458231558378116 0.5319980459208598
0.1533644969999841 0.4665363947239862 0.5183194919394236
0.15355343900000662 0.46458231558378116 0.4880312652662433
0.15374243599990223 0.46458231558378116 0.4557889594528579
0.15393087799975547 0.4606741573033708 0.4264777723497801
0.15411907899988364 0.46165119687347334 0.4079140205178309
0.1543081129998427 0.4636052760136786 0.40009770395701016
0.15449649999982284 0.457743038593063 0.38739618954567656
0.15468457099996158 0.45481191988275516 0.3786028334147533
0.15487279099988882 0.4528578407425501 0.35906204201270153
0.15506149199973152 0.44894968246213973 0.348314606741573
0.15524934099994425 0.45188080117244755 0.33170493404982904
0.1554364869998608 0.44894968246213973 0.31998045920859797
0.15562459499960823 0.44699560332193444 0.30923302393746943
0.1558131109995884 0.4460185637518319 0.30239374694675125
0.156000997999854 0.44699560332193444 0.29946262823644365
0.15618868000001385 0.4450415241817294 0.2984855886663409
0.15637628899958145 0.4430874450415241 0.30727894479726436
0.1565640269996038 0.44406448461162684 0.3131411822178798
0.1567512279998482 0.43917928676111373 0.31704934049829014
0.15693835499996567 0.4352711284807034 0.3141182217879823
0.15712644499990347 0.4382022471910112 0.3111871030776747
0.15731447899997875 0.43624816805080613 0.303370786516854
0.15750240299985308 0.4303859306301905 0.303370786516854
0.15769082599990725 0.431362970200293 0.3229115779189058
0.15787884199971813 0.4323400097703958 0.34929164631167553
0.15806732099963483 0.42940889106008795 0.3903273082559844
0.15826242899993304 0.4333170493404983 0.42940889106008795
0.1584522409998499 0.4352711284807034 0.4636052760136786
0.15864136899972436 0.4382022471910112 0.47435271128480694
0.15883008799983145 0.43917928676111373 0.47923790913532005
0.1590187709998645 0.4430874450415241 0.46458231558378116
0.15920780499982357 0.45481191988275516 0.4557889594528579
0.1593962469996768 0.44894968246213973 0.43917928676111373
0.15958402199976263 0.4479726428920372 0.431362970200293
0.15977229700001772 0.45481191988275516 0.4333170493404983
0.15996084999960658 0.457743038593063 0.44699560332193444
0.16014951399984056 0.457743038593063 0.4636052760136786
0.1603378269996938 0.46458231558378116 0.48705422569614076
0.16052619399988544 0.4606741573033708 0.5065950170981925
0.160714932999781 0.45969711773326827 0.5280898876404494
0.1609125589998257 0.46165119687347334 0.540791402051783
0.16110257499985892 0.46165119687347334 0.5446995603321934
0.16129110999963814 0.4587200781631655 0.5388373229115779
0.16147966299968175 0.46165119687347334 0.5280898876404494
0.16166799299980994 0.4636052760136786 0.5144113336590133
0.16185649099998045 0.46458231558378116 0.512457254518808
0.16204509899989716 0.467513434294089 0.5192965315095261
0.16223402299965528 0.467513434294089 0.5280898876404494
0.1624345379996157 0.46458231558378116 0.533952125061065
0.16262364699969112 0.467513434294089 0.5446995603321934
0.16281221799999912 0.4655593551538837 0.5603321934538348
0.16300121599988415 0.46946751343429405 0.5798729848558866
0.16318960199987487 0.4665363947239862 0.5935515388373229
0.16337837699984448 0.4704445530043966 0.6160234489496825
0.16356724499974007 0.4704445530043966 0.6384953590620419
0.1637558719999106 0.4704445530043966 0.659990229604299
0.16394462899961582 0.47435271128480694 0.6726917440156326
0.16413323699998728 0.4684904738641915 0.686370297997069
0.16432186399970306 0.4753297508549097 0.6922325354176844
0.16450978800003213 0.46946751343429405 0.6893014167073765
0.16469785899971612 0.4665363947239862 0.67171470444553
0.16488596799990773 0.4665363947239862 0.631656082071324
0.16507440899977155 0.46262823644357587 0.5632633121641426
0.16526446199986822 0.4606741573033708 0.48998534440644836
0.16545284899984836 0.4587200781631655 0.42159257449926724
0.1656419019996065 0.45481191988275516 0.3629702002931119
0.16583054699958666 0.44992672203224227 0.3150952613580851
0.16601974799959862 0.4460185637518319 0.27210552027357116
0.16620867199981149 0.44211040547142155 0.23790913531998048
0.1663985759996649 0.441133365901319 0.2164142647777234
0.1665869069997825 0.43722520762090866 0.1958964338055691
0.16677584899980502 0.43429408891060084 0.16560820713238877
0.16696393899974282 0.4303859306301905 0.13141182217879832
0.16715186199962773 0.4255007327796776 0.10796287249633618
0.1673395999996501 0.42940889106008795 0.10210063507572054
0.16752713500000027 0.4303859306301905 0.11089399120664378
0.16771524299974772 0.4255007327796776 0.13434294088910592
0.1679064259997176 0.4284318514899854 0.17440156326331224
0.16809618299976137 0.42745481191988266 0.21739130434782616
0.168284864999805 0.4303859306301905 0.265266243282853
0.16847332599991205 0.4284318514899854 0.31021006350757196
0.16866202699975474 0.4303859306301905 0.3610161211529066
0.16885031999981948 0.4303859306301905 0.4059599413776258
0.16903894699999 0.4303859306301905 0.4450415241817294
0.16922770399969522 0.4333170493404983 0.47728382999511476
0.16941592399962246 0.43722520762090866 0.5046409379579873
0.169604457999867 0.43917928676111373 0.5251587689301416
0.1697930299997097 0.43917928676111373 0.5495847581827065
0.16998106399978496 0.4450415241817294 0.5593551538837322
0.17016857999988133 0.44211040547142155 0.5603321934538348
0.17035828099960781 0.4479726428920372 0.5554469956033219
0.17054651899979945 0.4479726428920372 0.5359062042012701
0.17073577599967393 0.45188080117244755 0.5153883732291158
0.17092379199993957 0.44992672203224227 0.4929164631167562
0.17111214099986682 0.44894968246213973 0.46946751343429405
0.17130008300000554 0.44992672203224227 0.45481191988275516
0.1714887279999857 0.45188080117244755 0.4460185637518319
0.1716775410000082 0.45188080117244755 0.441133365901319
0.1718662419998509 0.44894968246213973 0.44211040547142155
0.17205412799967235 0.4479726428920372 0.441133365901319
0.1722420879996207 0.4509037616023448 0.44992672203224227
0.1724299190000238 0.44894968246213973 0.457743038593063
0.17261813899995104 0.4479726428920372 0.46165119687347334
0.17280650699967737 0.4479726428920372 0.4704445530043966
0.172994744999869 0.44992672203224227 0.47923790913532005
0.17318342699991263 0.4509037616023448 0.48998534440644836
0.17337185099995622 0.45481191988275516 0.5036638983878847
0.1735611629997038 0.4528578407425501 0.524181729360039
0.17374962299982144 0.45676599902296044 0.5261358085002443
0.17393763899963233 0.457743038593063 0.5290669272105519
0.1741260809999403 0.45969711773326827 0.5368832437713726
0.17431513399969845 0.45969711773326827 0.5437225207620908
0.17450379799993243 0.457743038593063 0.550561797752809
0.1746917399996164 0.46262823644357587 0.5613092330239375
0.17487932999983968 0.45969711773326827 0.5759648265754762
0.1750674939999044 0.4587200781631655 0.5828041035661944
0.17525493599987385 0.45969711773326827 0.5876893014167073
0.17544287800001257 0.4587200781631655 0.5847581827063997
0.17563048599959075 0.45676599902296044 0.5613092330239375
0.17581866899990928 0.457743038593063 0.5349291646311676
0.17600718499988943 0.45969711773326827 0.5007327796775769
0.17619520099970032 0.45481191988275516 0.4606741573033708
0.17638312399958522 0.45676599902296044 0.4303859306301905
0.17657069500000944 0.45676599902296044 0.40889106008793363
0.17675898899960885 0.4557889594528579 0.3883732291157791
0.17694694900001195 0.45676599902296044 0.3854421104054715
0.1771349470000132 0.45969711773326827 0.38641914997557403
0.17732275899970773 0.4587200781631655 0.38935026868588185
0.17751486799988925 0.457743038593063 0.3913043478260869
0.1777040689999012 0.4587200781631655 0.39228138739618945
0.17789280699980736 0.4587200781631655 0.3932584269662922
0.17808150799965006 0.45676599902296044 0.3834880312652662
0.17827917199974763 0.45676599902296044 0.3707865168539326
0.17847063199997137 0.4557889594528579 0.3678553981436248
0.17865975899985642 0.457743038593063 0.37274059599413767
0.17884853399982603 0.4557889594528579 0.38935026868588185
0.17903753199971106 0.4587200781631655 0.40889106008793363
0.17922617699969123 0.457743038593063 0.4333170493404983
0.17941495199966084 0.45676599902296044 0.4538348803126526
0.1796030789996621 0.45969711773326827 0.4811919882755251
0.17979166899976917 0.46165119687347334 0.5017098192476794
0.17997981500002425 0.4587200781631655 0.5192965315095261
0.1801685529999304 0.45969711773326827 0.5329750854909623
0.18035745799988945 0.45969711773326827 0.540791402051783
0.1805463629998485 0.4606741573033708 0.5466536394723986
0.18073543399987102 0.4606741573033708 0.5486077186126037
0.18092369099986172 0.45969711773326827 0.5554469956033219
0.1811130029996093 0.45969711773326827 0.5564240351734244
0.18130242600000201 0.457743038593063 0.5613092330239375
0.18149218299959102 0.45676599902296044 0.5495847581827065
0.18168125499960297 0.45481191988275516 0.5378602833414754
0.1818706219996784 0.4538348803126526 0.5183194919394236
0.18205919399997583 0.45676599902296044 0.5105031753786029
0.18225909800003137 0.4557889594528579 0.49193942354665365
0.1824487809999482 0.44894968246213973 0.4831460674157304
0.18263794499989672 0.4509037616023448 0.47239863214460187
0.1828265169997394 0.44894968246213973 0.46165119687347334
0.1830149029997301 0.4479726428920372 0.44894968246213973
0.18320330799997464 0.4450415241817294 0.42159257449926724
0.18339123099985954 0.4460185637518319 0.3952125061064973
0.1835793579998608 0.441133365901319 0.38251099169516367
0.18376887399972475 0.441133365901319 0.3854421104054715
0.18395759399982126 0.4430874450415241 0.3932584269662922
0.18414623899980143 0.441133365901319 0.40986809965803617
0.1843348289999085 0.4450415241817294 0.4186614557889594
0.18452312299996265 0.44406448461162684 0.431362970200293
0.1847116389999428 0.44406448461162684 0.43917928676111373
0.18490154299979622 0.441133365901319 0.44992672203224227
0.18509037399962835 0.44406448461162684 0.44992672203224227
0.18527900099979888 0.44211040547142155 0.4587200781631655
0.18546764699976848 0.4450415241817294 0.4802149487054226
0.18565592200002357 0.4430874450415241 0.5153883732291158
0.18584512299958078 0.4460185637518319 0.5622862725940401
0.18603410199966675 0.44699560332193444 0.6003908158280411
0.18622272899983727 0.44894968246213973 0.6394723986321447
0.18642067099972337 0.44699560332193444 0.6560820713238886
0.1866102049998517 0.44992672203224227 0.6707376648754275
0.18679896200001167 0.4509037616023448 0.6746458231558379
0.18698736699980145 0.45481191988275516 0.6785539814362482
0.18717595699990852 0.4587200781631655 0.6765999022960429
0.18736530599971957 0.46165119687347334 0.6707376648754275
0.1875535439999112 0.46458231558378116 0.6678065461651197
0.1877422449997539 0.4665363947239862 0.6580361504640937
0.1879309459995966 0.46946751343429405 0.6424035173424523
0.18811977699988347 0.4684904738641915 0.6170004885197851
0.18830858899991654 0.46946751343429405 0.5876893014167073
0.18849714199996015 0.4665363947239862 0.5583781143136297
0.18868525099969702 0.4684904738641915 0.5163654127992183
0.1888735809998252 0.46946751343429405 0.4782608695652173
0.18906194900000628 0.467513434294089 0.43917928676111373
0.18925042799992298 0.46262823644357587 0.40986809965803617
0.18943975899992438 0.457743038593063 0.38446507083536874
0.18962912599999981 0.4528578407425501 0.35906204201270153
0.18981788299970503 0.45188080117244755 0.33170493404982904
0.19000699199978044 0.44406448461162684 0.29750854909623836
0.1901953409997077 0.43917928676111373 0.2681973619931608
0.19038517199987837 0.42940889106008795 0.2437713727405959
0.1905745209996894 0.42940889106008795 0.22032242305813377
0.19076288899987048 0.4235466536394723 0.20078163165608198
0.19095084899981885 0.41963849535906195 0.19687347337567163
0.19113932799973554 0.42159257449926724 0.20273571079628727
0.19132793599965225 0.42452369320957506 0.20664386907669763
0.19151648899969587 0.42256961406936977 0.2232535417684416
0.1917058009998982 0.42940889106008795 0.2437713727405959
0.19189429899961397 0.4264777723497801 0.265266243282853
0.1920827039998585 0.431362970200293 0.2867611138251098
0.19227155299995502 0.4303859306301905 0.29946262823644365
0.1924600129996179 0.4352711284807034 0.31900341963849543
0.19264858499991533 0.4382022471910112 0.3307278944797265
0.19283711899970513 0.43722520762090866 0.35417684416218864
0.19302554299974872 0.4401563263312165 0.3834880312652662
0.193214020999676 0.4382022471910112 0.40986809965803617
0.19340237099959268 0.44211040547142155 0.43722520762090866
0.19359108999969976 0.44211040547142155 0.44894968246213973
0.19377997699984917 0.4460185637518319 0.44699560332193444
0.19396784399987155 0.4460185637518319 0.4255007327796776
0.19415858200000002 0.44699560332193444 0.3854421104054715
0.19435517199963215 0.44699560332193444 0.33952125061064975
0.19454348499994012 0.44894968246213973 0.2984855886663409
0.1947311669996452 0.4528578407425501 0.27699071812408405
0.19491949799976283 0.4509037616023448 0.26233512457254515
0.19510749499977464 0.4538348803126526 0.2515876893014166
0.19529597399969134 0.45188080117244755 0.2457254518808012
0.19548369399990406 0.4528578407425501 0.2525647288715194
0.19567182099990532 0.45481191988275516 0.2633121641426477
0.19585998499997004 0.45188080117244755 0.2867611138251098
0.19604768599992894 0.4587200781631655 0.31900341963849543
0.19623516499996185 0.45676599902296044 0.35906204201270153
0.19642279199979384 0.45676599902296044 0.39912066438690763
0.1966108449996682 0.45676599902296044 0.4460185637518319
0.19679880499961655 0.45969711773326827 0.4811919882755251
0.19698700599974472 0.45676599902296044 0.5144113336590133
0.19717524499992578 0.4636052760136786 0.5417684416218858
0.19736316799981068 0.45969711773326827 0.5642403517342451
0.19755075800003397 0.4587200781631655 0.5828041035661944
0.19773827399967558 0.457743038593063 0.5876893014167073
0.19792656799972974 0.457743038593063 0.5896433805569126
0.19811445400000594 0.46165119687347334 0.5857352222765022
0.1983041729999968 0.46165119687347334 0.5759648265754762
0.19849370799965982 0.457743038593063 0.567171470444553
0.1986825389999467 0.4557889594528579 0.5456765999022961
0.19887116599966248 0.4606741573033708 0.5290669272105519
0.19905956999991758 0.4587200781631655 0.5075720566682951
0.19924808599989774 0.45676599902296044 0.495847581827064
0.19943684299960296 0.4587200781631655 0.4938935026868587
0.1996265439997842 0.457743038593063 0.4978016609672691
0.19981567099966924 0.45676599902296044 0.5056179775280898
0.20000726099988242 0.45969711773326827 0.5065950170981925
0.20019679600000018 0.45676599902296044 0.4929164631167562
0.20038549699984287 0.45969711773326827 0.47728382999511476
0.20057401299982303 0.46165119687347334 0.4587200781631655
0.20076278799979264 0.45481191988275516 0.4430874450415241
0.20095178499968824 0.457743038593063 0.4352711284807034
0.20114126399994348 0.4538348803126526 0.4352711284807034
0.20133011299958525 0.457743038593063 0.441133365901319
0.20151825899984033 0.45481191988275516 0.44992672203224227
0.20170660799976758 0.4557889594528579 0.47239863214460187
0.20189536499992755 0.4557889594528579 0.49682462139716654
0.20208417699996062 0.4528578407425501 0.5310210063507572
0.20227500800001508 0.4557889594528579 0.5495847581827065
0.20246150499997384 0.4557889594528579 0.5701025891548608
0.20264733599969986 0.45188080117244755 0.5857352222765022
0.20283346299993354 0.45188080117244755 0.5974596971177333
0.20301914499987106 0.45188080117244755 0.6082071323888618
0.20320486499986146 0.44992672203224227 0.6160234489496825
0.20339041799979896 0.44992672203224227 0.621885686370298
0.2035763229996519 0.44992672203224227 0.6140693698094772
0.20376246899968464 0.4509037616023448 0.6023448949682462
0.2039483549997385 0.4509037616023448 0.5857352222765022
0.20413344500002495 0.45188080117244755 0.5622862725940401
0.20431892399983553 0.45188080117244755 0.5319980459208598
0.2045045689997096 0.45188080117244755 0.4831460674157304
0.20468934499967872 0.4509037616023448 0.431362970200293
0.20487497199974314 0.44894968246213973 0.37957987298485585
0.20506145099989226 0.4528578407425501 0.3365901319003419
0.20524800399971355 0.44894968246213973 0.30727894479726436
0.20543403800002125 0.4509037616023448 0.2906692721055202
0.2056202209996627 0.44894968246213973 0.28480703468490476
0.20580603299958966 0.44894968246213973 0.2867611138251098
0.20599299299965423 0.44992672203224227 0.3004396678065462
0.20617954599993027 0.45188080117244755 0.32193453834880303
0.2064070989999891 0.44992672203224227 0.3453834880312652
0.20659744799968394 0.44894968246213973 0.36492427943331696
0.20678590799980157 0.44992672203224227 0.3883732291157791
0.20697460899964426 0.44992672203224227 0.40693698094772834
0.20716327399986767 0.44699560332193444 0.42256961406936977
0.20735164099960457 0.44699560332193444 0.4401563263312165
0.20754063899994435 0.44699560332193444 0.44894968246213973
0.2077292099997976 0.44894968246213973 0.46165119687347334
0.20791811499975665 0.44699560332193444 0.47142159257449934
0.2081070379999801 0.44894968246213973 0.47923790913532005
0.20829531299978044 0.45188080117244755 0.4811919882755251
0.20848347799983458 0.44992672203224227 0.48216902784562765
0.20867197500001566 0.4528578407425501 0.4811919882755251
0.20886089799978436 0.4528578407425501 0.4831460674157304
0.20904693299962673 0.4587200781631655 0.48412310698583294
0.20923244899995552 0.46165119687347334 0.4880312652662433
0.20941889099958644 0.4655593551538837 0.48900830483634583
0.20960531399987303 0.467513434294089 0.48900830483634583
0.20979092199968363 0.4763067904250122 0.486077186126038
0.2099760129999595 0.4753297508549097 0.486077186126038
0.21016237999992882 0.4763067904250122 0.4851001465559355
0.21035808099986752 0.4704445530043966 0.47728382999511476
0.21054639399972075 0.47239863214460187 0.4733756717147044
0.21073448399965855 0.4733756717147044 0.46165119687347334
0.2109227959999771 0.4665363947239862 0.4509037616023448
0.21111116399970342 0.46458231558378116 0.44992672203224227
0.21129951299963068 0.467513434294089 0.43917928676111373
0.2114874730000338 0.457743038593063 0.431362970200293
0.21167630399986592 0.4557889594528579 0.4206155349291647
0.2118652829999519 0.45188080117244755 0.41963849535906195
0.2120534279997628 0.44699560332193444 0.41670737664875435
0.21224103699978514 0.44406448461162684 0.4157303370786516
0.21242920099984985 0.44211040547142155 0.4059599413776258
0.21261775399989347 0.441133365901319 0.39423546653639474
0.21280675099978907 0.43917928676111373 0.37957987298485585
0.21299458199973742 0.44406448461162684 0.3639472398632144
0.21318357899963303 0.441133365901319 0.3502686858817783
0.21337231799998335 0.4450415241817294 0.35222276502198335
0.2135607219997837 0.4450415241817294 0.3688324377137273
0.21374918299989076 0.4450415241817294 0.40009770395701016
0.21393721699996604 0.44699560332193444 0.44992672203224227
0.2141255110000202 0.4460185637518319 0.5046409379579873
0.2143148969998947 0.44699560332193444 0.5574010747435272
0.21450372799972683 0.4430874450415241 0.5984367366878358
0.214692150999781 0.441133365901319 0.6170004885197851
0.21488116699993043 0.4382022471910112 0.6355642403517343
0.21507723799959422 0.4382022471910112 0.6394723986321447
0.21527180999964912 0.43722520762090866 0.6355642403517343
0.21546206699986215 0.431362970200293 0.6209086468001954
0.21565121200001158 0.4303859306301905 0.6042989741084515
0.21584059799988609 0.42940889106008795 0.5925744992672204
0.21602878099974987 0.42745481191988266 0.5730337078651686
0.21621674099969823 0.4264777723497801 0.5613092330239375
0.2164048869999533 0.42745481191988266 0.5388373229115779
0.21659323599988056 0.4255007327796776 0.5134342940889105
0.21678225200002998 0.42940889106008795 0.4782608695652173
0.2169706199997563 0.43429408891060084 0.431362970200293
0.21715830199991615 0.4333170493404983 0.38153395212506114
0.21734666999964247 0.4401563263312165 0.3453834880312652
0.2175338339998234 0.4430874450415241 0.3307278944797265
0.21772144299984575 0.4450415241817294 0.3404982901807523
0.21790938499998447 0.4460185637518319 0.36492427943331696
0.21809747499992227 0.4509037616023448 0.3961895456765998
0.2182886759997018 0.4538348803126526 0.41475329750854906
0.21847728399961852 0.4557889594528579 0.4186614557889594
0.21866583699966213 0.4538348803126526 0.41963849535906195
0.21885414899998068 0.457743038593063 0.40986809965803617
0.21904209099966465 0.4587200781631655 0.4010747435271129
0.21922979199962356 0.4557889594528579 0.3952125061064973
0.21941767899988918 0.457743038593063 0.3961895456765998
0.21960569499970006 0.457743038593063 0.4010747435271129
0.2197937659998388 0.4557889594528579 0.4059599413776258
0.21998154099992462 0.4509037616023448 0.4108451392281387
0.22016851999978826 0.44894968246213973 0.41963849535906195
0.22035622099974717 0.44699560332193444 0.4323400097703958
0.22054288499975883 0.45188080117244755 0.44894968246213973
0.22073114199974952 0.4479726428920372 0.46262823644357587
0.22091906499963443 0.44894968246213973 0.4802149487054226
0.22110756299980494 0.45188080117244755 0.48900830483634583
0.2212957449996793 0.45188080117244755 0.4978016609672691
0.22148342799982856 0.45188080117244755 0.5065950170981925
0.22167099899979803 0.4557889594528579 0.5095261358085001
0.22185873799980982 0.45481191988275516 0.5085490962383976
0.22204795699963142 0.4528578407425501 0.5036638983878847
0.22226467599966782 0.4528578407425501 0.4880312652662433
0.2224652109998715 0.4557889594528579 0.47239863214460187
0.22265631899972504 0.4528578407425501 0.45481191988275516
0.22284570499959955 0.4538348803126526 0.44406448461162684
0.2230356289996962 0.4606741573033708 0.43429408891060084
0.22322486699977162 0.45481191988275516 0.4235466536394723
0.22341451199963558 0.457743038593063 0.42256961406936977
0.22360360199991192 0.4587200781631655 0.4206155349291647
0.22379191499976514 0.4587200781631655 0.41963849535906195
0.22398070799999914 0.46262823644357587 0.4264777723497801
0.22416968699963036 0.46262823644357587 0.4460185637518319
0.22435925899981157 0.4587200781631655 0.46262823644357587
0.22454829299977064 0.4606741573033708 0.48216902784562765
0.2247372529996028 0.46165119687347334 0.5036638983878847
0.22492608399988967 0.46165119687347334 0.5261358085002443
0.22511471099960545 0.4587200781631655 0.5515388373229115
0.22530263499993453 0.46165119687347334 0.5740107474352711
0.22549168699970323 0.46262823644357587 0.6042989741084515
0.225680999999895 0.46165119687347334 0.6003908158280411
0.2258693119997588 0.4606741573033708 0.5808500244259893
0.22605799399980242 0.45676599902296044 0.550561797752809
0.22625625099999525 0.45676599902296044 0.5114802149487054
0.22644626700002846 0.4606741573033708 0.4753297508549097
0.22663494899961734 0.4636052760136786 0.44992672203224227
0.22682355799997822 0.457743038593063 0.42745481191988266
0.22701153699972565 0.45969711773326827 0.4176844162188569
0.22720034899975872 0.45481191988275516 0.4206155349291647
0.22738801299965417 0.45481191988275516 0.412799218368344
0.22757656599969778 0.45481191988275516 0.412799218368344
0.22776435999958267 0.4557889594528579 0.40693698094772834
0.2279528389999541 0.44699560332193444 0.3961895456765998
0.22814185499964879 0.4479726428920372 0.38641914997557403
0.2283340369999678 0.4460185637518319 0.3639472398632144
0.2285225900000114 0.4430874450415241 0.33756717147044446
0.22871132799991756 0.4401563263312165 0.30727894479726436
0.22890051099966513 0.441133365901319 0.29457743038593054
0.22909000799973 0.4382022471910112 0.2867611138251098
0.22927802399999564 0.43722520762090866 0.29653150952613583
0.22946689199989123 0.441133365901319 0.3063019052271616
0.22965533399974447 0.43624816805080613 0.3141182217879823
0.2298437759995977 0.4401563263312165 0.3277967757694187
0.2300324399998317 0.4401563263312165 0.3434294088910601
0.2302235849997487 0.4401563263312165 0.3629702002931119
0.2304238969995822 0.4401563263312165 0.3805569125549584
0.23061282099979508 0.441133365901319 0.39716658524670256
0.23080044799962707 0.441133365901319 0.4157303370786516
0.23098864899975524 0.44211040547142155 0.4284318514899854
0.23117690499975652 0.4401563263312165 0.44211040547142155
0.23136592099990594 0.441133365901319 0.457743038593063
0.23155445599968516 0.44211040547142155 0.4665363947239862
0.23174254599962296 0.441133365901319 0.4880312652662433
0.2319312279996666 0.44406448461162684 0.5114802149487054
0.23212350299991158 0.4479726428920372 0.5329750854909623
0.23231214899988117 0.4460185637518319 0.5486077186126037
0.23250157199981913 0.44406448461162684 0.5564240351734244
0.23269001399967237 0.44211040547142155 0.5476306790425012
0.23287906699988525 0.43917928676111373 0.522227650219834
0.23306702699983362 0.44894968246213973 0.486077186126038
0.23325450599986652 0.44699560332193444 0.44406448461162684
0.23344231900000523 0.45188080117244755 0.4049829018075233
0.23363081599973157 0.44894968246213973 0.38446507083536874
0.23381884999980684 0.4479726428920372 0.37469467513434296
0.2340068479998081 0.4509037616023448 0.3776257938446508
0.2341947899999468 0.45188080117244755 0.3932584269662922
0.23438447199987422 0.45481191988275516 0.4137762579384465
0.2345722840000235 0.4557889594528579 0.431362970200293
0.23475992999965456 0.4509037616023448 0.4401563263312165
0.23494764999986728 0.4557889594528579 0.4460185637518319
0.2351353509998262 0.45481191988275516 0.4450415241817294
0.23532256999988022 0.4557889594528579 0.43917928676111373
0.2355104569996911 0.45481191988275516 0.4333170493404983
0.23569887999974526 0.4538348803126526 0.4264777723497801
0.23588702600000033 0.457743038593063 0.4235466536394723
0.2360742079999909 0.4606741573033708 0.4284318514899854
0.23626187199988635 0.4557889594528579 0.43624816805080613
0.23644874000001437 0.4538348803126526 0.4352711284807034
0.23663658899977236 0.45188080117244755 0.43722520762090866
0.23682401299993217 0.45969711773326827 0.44211040547142155
0.23701208399961615 0.45969711773326827 0.44211040547142155
0.23719959999971252 0.4587200781631655 0.4450415241817294
0.23738763499977722 0.45969711773326827 0.4509037616023448
0.23757524299981014 0.457743038593063 0.4665363947239862
0.23776333299974794 0.4606741573033708 0.4704445530043966
0.23795040499999232 0.4587200781631655 0.4811919882755251
0.2381376239995916 0.4606741573033708 0.48900830483634583
0.23835089899966988 0.4587200781631655 0.4929164631167562
0.23854084100003092 0.4606741573033708 0.5017098192476794
0.23872931999994762 0.4587200781631655 0.5017098192476794
0.23891826199997013 0.4587200781631655 0.5114802149487054
0.2391062219999185 0.4587200781631655 0.5192965315095261
0.23929533000000447 0.45481191988275516 0.5183194919394236
0.23948390199984715 0.45676599902296044 0.512457254518808
0.23967223299996476 0.457743038593063 0.5095261358085001
0.23986074899994492 0.44992672203224227 0.5007327796775769
0.24004857899990384 0.4528578407425501 0.49877870053737183
0.24023663199977818 0.45188080117244755 0.48900830483634583
0.24042466699984288 0.44992672203224227 0.48412310698583294
0.24061308999989706 0.44894968246213973 0.47239863214460187
0.24080195799979265 0.4509037616023448 0.45676599902296044
0.24099071499995262 0.44699560332193444 0.4450415241817294
0.24117884199995387 0.44894968246213973 0.44211040547142155
0.2413666539996484 0.4460185637518319 0.44406448461162684
0.24155440999993516 0.4430874450415241 0.45188080117244755
0.2417420189999575 0.44894968246213973 0.46262823644357587
0.2419308869998531 0.44992672203224227 0.4802149487054226
0.24211844000001292 0.4479726428920372 0.4929164631167562
0.24230771499969705 0.44699560332193444 0.5075720566682951
0.24249617499981468 0.44894968246213973 0.5183194919394236
0.24268376499958322 0.4509037616023448 0.5212506106497312
0.24287148499979594 0.45188080117244755 0.5202735710796287
0.24305962999960684 0.4538348803126526 0.5173424523693209
0.24324721999983012 0.4509037616023448 0.5114802149487054
0.24343505099977847 0.4528578407425501 0.4938935026868587
0.24362273399992773 0.4528578407425501 0.4880312652662433
0.24381074999973862 0.4509037616023448 0.4811919882755251
0.24399828399964463 0.4528578407425501 0.47435271128480694
0.24418654099963533 0.4509037616023448 0.46946751343429405
0.24437400099986917 0.44894968246213973 0.46262823644357587
0.2445624429997224 0.45188080117244755 0.45676599902296044
0.2447502369996073 0.4509037616023448 0.4460185637518319
0.2449385859999893 0.45188080117244755 0.42940889106008795
0.24512630599974727 0.44699560332193444 0.4059599413776258
0.245314598999812 0.4509037616023448 0.3913043478260869
0.24550289299986616 0.45188080117244755 0.37274059599413767
0.24569046499982505 0.44992672203224227 0.35417684416218864
0.2458781469999849 0.44894968246213973 0.33463605276013686
0.2460664589998487 0.4538348803126526 0.32681973619931615
0.24626230799958648 0.44894968246213973 0.3258426966292134
0.24645106499974645 0.44699560332193444 0.3365901319003419
0.2466396739996526 0.4460185637518319 0.35222276502198335
0.2468276159997913 0.4450415241817294 0.37274059599413767
0.24701507600002515 0.4430874450415241 0.39912066438690763
0.2472036469998784 0.44699560332193444 0.43722520762090866
0.2473916079998162 0.44992672203224227 0.46458231558378116
0.24757940099971165 0.44699560332193444 0.495847581827064
0.24776906499982942 0.44894968246213973 0.5319980459208598
0.24795834099995773 0.4528578407425501 0.5710796287249633
0.24814704199980042 0.4538348803126526 0.6082071323888618
0.24833629799968548 0.4538348803126526 0.6394723986321447
0.24852470299993001 0.457743038593063 0.6629213483146068
0.24871345999963523 0.4606741573033708 0.6687835857352222
0.24890208699980576 0.45969711773326827 0.6678065461651197
0.24908969499983868 0.4636052760136786 0.661944308744504
0.24927726699979758 0.4636052760136786 0.6443575964826576
0.2494650419998834 0.46458231558378116 0.6140693698094772
0.24965285400003268 0.4606741573033708 0.5828041035661944
0.2498410549997061 0.45969711773326827 0.550561797752809
0.2500280340000245 0.45969711773326827 0.5085490962383976
0.2502162910000152 0.457743038593063 0.4655593551538837
0.25040649199991094 0.4538348803126526 0.4264777723497801
0.25059448899992276 0.4538348803126526 0.38935026868588185
0.2507820799996807 0.44894968246213973 0.3512457254518808
0.25097031799987235 0.44894968246213973 0.31216414264777725
0.25115833399968324 0.44406448461162684 0.27210552027357116
0.2513462379997691 0.441133365901319 0.22129946262823652
0.25153373599960105 0.44211040547142155 0.1861260381045433
0.2517204739997396 0.4430874450415241 0.1763556424035173
0.25190893399985725 0.441133365901319 0.1861260381045433
0.25209689499979504 0.4401563263312165 0.21446018563751834
0.2522849479996694 0.4382022471910112 0.2515876893014166
0.2524737409999034 0.4382022471910112 0.303370786516854
0.25266157199985173 0.44406448461162684 0.3502686858817783
0.2528507179999906 0.441133365901319 0.38739618954567656
0.2530387519996111 0.44406448461162684 0.4235466536394723
0.25322691599967584 0.45188080117244755 0.4528578407425501
0.2534147649998886 0.4479726428920372 0.4733756717147044
0.2536024669998369 0.4450415241817294 0.4938935026868587
0.25379029699979583 0.44699560332193444 0.512457254518808
0.25397799799975473 0.45188080117244755 0.5261358085002443
0.25416601400002037 0.44992672203224227 0.5329750854909623
0.2543551409999054 0.44992672203224227 0.5349291646311676
0.25454299099965283 0.4509037616023448 0.5319980459208598
0.2547308029998021 0.45481191988275516 0.522227650219834
0.2549181149997821 0.4538348803126526 0.512457254518808
0.2551063719997728 0.4538348803126526 0.5056179775280898
0.25529405399993266 0.45481191988275516 0.5163654127992183
0.25548190399968007 0.45969711773326827 0.522227650219834
0.2556698270000197 0.457743038593063 0.5290669272105519
0.2558583059999364 0.4587200781631655 0.5349291646311676
0.2560460439999588 0.4606741573033708 0.5437225207620908
0.25623359699966386 0.45969711773326827 0.5495847581827065
0.2564212049996968 0.4606741573033708 0.5515388373229115
0.2566097769999942 0.4606741573033708 0.5564240351734244
0.25679782999986855 0.4606741573033708 0.5740107474352711
0.25698608699985925 0.46165119687347334 0.5945285784074255
0.2571739909999451 0.4606741573033708 0.6150464093795798
0.2573628219997772 0.4655593551538837 0.6267708842208108
0.25755007899988414 0.46262823644357587 0.6277479237909136
0.25773744699972667 0.46165119687347334 0.6121152906692722
0.2579250740000134 0.46165119687347334 0.5876893014167073
0.2581129969998983 0.46458231558378116 0.5691255495847583
0.2583032539996566 0.45969711773326827 0.550561797752809
0.25849162099984824 0.4655593551538837 0.5427454811919883
0.2586800819999553 0.46262823644357587 0.5349291646311676
0.25886820899995655 0.46165119687347334 0.524181729360039
0.2590557989997251 0.4606741573033708 0.5183194919394236
0.25924361099987436 0.46165119687347334 0.49877870053737183
0.2594311640000342 0.4606741573033708 0.4704445530043966
0.2596190129997922 0.4587200781631655 0.42159257449926724
0.25980702899960306 0.45969711773326827 0.36492427943331696
0.2599951009997312 0.457743038593063 0.30727894479726436
0.2601828939996267 0.45481191988275516 0.2662432828529555
0.2603707069997654 0.44992672203224227 0.24181729360039084
0.26055918499969266 0.44992672203224227 0.23790913531998048
0.26074790499978917 0.4460185637518319 0.2437713727405959
0.2609362359999068 0.44211040547142155 0.25744992672203226
0.26112449199990806 0.4382022471910112 0.28285295554469947
0.26131243399959203 0.43917928676111373 0.31704934049829014
0.26150030199960383 0.43722520762090866 0.3610161211529066
0.26168794799968964 0.4352711284807034 0.40986809965803617
0.26187640799980727 0.4352711284807034 0.46165119687347334
0.26206420199969216 0.43624816805080613 0.5114802149487054
0.2622601250000116 0.4352711284807034 0.5476306790425012
0.2624488999999812 0.43624816805080613 0.576941866145579
0.2626366749996123 0.43624816805080613 0.5935515388373229
0.26282520999984627 0.43917928676111373 0.595505617977528
0.263013817999763 0.4430874450415241 0.58866634098681
0.26320218599994405 0.44211040547142155 0.5691255495847583
0.26339020199975494 0.44406448461162684 0.5446995603321934
0.26357834800001 0.4460185637518319 0.522227650219834
0.263766103999842 0.44894968246213973 0.49682462139716654
0.26395517599985396 0.4509037616023448 0.4704445530043966
0.26414552500000354 0.44992672203224227 0.441133365901319
0.2643340409999837 0.45188080117244755 0.39716658524670256
0.26452220499959367 0.44894968246213973 0.33756717147044446
0.2647102209998593 0.44992672203224227 0.26722032242305804
0.2648984219999875 0.4509037616023448 0.19491939423546656
0.2650866969997878 0.4479726428920372 0.13531998045920868
0.2652747869997256 0.45188080117244755 0.09526135808500236
0.2654630809997798 0.45188080117244755 0.08255984367366875
0.2656513189999714 0.4528578407425501 0.09623839765510511
0.2658397239997612 0.4528578407425501 0.12359550561797761
0.2660272579996672 0.45188080117244755 0.16463116756228624
0.2662153109999963 0.4538348803126526 0.20664386907669763
0.2664046789996064 0.4528578407425501 0.24963361016121155
0.2665924359998826 0.45676599902296044 0.29457743038593054
0.26678022899977805 0.4538348803126526 0.33952125061064975
0.2669679859995995 0.4557889594528579 0.3834880312652662
0.26715590899993913 0.4538348803126526 0.4176844162188569
0.26734375899968654 0.45676599902296044 0.45969711773326827
0.2675321819997407 0.45676599902296044 0.48705422569614076
0.2677195869996467 0.4557889594528579 0.5007327796775769
0.267907620999722 0.45481191988275516 0.5065950170981925
0.2680951739998818 0.457743038593063 0.512457254518808
0.2682836719995976 0.457743038593063 0.5202735710796287
0.26847133599994777 0.45969711773326827 0.5359062042012701
0.26866027699998085 0.45676599902296044 0.5564240351734244
0.26884875599989755 0.45969711773326827 0.6033219345383487
0.2690375869997297 0.4557889594528579 0.6580361504640937
0.2692263809999531 0.457743038593063 0.714704445530044
0.26941411899997547 0.4587200781631655 0.7723497801660968
0.2696024869997018 0.4587200781631655 0.8036150464093796
0.269790594999904 0.46165119687347334 0.826086956521739
0.26997866700003215 0.457743038593063 0.824132877381534
0.27016681199984305 0.45481191988275516 0.7909135319980458
0.270356327999707 0.4528578407425501 0.7381533952125061
0.2705442509995919 0.45676599902296044 0.6805080605764533
0.27073237799959315 0.4538348803126526 0.6140693698094772
0.2709210059997531 0.45188080117244755 0.5642403517342451
0.2711089469999024 0.45481191988275516 0.5192965315095261
0.271297592999872 0.45481191988275516 0.47728382999511476
0.27148549799994726 0.45188080117244755 0.43722520762090866
0.2716732730000331 0.45481191988275516 0.4108451392281387
0.27186065899968526 0.4557889594528579 0.37274059599413767
0.27204813799971816 0.45481191988275516 0.3424523693209576
0.2722359689996665 0.4538348803126526 0.31216414264777725
0.2724238549999427 0.4509037616023448 0.27699071812408405
0.2726119639996796 0.44894968246213973 0.2359550561797752
0.2727998129998923 0.4460185637518319 0.18808011724474838
0.27298792099963975 0.44406448461162684 0.14509037616023446
0.2731766599999901 0.44211040547142155 0.12261846604787485
0.27336489799972696 0.4430874450415241 0.1187103077674645
0.27355293199980224 0.4382022471910112 0.13825109916951628
0.2737409299998035 0.441133365901319 0.18026380068392767
0.2739282229999844 0.4382022471910112 0.23497801660967266
0.2741156469996895 0.4401563263312165 0.2906692721055202
0.2743039769998177 0.43624816805080613 0.3434294088910601
0.2744922899996709 0.43917928676111373 0.3883732291157791
0.2746800089998942 0.441133365901319 0.4264777723497801
0.2748679329997685 0.43917928676111373 0.45676599902296044
0.2750554489998649 0.441133365901319 0.48900830483634583
0.27524263099985546 0.4430874450415241 0.5163654127992183
0.27543027699994127 0.44211040547142155 0.5368832437713726
0.2756175889999213 0.44699560332193444 0.5554469956033219
0.2758047899997109 0.4479726428920372 0.5691255495847583
0.2759917499997755 0.44894968246213973 0.5759648265754762
0.27617935899979784 0.4528578407425501 0.5691255495847583
0.2763668559996404 0.44894968246213973 0.5632633121641426
0.2765553539998109 0.44992672203224227 0.5495847581827065
0.27674240699980146 0.4538348803126526 0.5329750854909623
0.2769296079995911 0.4528578407425501 0.5183194919394236
0.2771176049996029 0.45188080117244755 0.5017098192476794
0.27730576899966763 0.4538348803126526 0.48216902784562765
0.27749358199980634 0.45481191988275516 0.47142159257449934
0.27768104199958543 0.457743038593063 0.46458231558378116
0.2778680579999673 0.45676599902296044 0.46262823644357587
0.2780547959996511 0.457743038593063 0.45969711773326827
0.278256811999654 0.4587200781631655 0.45676599902296044
0.27844825399961337 0.46165119687347334 0.4509037616023448
0.2786364359999425 0.45969711773326827 0.4450415241817294
0.2788252669997746 0.4636052760136786 0.4401563263312165
0.27901361599970187 0.4587200781631655 0.43429408891060084
0.27920150199997806 0.4636052760136786 0.43624816805080613
0.2793896479997784 0.4606741573033708 0.4401563263312165
0.27957738599980075 0.4606741573033708 0.44211040547142155
0.27976564299979145 0.46458231558378116 0.4460185637518319
0.27995380699985617 0.4606741573033708 0.4538348803126526
0.280141581999942 0.46165119687347334 0.4655593551538837
0.28032948700001725 0.4606741573033708 0.47728382999511476
0.2805172069997752 0.457743038593063 0.4948705422569615
0.2807053149999774 0.4587200781631655 0.5065950170981925
0.2808930159999363 0.45969711773326827 0.5134342940889105
0.28108101399993757 0.46165119687347334 0.5075720566682951
0.2812691780000023 0.45676599902296044 0.5036638983878847
0.2814579339997181 0.45676599902296044 0.49877870053737183
0.28164561699986734 0.4557889594528579 0.48998534440644836
0.2818342439995831 0.45969711773326827 0.47728382999511476
0.2820221119995949 0.4557889594528579 0.46946751343429405
0.28220979399975477 0.4557889594528579 0.4655593551538837
0.2823990879996927 0.45676599902296044 0.46262823644357587
0.28258671499997945 0.45481191988275516 0.4655593551538837
0.2827736749995893 0.457743038593063 0.4753297508549097
0.282961301999876 0.45676599902296044 0.467513434294089
0.2831493179996869 0.45969711773326827 0.44699560332193444
0.28333675999965635 0.45481191988275516 0.42159257449926724
0.2835242579999431 0.4557889594528579 0.39912066438690763
0.28371149599979617 0.4557889594528579 0.3776257938446508
0.2838999379996494 0.4509037616023448 0.3561309233023937
0.2840880279995872 0.4479726428920372 0.3414753297508548
0.28427504399996906 0.44894968246213973 0.3385442110405472
0.28446404099986466 0.44992672203224227 0.3404982901807523
0.284651871999813 0.45188080117244755 0.348314606741573
0.2848397769998883 0.4460185637518319 0.36003908158280407
0.28502825499981554 0.44992672203224227 0.37274059599413767
0.2852166229999966 0.44211040547142155 0.376648754274548
0.28540476899979694 0.441133365901319 0.3854421104054715
0.2855924509999568 0.44406448461162684 0.39228138739618945
0.28578011499985223 0.44894968246213973 0.4049829018075233
0.285968297999716 0.4479726428920372 0.4157303370786516
0.28615551799975947 0.4460185637518319 0.4333170493404983
0.28635210799984634 0.4509037616023448 0.45676599902296044
0.2865409199998794 0.4509037616023448 0.47728382999511476
0.2867290839999441 0.4538348803126526 0.5026868588177822
0.28691776599998775 0.457743038593063 0.524181729360039
0.28710611599990443 0.45481191988275516 0.5446995603321934
0.28729389099999025 0.45481191988275516 0.5622862725940401
0.2874835359998542 0.457743038593063 0.576941866145579
0.28767197799970745 0.45481191988275516 0.5847581827063997
0.2878601049997087 0.45676599902296044 0.58866634098681
0.28804849199968885 0.45969711773326827 0.5867122618466047
0.2882366189996901 0.4557889594528579 0.5720566682950659
0.28842407899992395 0.45481191988275516 0.5593551538837322
0.2886114650000309 0.45481191988275516 0.5398143624816805
0.28879901799973595 0.45969711773326827 0.5261358085002443
0.28898690500000157 0.4528578407425501 0.522227650219834
0.28917453199983356 0.44894968246213973 0.5202735710796287
0.2893621399998665 0.44992672203224227 0.5310210063507572
0.28954982300001575 0.44894968246213973 0.5398143624816805
0.28973696799994286 0.4528578407425501 0.5378602833414754
0.2899240579999969 0.44894968246213973 0.522227650219834
0.2901123329997972 0.4450415241817294 0.4929164631167562
0.29030212699990443 0.4479726428920372 0.467513434294089
0.29049021699984223 0.44699560332193444 0.4528578407425501
0.29067808499985404 0.4509037616023448 0.45969711773326827
0.29086517499990805 0.44992672203224227 0.4684904738641915
0.29105219099983515 0.45188080117244755 0.467513434294089
0.29123983599993153 0.44992672203224227 0.47142159257449934
0.29142674099966825 0.44992672203224227 0.4753297508549097
0.29161416499982806 0.4509037616023448 0.48998534440644836
0.29180203199985044 0.45676599902296044 0.512457254518808
0.2919909369998095 0.4538348803126526 0.5173424523693209
0.29217826799958857 0.44894968246213973 0.5075720566682951
0.2923665059997802 0.44894968246213973 0.48900830483634583
0.292554151999866 0.44992672203224227 0.4665363947239862
0.29274211199981437 0.44699560332193444 0.457743038593063
0.2929294799996569 0.45188080117244755 0.4606741573033708
0.29311703299981673 0.4460185637518319 0.4802149487054226
0.29330458599997655 0.44894968246213973 0.5065950170981925
0.29349210199961817 0.4479726428920372 0.5300439667806547
0.29367998799989437 0.44699560332193444 0.5280898876404494
0.2938672999998744 0.4450415241817294 0.48998534440644836
0.2940545569999813 0.4430874450415241 0.4284318514899854
0.29424960999995164 0.4450415241817294 0.33952125061064975
0.29443847799984724 0.44406448461162684 0.24670249145090373
0.2946266599997216 0.4430874450415241 0.17537860283341478
0.2948140280000189 0.44211040547142155 0.1284807034684905
0.29500180299964995 0.44406448461162684 0.12457254518808014
0.29518898599962995 0.44406448461162684 0.14411333659013192
0.2953765569995994 0.4460185637518319 0.1783097215437226
0.29556340599992836 0.44406448461162684 0.21250610649731305
0.29575051499978144 0.4450415241817294 0.2437713727405959
0.29593791999968744 0.44211040547142155 0.2711284807034684
0.29612756500000614 0.4450415241817294 0.28969223253541765
0.2963153779996901 0.4460185637518319 0.3131411822178798
0.29650250499980757 0.44699560332193444 0.3336590131900341
0.2966897799997241 0.44894968246213973 0.36003908158280407
0.29687761099967247 0.44992672203224227 0.3854421104054715
0.2970652189997054 0.4528578407425501 0.4049829018075233
0.29725256799974886 0.45481191988275516 0.42452369320957506
0.2974395100000038 0.44992672203224227 0.4323400097703958
0.29762656299999435 0.45481191988275516 0.43429408891060084
0.2978138939997734 0.44894968246213973 0.44211040547142155
0.29800083600002836 0.4509037616023448 0.4479726428920372
0.2981883149996065 0.4528578407425501 0.467513434294089
0.29837831199984066 0.45188080117244755 0.4880312652662433
0.2985664210000323 0.4528578407425501 0.5183194919394236
0.2987543619997268 0.45676599902296044 0.5525158768930141
0.2989417119997597 0.457743038593063 0.5759648265754762
0.299129301999983 0.45481191988275516 0.5906204201270151
0.29931618799992066 0.4557889594528579 0.5984367366878358
0.29950342599977375 0.45676599902296044 0.5984367366878358
0.29969101599999703 0.4528578407425501 0.5896433805569126
0.29987930999959644 0.457743038593063 0.5798729848558866
0.30006726999999955 0.4557889594528579 0.5642403517342451
0.3002558789999057 0.4528578407425501 0.5486077186126037
0.3004435059997377 0.4528578407425501 0.5349291646311676
0.30063163299973894 0.45188080117244755 0.522227650219834
0.30082024099965565 0.4509037616023448 0.5192965315095261
0.3010080909998578 0.457743038593063 0.5114802149487054
0.3011956619998273 0.44699560332193444 0.5085490962383976
0.30138408499988145 0.4509037616023448 0.5105031753786029
0.3015720829998827 0.4509037616023448 0.5134342940889105
0.3017596169997887 0.44992672203224227 0.5212506106497312
0.3019474109996736 0.45188080117244755 0.522227650219834
0.3021358709997912 0.4538348803126526 0.5251587689301416
0.30233247999967716 0.4528578407425501 0.5232046897899365
0.30252092199998515 0.4528578407425501 0.5212506106497312
0.3027094929998384 0.4557889594528579 0.5163654127992183
0.3028975089996493 0.45188080117244755 0.512457254518808
0.303085228999862 0.4509037616023448 0.5075720566682951
0.30327320799960944 0.4509037616023448 0.5007327796775769
0.30346153799973763 0.4509037616023448 0.5026868588177822
0.30365072099993995 0.44992672203224227 0.5017098192476794
0.3038383849998354 0.4509037616023448 0.48900830483634583
0.30402634499978376 0.4538348803126526 0.47923790913532005
0.30421362099968974 0.4557889594528579 0.45676599902296044
0.3044015989999025 0.4587200781631655 0.42940889106008795
0.30458967100003065 0.4538348803126526 0.39716658524670256
0.3047777789997781 0.45481191988275516 0.37274059599413767
0.30496629499975825 0.45188080117244755 0.3561309233023937
0.30515479299992876 0.4538348803126526 0.3531998045920859
0.3053427719996762 0.4479726428920372 0.35710796287249624
0.30553034299964565 0.4479726428920372 0.3688324377137273
0.3057174519999535 0.4460185637518319 0.3805569125549584
0.30590500499965856 0.4450415241817294 0.39912066438690763
0.30609250199995586 0.4479726428920372 0.41475329750854906
0.30628127699992547 0.44699560332193444 0.4303859306301905
0.3064705709998634 0.4479726428920372 0.4401563263312165
0.3066555679997691 0.44699560332193444 0.4460185637518319
0.3068404359996748 0.44699560332193444 0.4557889594528579
0.3070253779997074 0.44699560332193444 0.4606741573033708
0.3072100239996871 0.4460185637518319 0.46458231558378116
0.30739494699992065 0.4479726428920372 0.46946751343429405
0.3075800739998158 0.45188080117244755 0.46165119687347334
0.30776560899994365 0.4479726428920372 0.46165119687347334
0.30795143899968025 0.45188080117244755 0.4587200781631655
0.30813738099959664 0.44992672203224227 0.45481191988275516
0.30832326799963994 0.4538348803126526 0.45481191988275516
0.3085080979999475 0.45676599902296044 0.44699560332193444
0.30869339199989554 0.44992672203224227 0.4479726428920372
0.30887962999986485 0.4557889594528579 0.44211040547142155
0.3090657019997707 0.4509037616023448 0.43917928676111373
0.3092518659996131 0.4587200781631655 0.43624816805080613
0.3094367709995822 0.4509037616023448 0.4323400097703958
0.30962130499983687 0.457743038593063 0.4333170493404983
0.3098065059998589 0.4538348803126526 0.4352711284807034
0.30999213299992334 0.4538348803126526 0.44211040547142155
0.3101776119997339 0.45188080117244755 0.44992672203224227
0.31036633199983044 0.44992672203224227 0.4606741573033708
0.31055503299967313 0.45188080117244755 0.47142159257449934
0.3107433819996004 0.4509037616023448 0.4802149487054226
0.31093130599992946 0.44992672203224227 0.4938935026868587
0.31111898799963456 0.4479726428920372 0.5065950170981925
0.3113078559999849 0.44992672203224227 0.5192965315095261
0.31149613099978524 0.44992672203224227 0.524181729360039
0.3116841289997865 0.45188080117244755 0.5300439667806547
0.3118726079997032 0.45481191988275516 0.5251587689301416
0.3120611229996939 0.45188080117244755 0.5163654127992183
0.3122489909997057 0.4557889594528579 0.5046409379579873
0.3124363029996857 0.4557889594528579 0.48900830483634583
0.31262391199970807 0.45676599902296044 0.47142159257449934
0.31281150199993135 0.44894968246213973 0.45676599902296044
0.3129995549998057 0.4460185637518319 0.44211040547142155
0.3131872559997646 0.4538348803126526 0.4303859306301905
0.31337479099966004 0.44992672203224227 0.42745481191988266
0.3135616949998621 0.44992672203224227 0.42256961406936977
0.313749173999895 0.45188080117244755 0.4206155349291647
0.3139369309997164 0.4509037616023448 0.42256961406936977
0.3141245209999397 0.44992672203224227 0.42940889106008795
0.3143126850000044 0.45188080117244755 0.43429408891060084
0.31450020099964604 0.44992672203224227 0.44699560332193444
0.31468706899977406 0.44992672203224227 0.4528578407425501
0.3148741769996377 0.4538348803126526 0.4636052760136786
0.3150606379999772 0.4528578407425501 0.4704445530043966
0.31524733899959756 0.4557889594528579 0.48216902784562765
0.31543500299994776 0.4557889594528579 0.49193942354665365
0.31562268499965285 0.45188080117244755 0.5046409379579873
0.3158105899997281 0.4538348803126526 0.5036638983878847
0.3159990139997717 0.4538348803126526 0.5036638983878847
0.3161860479999632 0.45481191988275516 0.49975574010747437
0.31637347099967883 0.45676599902296044 0.47923790913532005
0.3165608389999761 0.45481191988275516 0.45676599902296044
0.3167482439998821 0.457743038593063 0.431362970200293
0.31693585299990445 0.44992672203224227 0.40889106008793363
0.3171223869999267 0.4509037616023448 0.3776257938446508
0.31730932899972686 0.4538348803126526 0.3561309233023937
0.31749686299963287 0.4509037616023448 0.3453834880312652
0.3176844159997927 0.45188080117244755 0.3502686858817783
0.3178721360000054 0.45188080117244755 0.3629702002931119
0.3180589300000065 0.457743038593063 0.3913043478260869
0.3182603159998507 0.4557889594528579 0.4206155349291647
0.31844999799977813 0.457743038593063 0.44992672203224227
0.3186382919998323 0.45481191988275516 0.47435271128480694
0.3188270119999288 0.45969711773326827 0.4948705422569615
0.3190151569997397 0.4606741573033708 0.5075720566682951
0.31920283999988897 0.4557889594528579 0.5114802149487054
0.3193913369996153 0.4606741573033708 0.5144113336590133
0.3195795569999973 0.46165119687347334 0.5114802149487054
0.3197673689996918 0.46165119687347334 0.5085490962383976
0.31995519999964017 0.45969711773326827 0.5007327796775769
0.3201431419997789 0.46165119687347334 0.4948705422569615
0.3203312319997167 0.46165119687347334 0.48998534440644836
0.32051880299968616 0.45969711773326827 0.48705422569614076
0.3207068189999518 0.4587200781631655 0.48705422569614076
0.3208943909999107 0.4587200781631655 0.486077186126038
0.32108240599973215 0.4557889594528579 0.48216902784562765
0.3212707929997123 0.4587200781631655 0.4802149487054226
0.32145930899969244 0.457743038593063 0.4665363947239862
0.32164730599970426 0.4606741573033708 0.457743038593063
0.3218345259997477 0.4636052760136786 0.44992672203224227
0.32202174499980174 0.45969711773326827 0.45188080117244755
0.32220890899998267 0.4606741573033708 0.4733756717147044
0.32239799899980426 0.4606741573033708 0.5075720566682951
0.3225859969998055 0.46262823644357587 0.5427454811919883
0.32277349399964805 0.4606741573033708 0.5876893014167073
0.32296125099992423 0.457743038593063 0.6277479237909136
0.3231513040000209 0.4606741573033708 0.6648754274548119
0.3233451529999911 0.45676599902296044 0.6971177332681973
0.32353676200000336 0.457743038593063 0.7117733268197362
0.32372492599961333 0.4557889594528579 0.7068881289692233
0.3239135339999848 0.4557889594528579 0.688324377137274
0.3241016799997851 0.45188080117244755 0.6394723986321447
0.32428984399984984 0.4528578407425501 0.5857352222765022
0.32447776699973474 0.4509037616023448 0.5173424523693209
0.32466585699967254 0.44992672203224227 0.457743038593063
0.32485426199991707 0.44894968246213973 0.4186614557889594
0.3250421299999289 0.44699560332193444 0.39716658524670256
0.32522929399965506 0.44699560332193444 0.38935026868588185
0.3254168469998149 0.4450415241817294 0.38251099169516367
0.3256055289998585 0.4401563263312165 0.36687835857352225
0.3257937299999867 0.4430874450415241 0.35417684416218864
0.32598135699981867 0.43722520762090866 0.3414753297508548
0.32616931799975646 0.431362970200293 0.32193453834880303
0.32636101899970527 0.4284318514899854 0.31704934049829014
0.32654921999983344 0.431362970200293 0.3150952613580851
0.32673675399973945 0.431362970200293 0.33268197361993157
0.3269243810000262 0.4303859306301905 0.3629702002931119
0.3271123049999005 0.4323400097703958 0.3913043478260869
0.32730046899996523 0.43624816805080613 0.41670737664875435
0.3274881329998607 0.43722520762090866 0.42256961406936977
0.32767603799993594 0.431362970200293 0.42745481191988266
0.32786364599996887 0.43429408891060084 0.4235466536394723
0.3280530879997059 0.4333170493404983 0.40205178309721545
0.32824093699991863 0.43429408891060084 0.35906204201270153
0.32843115699961345 0.43624816805080613 0.2955544699560333
0.32861970999965706 0.43624816805080613 0.21250610649731305
0.32880854099994394 0.43722520762090866 0.14020517830972157
0.3289961859995856 0.441133365901319 0.08939912066438693
0.3291841839995868 0.4401563263312165 0.06008793356130915
0.32937173699974664 0.4450415241817294 0.052271617000488435
0.3295589189997372 0.44406448461162684 0.06985832926233515
0.32974630599983357 0.4528578407425501 0.10991695163654125
0.3299339139998665 0.4509037616023448 0.16951636541279913
0.3301215599999523 0.4538348803126526 0.23497801660967266
0.33031103799976336 0.45481191988275516 0.30923302393746943
0.3305020359998707 0.4509037616023448 0.38739618954567656
0.3306906809998509 0.45481191988275516 0.4587200781631655
0.3311817669996344 0.44992672203224227 0.578895945285784
0.3314002829997662 0.44699560332193444 0.5896433805569126
0.33159764999982144 0.4430874450415241 0.5906204201270151
0.33180144399966593 0.441133365901319 0.5730337078651686
0.332051459000013 0.4401563263312165 0.5398143624816805
0.3322525119997408 0.4382022471910112 0.5144113336590133
0.33245160199976453 0.4430874450415241 0.48900830483634583
0.33264343199971336 0.43624816805080613 0.4802149487054226
0.3328365219999796 0.4401563263312165 0.46458231558378116
0.33303174200000285 0.43722520762090866 0.4509037616023448
0.3332269429997723 0.43624816805080613 0.4382022471910112
0.3334203469999011 0.441133365901319 0.4137762579384465
0.3336108449998392 0.43429408891060084 0.38641914997557403
0.33380247199966107 0.43722520762090866 0.3688324377137273
0.33399389499982135 0.43722520762090866 0.3707865168539326
0.3341841520000344 0.441133365901319 0.38739618954567656
0.33439633399984814 0.44211040547142155 0.4059599413776258
0.3345977569997558 0.44992672203224227 0.4206155349291647
0.3347902359996624 0.4528578407425501 0.43722520762090866
0.3349799739999071 0.4538348803126526 0.44699560332193444
0.33516961999976047 0.4557889594528579 0.44699560332193444
0.33537778299978527 0.457743038593063 0.45676599902296044
0.33562024299999393 0.45969711773326827 0.46946751343429405
0.3358098889998473 0.46262823644357587 0.4811919882755251
0.33600307099959537 0.4655593551538837 0.4938935026868587
0.33619493899959707 0.45969711773326827 0.49682462139716654
0.33638838099977875 0.4606741573033708 0.5046409379579873
0.33658098899968536 0.457743038593063 0.5095261358085001
0.33677363499964486 0.45969711773326827 0.5065950170981925
0.33696950199964704 0.45676599902296044 0.5075720566682951
0.33715914799995517 0.45481191988275516 0.5105031753786029
0.3373508119998405 0.45676599902296044 0.5075720566682951
0.33754208699974697 0.4636052760136786 0.5105031753786029
0.33773310299966397 0.46458231558378116 0.4978016609672691
0.3379218589998345 0.4587200781631655 0.4978016609672691
0.3381163750000269 0.45676599902296044 0.48900830483634583
0.3383697790000042 0.4587200781631655 0.4938935026868587
0.3385671469995941 0.45969711773326827 0.4909623839765511
0.33876284799998757 0.46165119687347334 0.4948705422569615
0.3389569930000107 0.4587200781631655 0.49975574010747437
0.3391491759998644 0.46262823644357587 0.5046409379579873
0.33934128399960173 0.46165119687347334 0.5163654127992183
0.33953944799986857 0.4665363947239862 0.522227650219834
0.33974266799987163 0.46458231558378116 0.5280898876404494
0.33996346100002484 0.46262823644357587 0.5290669272105519
0.3401799759999449 0.4636052760136786 0.5319980459208598
0.34038115899966215 0.4636052760136786 0.5378602833414754
0.34057772999994995 0.4606741573033708 0.540791402051783
0.3407732649998252 0.45969711773326827 0.5574010747435272
0.34096944699967935 0.4636052760136786 0.5603321934538348
0.34116092599970216 0.46165119687347334 0.5544699560332194
0.34135047899962956 0.46262823644357587 0.5378602833414754
0.341546716999801 0.4636052760136786 0.5144113336590133
0.3417401769997923 0.45969711773326827 0.4978016609672691
0.34193095199998425 0.45969711773326827 0.47728382999511476
0.34212135699999635 0.4587200781631655 0.3932584269662922
0.3429695309996532 0.45481191988275516 0.44406448461162684
0.3446923029996469 0.45969711773326827 0.5476306790425012
0.3451406119997955 0.45969711773326827 0.5622862725940401
0.3453992009999638 0.45969711773326827 0.5701025891548608
0.3455943649996698 0.45969711773326827 0.5701025891548608
0.34578623199968206 0.45969711773326827 0.5652173913043479
0.3459761559997787 0.4587200781631655 0.550561797752809
0.3461653379999916 0.4528578407425501 0.5310210063507572
0.34636787299996286 0.4538348803126526 0.5144113336590133
0.3465562769997632 0.4538348803126526 0.49682462139716654
0.3467446079998808 0.44894968246213973 0.4733756717147044
0.3469328459996177 0.44699560332193444 0.44894968246213973
0.3471215839999786 0.4430874450415241 0.42256961406936977
0.34731034099968383 0.44211040547142155 0.4059599413776258
0.3474982640000235 0.44211040547142155 0.3961895456765998
0.3476868539996758 0.44211040547142155 0.3961895456765998
0.3478744999997616 0.44211040547142155 0.403028822667318
0.34806290500000614 0.4460185637518319 0.4108451392281387
0.3482515689997854 0.4450415241817294 0.4157303370786516
0.3484405849999348 0.44211040547142155 0.41182217879824123
0.3486281189998408 0.44211040547142155 0.3961895456765998
0.34881570899960934 0.4382022471910112 0.37274059599413767
0.3490033919997586 0.4382022471910112 0.34733756717147046
0.34919072299999243 0.4382022471910112 0.32193453834880303
0.3493788309997399 0.43917928676111373 0.3014167073766487
0.34956595799985735 0.4382022471910112 0.2867611138251098
0.34975319599971044 0.4382022471910112 0.28285295554469947
0.34993960099973265 0.43624816805080613 0.2877381533952126
0.3501266539997232 0.43624816805080613 0.29164631167562294
0.3503165959996295 0.4333170493404983 0.29457743038593054
0.3505064639998636 0.4333170493404983 0.30239374694675125
0.3506951649997063 0.42940889106008795 0.3141182217879823
0.3508835879997605 0.4323400097703958 0.33268197361993157
0.3510718449997512 0.4303859306301905 0.3531998045920859
0.3512607129996468 0.431362970200293 0.37176355642403514
0.3514490620000288 0.42940889106008795 0.39716658524670256
0.3516374299997551 0.431362970200293 0.4186614557889594
0.35182498299991494 0.43429408891060084 0.43429408891060084
0.35201253599962 0.4382022471910112 0.45188080117244755
0.3521994029997586 0.4430874450415241 0.4636052760136786
0.3523865299998761 0.43917928676111373 0.4753297508549097
0.3525729909997608 0.44894968246213973 0.47923790913532005
0.3527608029999101 0.4479726428920372 0.4811919882755251
0.35294744899965735 0.4479726428920372 0.4763067904250122
0.35313514999961626 0.44894968246213973 0.4753297508549097
0.35332325799981845 0.44894968246213973 0.467513434294089
0.3535108109999783 0.4509037616023448 0.46165119687347334
0.35369897499958824 0.4528578407425501 0.457743038593063
0.3538865649998115 0.45676599902296044 0.45676599902296044
0.3540752659996542 0.4538348803126526 0.4557889594528579
0.35427898599982655 0.45481191988275516 0.4528578407425501
0.35446698299983836 0.45481191988275516 0.457743038593063
0.3546545179997338 0.4557889594528579 0.457743038593063
0.35484203399983016 0.4587200781631655 0.4479726428920372
0.3550293270000111 0.4606741573033708 0.44211040547142155
0.3552169539998431 0.4636052760136786 0.43917928676111373
0.35540421099995 0.45676599902296044 0.44211040547142155
0.35559109699988767 0.457743038593063 0.4460185637518319
0.35577811299981477 0.45676599902296044 0.4538348803126526
0.355966239999816 0.457743038593063 0.467513434294089
0.356153422999796 0.4587200781631655 0.48412310698583294
0.3563412909998078 0.46262823644357587 0.5026868588177822
0.35652858399998877 0.4587200781631655 0.5144113336590133
0.3567161930000111 0.4587200781631655 0.524181729360039
0.3569031349998113 0.45676599902296044 0.522227650219834
0.3570906689997173 0.4538348803126526 0.5212506106497312
0.35727912999982436 0.4538348803126526 0.5173424523693209
0.35746614599975146 0.457743038593063 0.49682462139716654
0.3576538839997738 0.4587200781631655 0.4851001465559355
0.3578420659996482 0.46262823644357587 0.47142159257449934
0.35802913799989255 0.45676599902296044 0.4557889594528579
0.3582182089999151 0.45481191988275516 0.44211040547142155
0.35840983599973697 0.45481191988275516 0.4333170493404983
0.35859787099980167 0.4557889594528579 0.4303859306301905
0.35878551599989805 0.44992672203224227 0.4284318514899854
0.35897330999978294 0.4509037616023448 0.42452369320957506
0.35916191799969965 0.4479726428920372 0.41670737664875435
0.35935047099974327 0.44894968246213973 0.40889106008793363
0.35953843199968105 0.44699560332193444 0.40205178309721545
0.35972687399998904 0.44894968246213973 0.403028822667318
0.35991479699987394 0.44699560332193444 0.41182217879824123
0.3601014609998856 0.44992672203224227 0.42159257449926724
0.3602887179999925 0.45188080117244755 0.4323400097703958
0.3604754189996129 0.44992672203224227 0.44699560332193444
0.3606622309998784 0.4528578407425501 0.4704445530043966
0.3608489319999535 0.45188080117244755 0.495847581827064
0.36103642999978547 0.4538348803126526 0.5202735710796287
0.36122451999972327 0.4557889594528579 0.5495847581827065
0.3614115169998513 0.457743038593063 0.578895945285784
0.3615984399998524 0.457743038593063 0.6111382510991694
0.3617853269997795 0.457743038593063 0.6306790425012212
0.3619722869998441 0.457743038593063 0.6560820713238886
0.362159672999951 0.457743038593063 0.6638983878847093
0.3623560969999744 0.4557889594528579 0.6609672691744015
0.3625431129999015 0.4557889594528579 0.6482657547630679
0.36273101699998733 0.45676599902296044 0.6209086468001954
0.36291940399996747 0.4528578407425501 0.5867122618466047
0.3631112899997788 0.45188080117244755 0.5534929164631168
0.3632996019996426 0.45676599902296044 0.5378602833414754
0.36349100699999326 0.4528578407425501 0.524181729360039
0.36367902299980415 0.4557889594528579 0.5085490962383976
0.36386681699968904 0.4557889594528579 0.49682462139716654
0.3640546099995845 0.45676599902296044 0.47239863214460187
0.36424201499994524 0.45481191988275516 0.44894968246213973
0.3644290119996185 0.4538348803126526 0.4108451392281387
0.3646159909999369 0.4538348803126526 0.37176355642403514
0.3648032669998429 0.45188080117244755 0.3365901319003419
0.3649910419999287 0.44894968246213973 0.30239374694675125
0.36517816899959143 0.44894968246213973 0.28187591597459694
0.3653650739997829 0.45188080117244755 0.27699071812408405
0.3655519409999215 0.45188080117244755 0.28285295554469947
0.3657382719998168 0.44992672203224227 0.30434782608695654
0.36592517700000826 0.44992672203224227 0.32681973619931615
0.3661129889997028 0.44894968246213973 0.35417684416218864
0.36630259799994747 0.4509037616023448 0.3707865168539326
0.3664926689998538 0.4450415241817294 0.3737176355642404
0.36668068499966466 0.44894968246213973 0.3659013190034197
0.3668692009996448 0.4460185637518319 0.358085002442599
0.3670576979998259 0.44894968246213973 0.36199316072300936
0.3672456589997637 0.44699560332193444 0.3756717147044455
0.36743311899999753 0.44699560332193444 0.38251099169516367
0.36762102399961805 0.44699560332193444 0.39228138739618945
0.3678090399998837 0.4479726428920372 0.4010747435271129
0.3679962779997368 0.4450415241817294 0.42256961406936977
0.3681834419999177 0.44992672203224227 0.457743038593063
0.3683709949996228 0.4557889594528579 0.48705422569614076
0.3685582519997297 0.4528578407425501 0.5153883732291158
0.3687454899995828 0.4528578407425501 0.5466536394723986
0.368932932000007 0.4509037616023448 0.5564240351734244
0.36912098499988133 0.4528578407425501 0.5525158768930141
0.36930859299991425 0.4528578407425501 0.5388373229115779
0.36949605399968277 0.4557889594528579 0.5173424523693209
0.3696828839997579 0.4528578407425501 0.495847581827064
0.36986964099969555 0.4528578407425501 0.467513434294089
0.3700571019999188 0.4509037616023448 0.441133365901319
0.3703131909996955 0.4528578407425501 0.4040058622374205
0.37050755799964463 0.44894968246213973 0.3776257938446508
0.37069522199999483 0.44894968246213973 0.36199316072300936
0.3708820899996681 0.44894968246213973 0.3453834880312652
0.371069031999923 0.4479726428920372 0.33952125061064975
0.3712560479998501 0.44406448461162684 0.3336590131900341
0.37144321200003105 0.4479726428920372 0.34440644846116264
0.37163044999988415 0.44992672203224227 0.37274059599413767
0.37181815099984306 0.44992672203224227 0.4059599413776258
0.3720052229996327 0.44699560332193444 0.4509037616023448
0.3721922390000145 0.44699560332193444 0.49877870053737183
0.3723789399996349 0.4509037616023448 0.533952125061065
0.3725661039998158 0.44894968246213973 0.5691255495847583
0.37275363799972183 0.45481191988275516 0.605276013678554
0.37294026499967003 0.4587200781631655 0.6482657547630679
0.37312700399979803 0.46165119687347334 0.688324377137274
0.37331400099992607 0.4636052760136786 0.7274059599413776
0.3735012019997157 0.47142159257449934 0.7586712261846604
0.3736879959997168 0.46946751343429405 0.7674645823155837
0.3738750119996439 0.4684904738641915 0.7537860283341475
0.374061805999645 0.4665363947239862 0.7303370786516854
0.374261746999764 0.467513434294089 0.6912554958475818
0.374452447999829 0.4684904738641915 0.6365412799218368
0.37464061199989374 0.467513434294089 0.5710796287249633
0.374828831999821 0.46458231558378116 0.4948705422569615
0.3750160329996106 0.4606741573033708 0.4108451392281387
0.3752032899997175 0.45676599902296044 0.3277967757694187
0.3753914719995919 0.44894968246213973 0.25647288715192973
0.37557876599976225 0.43917928676111373 0.20078163165608198
0.3757662079997317 0.431362970200293 0.1636541279921837
0.3759534459995848 0.4303859306301905 0.14899853444064481
0.37614140699997733 0.4255007327796776 0.146067415730337
0.3763282739996612 0.42452369320957506 0.15681485100146553
0.37651556799983155 0.41963849535906195 0.18026380068392767
0.3767025279998961 0.41963849535906195 0.21446018563751834
0.37688978500000303 0.41963849535906195 0.24865657059110902
0.377077411999835 0.4235466536394723 0.27992183683439187
0.3772640209999736 0.4235466536394723 0.30434782608695654
0.3774510369999007 0.4255007327796776 0.32486565705911086
0.3776383489998807 0.42940889106008795 0.33463605276013686
0.3778251979997549 0.4323400097703958 0.34929164631167553
0.3780121589998089 0.44211040547142155 0.3707865168539326
0.3781990079996831 0.4352711284807034 0.38739618954567656
0.37839215299982243 0.441133365901319 0.4010747435271129
0.3785841139997501 0.4450415241817294 0.40889106008793363
0.37877255499961393 0.44406448461162684 0.41963849535906195
0.37895934899961503 0.44992672203224227 0.4323400097703958
0.3791458839996267 0.4509037616023448 0.4450415241817294
0.37933239999983925 0.45188080117244755 0.44406448461162684
0.37951902699978746 0.4538348803126526 0.44406448461162684
0.3797060059996511 0.4557889594528579 0.43917928676111373
0.3798932069998955 0.4557889594528579 0.431362970200293
0.3800804079996851 0.457743038593063 0.41963849535906195
0.3802674609996757 0.457743038593063 0.40986809965803617
0.3804546799997297 0.45676599902296044 0.3961895456765998
0.3806415479998577 0.4528578407425501 0.3883732291157791
0.3808294159998695 0.457743038593063 0.3981436248168051
0.38101609899968025 0.4587200781631655 0.4137762579384465
0.38120302199968137 0.45676599902296044 0.4401563263312165
0.3813900189998094 0.4587200781631655 0.46946751343429405
0.38157668299982106 0.4606741573033708 0.49877870053737183
0.38176430999965305 0.4606741573033708 0.5202735710796287
0.38195134499983396 0.457743038593063 0.5398143624816805
0.3821380459999091 0.45969711773326827 0.5593551538837322
0.3823414689995843 0.45969711773326827 0.5691255495847583
0.3825298929996279 0.45676599902296044 0.578895945285784
0.3827174269999887 0.45676599902296044 0.5818270639960919
0.38290522099987356 0.457743038593063 0.5837811431362969
0.3830932179998854 0.45676599902296044 0.5828041035661944
0.3832809189998443 0.457743038593063 0.567171470444553
0.3834686759996657 0.45969711773326827 0.5593551538837322
0.3836563400000159 0.45676599902296044 0.5476306790425012
0.383843799999795 0.4587200781631655 0.5261358085002443
0.3840306869997221 0.45676599902296044 0.49877870053737183
0.38421773999971265 0.4557889594528579 0.457743038593063
0.38440521899974556 0.45481191988275516 0.42452369320957506
0.3845917529997678 0.4538348803126526 0.3952125061064973
0.38477880599975833 0.4538348803126526 0.38153395212506114
0.3849674519997279 0.45676599902296044 0.3776257938446508
0.3851546339997185 0.4528578407425501 0.37957987298485585
0.3853416499996456 0.44894968246213973 0.38446507083536874
0.38552885099989 0.4538348803126526 0.39716658524670256
0.3857161449996056 0.4528578407425501 0.40205178309721545
0.3859027899998182 0.44992672203224227 0.4079140205178309
0.3860898249999991 0.45481191988275516 0.40986809965803617
0.3862792850000005 0.44992672203224227 0.4108451392281387
0.38646787499965285 0.44894968246213973 0.4186614557889594
0.3866552059998867 0.45188080117244755 0.4206155349291647
0.38684194400002525 0.4538348803126526 0.431362970200293
0.38702927499980433 0.44992672203224227 0.43917928676111373
0.3872164019999218 0.45188080117244755 0.4509037616023448
0.387403250999796 0.44992672203224227 0.45481191988275516
0.38759071200001927 0.44992672203224227 0.46165119687347334
0.38777794999987236 0.4479726428920372 0.4684904738641915
0.3879648549996091 0.44992672203224227 0.4704445530043966
0.3881524079997689 0.44992672203224227 0.4704445530043966
0.3883402009996644 0.45188080117244755 0.46946751343429405
0.38852771699976074 0.45188080117244755 0.4684904738641915
0.3887154739995822 0.44992672203224227 0.46946751343429405
0.3889024159998371 0.4509037616023448 0.46165119687347334
0.38908989499987 0.4538348803126526 0.4509037616023448
0.3892766330000086 0.45188080117244755 0.43722520762090866
0.38946312999996735 0.4538348803126526 0.4323400097703958
0.38964973899965116 0.4557889594528579 0.43722520762090866
0.3898365699997157 0.4538348803126526 0.4460185637518319
0.39002312299999176 0.45188080117244755 0.4655593551538837
0.3902105269999083 0.457743038593063 0.4831460674157304
0.39040396899963525 0.4538348803126526 0.49877870053737183
0.3905955959999119 0.44992672203224227 0.5017098192476794
0.39078624199964906 0.4479726428920372 0.495847581827064
0.39097612799969284 0.44894968246213973 0.4851001465559355
0.39116653299970494 0.44894968246213973 0.4704445530043966
0.3913563629998862 0.4450415241817294 0.4528578407425501
0.39154617599979247 0.4538348803126526 0.4430874450415241
0.3917353209999419 0.44406448461162684 0.43624816805080613
0.39192500399985875 0.4479726428920372 0.4401563263312165
0.3921151119998285 0.4479726428920372 0.4401563263312165
0.3923048869996819 0.4557889594528579 0.4479726428920372
0.39249473699965165 0.4479726428920372 0.4606741573033708
0.39268436399970597 0.44894968246213973 0.4802149487054226
0.392874656999993 0.45188080117244755 0.5056179775280898
0.3930649139997513 0.45188080117244755 0.5271128480703469
0.39325496699984797 0.45188080117244755 0.5446995603321934
0.39344535299960626 0.4509037616023448 0.5476306790425012
0.3936355169998933 0.4557889594528579 0.550561797752809
0.39382505200001106 0.45188080117244755 0.5427454811919883
0.3940153270000337 0.4509037616023448 0.5310210063507572
0.39420556499999293 0.4509037616023448 0.512457254518808
0.39439483999967706 0.4479726428920372 0.49975574010747437
0.39458204099992145 0.45188080117244755 0.4831460674157304
0.3947683159999542 0.44992672203224227 0.4684904738641915
0.3949549429999024 0.4509037616023448 0.4538348803126526
0.3951415699998506 0.4538348803126526 0.4323400097703958
0.39532864199964024 0.44992672203224227 0.412799218368344
0.39551874999961 0.4538348803126526 0.39912066438690763
0.39570613699970636 0.4538348803126526 0.3913043478260869
0.3958932269997604 0.4509037616023448 0.3952125061064973
0.3960800019999624 0.4557889594528579 0.4049829018075233
0.39626714799987894 0.4557889594528579 0.4186614557889594
0.39645482999958404 0.45676599902296044 0.4323400097703958
0.3966420309998284 0.45969711773326827 0.45188080117244755
0.39682880600003045 0.4636052760136786 0.4655593551538837
0.397015859000021 0.4655593551538837 0.4782608695652173
0.3972029679998741 0.46165119687347334 0.486077186126038
0.39738957700001265 0.46262823644357587 0.4948705422569615
0.39757635199975994 0.4684904738641915 0.49975574010747437
0.3977631640000254 0.4636052760136786 0.5144113336590133
0.39794990199970925 0.46946751343429405 0.5300439667806547
0.398137750999922 0.46458231558378116 0.5534929164631168
0.39834102599979815 0.46262823644357587 0.5652173913043479
0.3985329129995989 0.4606741573033708 0.5730337078651686
0.3987226319995898 0.457743038593063 0.5818270639960919
0.3989127219997499 0.457743038593063 0.5906204201270151
0.39910218299974076 0.4538348803126526 0.5876893014167073
0.3992933279996578 0.4538348803126526 0.5857352222765022
0.3994831959998919 0.4528578407425501 0.5779189057156815
0.39967400799969255 0.44894968246213973 0.567171470444553
0.3998637089998738 0.44894968246213973 0.5583781143136297
0.4000530029998117 0.45188080117244755 0.550561797752809
0.40024199999970733 0.44699560332193444 0.5486077186126037
0.4004311459998462 0.4528578407425501 0.5368832437713726
0.4006212909998794 0.45188080117244755 0.5280898876404494
0.40081160299996554 0.45188080117244755 0.5056179775280898
0.401001303999692 0.4557889594528579 0.4704445530043966
0.4011909129999367 0.4557889594528579 0.42940889106008795
0.4013797069997054 0.45481191988275516 0.37176355642403514
0.4015684080000028 0.4606741573033708 0.31216414264777725
0.4017581639996024 0.4606741573033708 0.26722032242305804
0.4019472729996778 0.4606741573033708 0.24865657059110902
0.40213647399968977 0.46165119687347334 0.2603810454323401
0.4023358790000202 0.4655593551538837 0.29262335124572547
0.4025257280000005 0.4655593551538837 0.33952125061064975
0.4027158919998328 0.4606741573033708 0.3932584269662922
0.40290494499959095 0.46165119687347334 0.4401563263312165
0.403094794000026 0.45969711773326827 0.4811919882755251
0.40328479199979483 0.45969711773326827 0.49682462139716654
0.4034744369996588 0.4587200781631655 0.4938935026868587
0.4036637679996602 0.4538348803126526 0.4831460674157304
0.40385343199977797 0.4528578407425501 0.46946751343429405
0.404042558999663 0.44992672203224227 0.4528578407425501
0.40423231499971735 0.44699560332193444 0.4323400097703958
0.404422367999814 0.44699560332193444 0.4040058622374205
0.40461182899980486 0.4460185637518319 0.3854421104054715
0.40480143699960536 0.4460185637518319 0.36003908158280407
0.4049908609999875 0.4460185637518319 0.34929164631167553
0.4051798020000206 0.44894968246213973 0.3424523693209576
0.4053692439997576 0.4509037616023448 0.33463605276013686
0.40555816799997046 0.4509037616023448 0.3229115779189058
0.4057475169997815 0.4509037616023448 0.3063019052271616
0.40593658799980403 0.4528578407425501 0.28480703468490476
0.40612845599980574 0.45188080117244755 0.2613580850024426
0.40632778700000927 0.45188080117244755 0.2603810454323401
0.406518746999609 0.4528578407425501 0.2867611138251098
0.4067083919999277 0.45188080117244755 0.31900341963849543
0.4068975379996118 0.4528578407425501 0.36492427943331696
0.40708672099981413 0.44699560332193444 0.4206155349291647
0.4072763849999319 0.4430874450415241 0.47142159257449934
0.40746682600001805 0.441133365901319 0.5046409379579873
0.4076563979997445 0.441133365901319 0.5173424523693209
0.4078453949996401 0.4401563263312165 0.5065950170981925
0.4080357819998426 0.4401563263312165 0.4831460674157304
0.40822488999992856 0.4382022471910112 0.4528578407425501
0.4084139429996867 0.4401563263312165 0.43429408891060084
0.4086026629997832 0.4382022471910112 0.42452369320957506
0.408792326999901 0.44699560332193444 0.4235466536394723
0.40898152799991294 0.441133365901319 0.431362970200293
0.4091708959999778 0.4430874450415241 0.441133365901319
0.40936029999966195 0.44211040547142155 0.4684904738641915
0.4095492239998748 0.4450415241817294 0.48412310698583294
0.40973914699998204 0.441133365901319 0.495847581827064
0.40992790399968726 0.44211040547142155 0.5065950170981925
0.41011762299967813 0.4401563263312165 0.5105031753786029
0.41030810199981715 0.43624816805080613 0.512457254518808
0.41049735899969164 0.43722520762090866 0.5153883732291158
0.41068642999971416 0.43722520762090866 0.5212506106497312
0.410875575999853 0.4382022471910112 0.5280898876404494
0.41106459200000245 0.43722520762090866 0.5290669272105519
0.41125375599995095 0.4401563263312165 0.5319980459208598
0.4114434009998149 0.44211040547142155 0.5300439667806547
0.41163300999960484 0.43917928676111373 0.5280898876404494
0.4118218959997648 0.44406448461162684 0.5251587689301416
0.41201113399984024 0.44211040547142155 0.5261358085002443
0.41220076099989456 0.4479726428920372 0.5192965315095261
0.4123906659997374 0.44211040547142155 0.5144113336590133
0.41257986699974936 0.4460185637518319 0.49975574010747437
0.4127690129998882 0.4479726428920372 0.47142159257449934
0.4129584539996358 0.44894968246213973 0.42452369320957506
0.41314754399991216 0.44894968246213973 0.37176355642403514
0.4133372829996915 0.44894968246213973 0.32975085490962375
