0 0.4538348803126526 0.4479726428920372
0.0017305440001109673 0.4538348803126526 0.4538348803126526
0.002995152000039525 0.45481191988275516 0.4557889594528579
0.003599066999868228 0.4538348803126526 0.45481191988275516
0.0041355580001436465 0.4538348803126526 0.45676599902296044
0.004658104000100138 0.4528578407425501 0.45676599902296044
0.005175205999876198 0.4528578407425501 0.45969711773326827
0.005695863999790163 0.4528578407425501 0.46165119687347334
0.006230373000107647 0.45481191988275516 0.46458231558378116
0.006797010999889608 0.45188080117244755 0.46262823644357587
0.007564089999959833 0.4538348803126526 0.46262823644357587
0.009559610999986035 0.4509037616023448 0.457743038593063
0.010289617000125872 0.4528578407425501 0.4587200781631655
0.011041510999802995 0.45188080117244755 0.457743038593063
0.01160587200001828 0.45188080117244755 0.4587200781631655
0.01216075100001035 0.4509037616023448 0.45481191988275516
0.012706092999906105 0.44992672203224227 0.4528578407425501
0.013258990999929665 0.4538348803126526 0.44992672203224227
0.013800185000036436 0.4509037616023448 0.4528578407425501
0.01432893499986676 0.45188080117244755 0.4450415241817294
0.014946406000035495 0.45188080117244755 0.4460185637518319
0.015482840999993641 0.4557889594528579 0.4450415241817294
0.01600323999991815 0.4538348803126526 0.4460185637518319
0.016588155000135885 0.4538348803126526 0.4460185637518319
0.017604099999971368 0.45188080117244755 0.4430874450415241
0.018871892999868578 0.4528578407425501 0.4430874450415241
0.01944827199986321 0.4538348803126526 0.44699560332193444
0.020267572999728145 0.4538348803126526 0.44699560332193444
0.021328775999791105 0.4538348803126526 0.44894968246213973
0.021897563000038645 0.45188080117244755 0.45188080117244755
0.02248808900003496 0.45188080117244755 0.4528578407425501
0.02302028399981282 0.45188080117244755 0.457743038593063
0.023541719000149897 0.45676599902296044 0.45481191988275516
0.024061432000053173 0.45481191988275516 0.45676599902296044
0.02457792299992434 0.45481191988275516 0.45969711773326827
0.025233652999759215 0.4509037616023448 0.4636052760136786
0.02608426699998745 0.45188080117244755 0.46262823644357587
0.026869013000123232 0.4528578407425501 0.467513434294089
0.027433206999830873 0.4528578407425501 0.46262823644357587
0.027987881999706588 0.45188080117244755 0.46262823644357587
0.028524058000130026 0.4538348803126526 0.46165119687347334
0.029050289999759116 0.4509037616023448 0.46165119687347334
0.029579928999737604 0.45188080117244755 0.4606741573033708
0.03010814199978995 0.44894968246213973 0.4587200781631655
0.030689780000102473 0.4538348803126526 0.457743038593063
0.03121630699979505 0.44992672203224227 0.45481191988275516
0.0317440759999954 0.4509037616023448 0.4528578407425501
0.032299880999744346 0.44992672203224227 0.45188080117244755
0.03287218600007691 0.4509037616023448 0.4509037616023448
0.03345352799988177 0.44894968246213973 0.44992672203224227
0.034001313999851845 0.4528578407425501 0.44894968246213973
0.034531841999978496 0.4509037616023448 0.44406448461162684
0.035057944000072894 0.4528578407425501 0.44406448461162684
0.03560719400002199 0.4528578407425501 0.4460185637518319
0.03612573999998858 0.4528578407425501 0.4479726428920372
0.03648152999994636 0.4528578407425501 0.4430874450415241
0.03682982100008303 0.45188080117244755 0.441133365901319
0.03718240699981834 0.45188080117244755 0.441133365901319
0.037534881999818026 0.4528578407425501 0.44211040547142155
0.03786058000014236 0.45188080117244755 0.4401563263312165
0.038186370999937935 0.45481191988275516 0.4401563263312165
0.03855967899971802 0.45481191988275516 0.44406448461162684
0.03891167299980225 0.4538348803126526 0.4430874450415241
0.039271000000098866 0.45676599902296044 0.44211040547142155
0.0396168829997805 0.4606741573033708 0.4450415241817294
0.03996650699991733 0.4528578407425501 0.4479726428920372
0.04029933399988295 0.45481191988275516 0.4460185637518319
0.04064281000000847 0.4538348803126526 0.44699560332193444
0.0409864700000071 0.45676599902296044 0.44992672203224227
0.04132679799977268 0.4538348803126526 0.44992672203224227
0.04170584699977553 0.4528578407425501 0.44992672203224227
0.04212739500007956 0.4538348803126526 0.44894968246213973
0.04257366499996351 0.4538348803126526 0.457743038593063
0.04293091799991089 0.4509037616023448 0.4538348803126526
0.043271171000014874 0.4528578407425501 0.4557889594528579
0.043622590999802924 0.4509037616023448 0.4538348803126526
0.043963178000012704 0.45188080117244755 0.4538348803126526
0.04431996799985427 0.4509037616023448 0.4528578407425501
0.04466635099970517 0.45188080117244755 0.457743038593063
0.04501110399996833 0.45481191988275516 0.45676599902296044
0.04535037599998759 0.4509037616023448 0.45969711773326827
0.045690017999731936 0.4509037616023448 0.4606741573033708
0.04603251199978331 0.4528578407425501 0.46458231558378116
0.046405838999817206 0.4528578407425501 0.46458231558378116
0.04676483200000803 0.4509037616023448 0.4655593551538837
0.047115234000102646 0.4557889594528579 0.4606741573033708
0.047455912999794236 0.457743038593063 0.4587200781631655
0.04779316599979211 0.45676599902296044 0.4606741573033708
0.048131345999991026 0.4528578407425501 0.4636052760136786
0.04847307999989425 0.45188080117244755 0.4636052760136786
0.04882085200006259 0.45481191988275516 0.4655593551538837
0.049166439000146056 0.4509037616023448 0.4636052760136786
0.049504859000080614 0.45188080117244755 0.46165119687347334
0.049850055999741016 0.4509037616023448 0.46165119687347334
0.050182827999833535 0.4479726428920372 0.457743038593063
0.05055663699977231 0.4509037616023448 0.457743038593063
0.050934388999849034 0.44992672203224227 0.4587200781631655
0.0512911239998175 0.44699560332193444 0.457743038593063
0.05163004399992133 0.44894968246213973 0.4557889594528579
0.05196488999990834 0.44699560332193444 0.45481191988275516
0.05230893899988587 0.4479726428920372 0.4557889594528579
0.052639248000105 0.44992672203224227 0.4528578407425501
0.05296994599984828 0.4509037616023448 0.45188080117244755
0.05329777399992963 0.4509037616023448 0.4528578407425501
0.05364054599976953 0.4538348803126526 0.45188080117244755
0.05398809500002244 0.45481191988275516 0.44992672203224227
0.05432716299992535 0.4538348803126526 0.44699560332193444
0.05466289800006052 0.44992672203224227 0.44699560332193444
0.05499404100009997 0.45188080117244755 0.4450415241817294
0.055333737999717414 0.4509037616023448 0.4430874450415241
0.05566973299983147 0.45188080117244755 0.44211040547142155
0.0560070229998928 0.45676599902296044 0.4430874450415241
0.05635475799999767 0.44992672203224227 0.44406448461162684
0.05674052899985327 0.45188080117244755 0.441133365901319
0.05707828200002041 0.44992672203224227 0.44406448461162684
0.0574062949999643 0.4538348803126526 0.441133365901319
0.0577300859999923 0.4509037616023448 0.441133365901319
0.05805269099982979 0.45481191988275516 0.4430874450415241
0.05843118399980085 0.44992672203224227 0.4479726428920372
0.05882208499997432 0.44992672203224227 0.441133365901319
0.059164282999972784 0.44992672203224227 0.4430874450415241
0.05948948100012785 0.45188080117244755 0.44406448461162684
0.059824011999808135 0.45188080117244755 0.44894968246213973
0.06016056199996456 0.45188080117244755 0.4450415241817294
0.06050116699998398 0.44894968246213973 0.4460185637518319
0.0608363090000239 0.4528578407425501 0.44699560332193444
0.06117706199984241 0.45481191988275516 0.44894968246213973
0.06152772299992648 0.4538348803126526 0.4479726428920372
0.06186831000013626 0.4538348803126526 0.45188080117244755
0.06222206299980826 0.4538348803126526 0.4479726428920372
0.06269222099990657 0.4538348803126526 0.4528578407425501
0.06319197199991322 0.44992672203224227 0.44992672203224227
0.06393558799982202 0.44992672203224227 0.457743038593063
0.06509564199996021 0.4509037616023448 0.4587200781631655
0.06569803899992621 0.45188080117244755 0.4606741573033708
0.06625034399985452 0.4528578407425501 0.4636052760136786
0.06680018699989887 0.4538348803126526 0.46458231558378116
0.06720464199997878 0.4538348803126526 0.4587200781631655
0.06778116899977249 0.4509037616023448 0.46165119687347334
0.06868796799972188 0.4509037616023448 0.4665363947239862
0.06912920100012343 0.4528578407425501 0.46165119687347334
0.0698755399998845 0.4509037616023448 0.46165119687347334
0.07164463899971452 0.45188080117244755 0.4528578407425501
0.0725648640000145 0.44992672203224227 0.44894968246213973
0.07451584799991906 0.4509037616023448 0.4479726428920372
0.07498935800003892 0.4479726428920372 0.4450415241817294
0.07543459099997563 0.44894968246213973 0.4450415241817294
0.07593780499973946 0.4509037616023448 0.43917928676111373
0.07845442799998636 0.4528578407425501 0.44699560332193444
0.07982645899983254 0.4538348803126526 0.4479726428920372
0.08027239600005487 0.45481191988275516 0.4479726428920372
0.08067649999975401 0.457743038593063 0.45188080117244755
0.08111689999986993 0.4528578407425501 0.44992672203224227
0.0814994669999578 0.45676599902296044 0.44894968246213973
0.08184821999975611 0.4509037616023448 0.44992672203224227
0.08219188099974417 0.45481191988275516 0.4509037616023448
0.08257354099987424 0.4528578407425501 0.45481191988275516
0.08291053499988266 0.4538348803126526 0.44894968246213973
0.0832418999998481 0.4538348803126526 0.4538348803126526
0.08357672700003604 0.4528578407425501 0.45188080117244755
0.08392388799984474 0.4509037616023448 0.4587200781631655
0.08428065899988724 0.4479726428920372 0.45676599902296044
0.08461496800009627 0.4509037616023448 0.4587200781631655
0.0849551109999993 0.4528578407425501 0.46262823644357587
0.08530012299979717 0.4528578407425501 0.4587200781631655
0.0856454129998383 0.4528578407425501 0.457743038593063
0.0859818889998678 0.4509037616023448 0.46165119687347334
0.08632453099971826 0.44992672203224227 0.4606741573033708
0.08666804399990724 0.4538348803126526 0.46165119687347334
0.0870035929997357 0.4557889594528579 0.45969711773326827
0.08734566099974472 0.44894968246213973 0.46262823644357587
0.08768308099979549 0.44992672203224227 0.4606741573033708
0.0880164089999198 0.44894968246213973 0.45969711773326827
0.08836988399980328 0.4460185637518319 0.46165119687347334
0.08872054499988735 0.4479726428920372 0.4606741573033708
0.08906718699972771 0.44992672203224227 0.4606741573033708
0.08940712499997971 0.44894968246213973 0.4606741573033708
0.0897464529998615 0.4479726428920372 0.4587200781631655
0.0900886320000609 0.4557889594528579 0.4587200781631655
0.09044625499973336 0.45188080117244755 0.45481191988275516
0.09079160100009176 0.44894968246213973 0.4557889594528579
0.0911197440000251 0.45188080117244755 0.45676599902296044
0.09145305299989559 0.44992672203224227 0.4538348803126526
0.09179245399991487 0.4538348803126526 0.4528578407425501
0.09253864499987685 0.44894968246213973 0.4509037616023448
0.0930464140001277 0.45188080117244755 0.44699560332193444
0.0934884250000323 0.4538348803126526 0.4479726428920372
0.09386488099971757 0.4509037616023448 0.44699560332193444
0.09420850500009692 0.4509037616023448 0.44699560332193444
0.09459120199971949 0.44992672203224227 0.4460185637518319
0.09494351000012102 0.44992672203224227 0.44699560332193444
0.09527965300003416 0.4538348803126526 0.44211040547142155
0.0956285540000863 0.44992672203224227 0.4401563263312165
0.09597541799985265 0.44992672203224227 0.4430874450415241
0.09632528299971455 0.4528578407425501 0.4430874450415241
0.09667661000003136 0.45481191988275516 0.44406448461162684
0.09702215900006195 0.4528578407425501 0.4401563263312165
0.09737168999981805 0.4557889594528579 0.43917928676111373
0.09771225799977401 0.45481191988275516 0.4382022471910112
0.09805043799997293 0.45481191988275516 0.441133365901319
0.09842152400005943 0.4528578407425501 0.441133365901319
0.09875733299986678 0.457743038593063 0.44406448461162684
0.09908128999995824 0.45481191988275516 0.44406448461162684
0.09940461799988043 0.4528578407425501 0.4401563263312165
0.09972494499970708 0.4528578407425501 0.44211040547142155
0.10004725499993583 0.45481191988275516 0.44211040547142155
0.1003681189999952 0.4528578407425501 0.4460185637518319
0.10068826199994874 0.4528578407425501 0.4450415241817294
0.10100903400007155 0.4538348803126526 0.44699560332193444
0.10134213899982569 0.4528578407425501 0.44699560332193444
0.10166304099993795 0.4538348803126526 0.4528578407425501
0.10199033199978658 0.4528578407425501 0.4528578407425501
0.10232562200008033 0.4528578407425501 0.4509037616023448
0.10267091300011089 0.45676599902296044 0.4538348803126526
0.10301760999982434 0.4538348803126526 0.4538348803126526
0.10336195599984421 0.45481191988275516 0.4528578407425501
0.10370417200010706 0.45481191988275516 0.45481191988275516
0.10404488899985154 0.4557889594528579 0.4528578407425501
0.10438623399977587 0.4538348803126526 0.45676599902296044
0.10472443199978443 0.4528578407425501 0.457743038593063
0.10505685199996151 0.4509037616023448 0.45969711773326827
0.10539823499993872 0.4538348803126526 0.4606741573033708
0.10573845199996867 0.4538348803126526 0.4606741573033708
0.10609700099985275 0.4528578407425501 0.46165119687347334
0.10644736499989449 0.44992672203224227 0.46165119687347334
0.10679182200010473 0.4538348803126526 0.46458231558378116
0.10713794599996618 0.4538348803126526 0.45969711773326827
0.10746895800002676 0.4528578407425501 0.46262823644357587
0.10780634100001407 0.45481191988275516 0.46165119687347334
0.10815090999994936 0.4538348803126526 0.46262823644357587
0.10887226700015162 0.4528578407425501 0.46458231558378116
0.10930138899993835 0.4509037616023448 0.45969711773326827
0.10965203099976861 0.44894968246213973 0.4587200781631655
0.11000013700004274 0.4509037616023448 0.457743038593063
0.11035555599983127 0.45481191988275516 0.45481191988275516
0.11077715999999782 0.44894968246213973 0.45481191988275516
0.11114963499994701 0.4509037616023448 0.45481191988275516
0.11151668399998016 0.4528578407425501 0.4528578407425501
0.11186332599982052 0.4528578407425501 0.4587200781631655
0.11221706100013762 0.45481191988275516 0.4557889594528579
0.11257512900010624 0.4509037616023448 0.45481191988275516
0.1129102149998289 0.4509037616023448 0.44992672203224227
0.11323900599973058 0.44992672203224227 0.4538348803126526
0.11356603700005508 0.4509037616023448 0.4509037616023448
0.113892697999745 0.44992672203224227 0.45188080117244755
0.1142220809997525 0.4528578407425501 0.4479726428920372
0.11463199999980134 0.4509037616023448 0.4479726428920372
0.11496545699992566 0.4528578407425501 0.4450415241817294
0.11529650700003913 0.4528578407425501 0.44699560332193444
0.11562561199980337 0.4509037616023448 0.4430874450415241
0.11595223599988458 0.457743038593063 0.4450415241817294
0.11627782300001854 0.4538348803126526 0.4450415241817294
0.11660444700009975 0.4528578407425501 0.4460185637518319
0.11693092299992713 0.4528578407425501 0.441133365901319
0.11725728800001889 0.4528578407425501 0.4430874450415241
0.11758333799980392 0.4528578407425501 0.4430874450415241
0.11790962799977933 0.4509037616023448 0.4460185637518319
0.11823560399989219 0.45188080117244755 0.4430874450415241
0.11859065299995564 0.44894968246213973 0.4450415241817294
0.11895055400009369 0.44992672203224227 0.4450415241817294
0.11930649299983997 0.45676599902296044 0.4460185637518319
0.11967535699977816 0.4509037616023448 0.4450415241817294
0.12002705399982005 0.4528578407425501 0.4450415241817294
0.12037617799978761 0.4509037616023448 0.4479726428920372
0.12070974600010231 0.4538348803126526 0.44699560332193444
0.12103601799981334 0.44992672203224227 0.4479726428920372
0.12136147499995786 0.4538348803126526 0.4460185637518319
0.12169578399971215 0.4509037616023448 0.4528578407425501
0.12303072399981829 0.45481191988275516 0.4538348803126526
0.12345714200000657 0.44992672203224227 0.4557889594528579
0.12380708099999538 0.45188080117244755 0.45676599902296044
0.12460399299970959 0.44894968246213973 0.45969711773326827
0.1250244110001404 0.4509037616023448 0.46165119687347334
0.12537022000014986 0.45188080117244755 0.4606741573033708
0.12570352900002035 0.4528578407425501 0.46262823644357587
0.12602370900003734 0.4528578407425501 0.4606741573033708
0.12634364799987452 0.4509037616023448 0.46165119687347334
0.12673976999985825 0.45188080117244755 0.4606741573033708
0.1270768939998561 0.4509037616023448 0.46165119687347334
0.12739929600002142 0.44894968246213973 0.46458231558378116
0.12771769799974209 0.44992672203224227 0.46262823644357587
0.12803578500006552 0.4528578407425501 0.46458231558378116
0.12835427899972274 0.4528578407425501 0.46165119687347334
0.12867223700004615 0.4509037616023448 0.46262823644357587
0.1289906379997774 0.44992672203224227 0.4636052760136786
0.12931207700012237 0.44992672203224227 0.4636052760136786
0.1296303680001074 0.44699560332193444 0.4665363947239862
0.12995163999994475 0.4479726428920372 0.46165119687347334
0.1302738199997293 0.4479726428920372 0.4606741573033708
0.13105065799982185 0.44894968246213973 0.4557889594528579
0.132385819999854 0.44992672203224227 0.4538348803126526
0.13281118299983063 0.4509037616023448 0.44894968246213973
0.13315125100007208 0.45188080117244755 0.44992672203224227
0.13347930100007943 0.4509037616023448 0.44894968246213973
0.13381338799990772 0.4460185637518319 0.44992672203224227
0.13414832599983129 0.44894968246213973 0.4509037616023448
0.13448074600000837 0.44992672203224227 0.4479726428920372
0.1348108150000371 0.44992672203224227 0.44699560332193444
0.13513699399982215 0.44992672203224227 0.4460185637518319
0.135459358999924 0.45188080117244755 0.44211040547142155
0.13572027999998681 0.4460185637518319 0.44406448461162684
0.13591109199978746 0.44894968246213973 0.44406448461162684
0.13609918099973584 0.45188080117244755 0.44406448461162684
0.136287381999864 0.45188080117244755 0.44406448461162684
0.13647467500004495 0.44992672203224227 0.4430874450415241
0.1366647820000253 0.44992672203224227 0.44406448461162684
0.13685379799971997 0.45188080117244755 0.44406448461162684
0.13704451600005996 0.4538348803126526 0.4430874450415241
0.13723255000013523 0.45188080117244755 0.441133365901319
0.13742876900005285 0.44992672203224227 0.44211040547142155
0.13763759899984507 0.4528578407425501 0.43917928676111373
0.13784165100014434 0.45188080117244755 0.4401563263312165
0.1380299070001456 0.4509037616023448 0.4401563263312165
0.13821806999976616 0.45188080117244755 0.4401563263312165
0.1384160669999801 0.4509037616023448 0.441133365901319
0.1386058969997066 0.4528578407425501 0.44406448461162684
0.1387936900000568 0.45188080117244755 0.4430874450415241
0.13898003799977232 0.45188080117244755 0.441133365901319
0.1391667759999109 0.4528578407425501 0.4430874450415241
0.1393530689997533 0.45481191988275516 0.4509037616023448
0.13953941699992356 0.4509037616023448 0.4460185637518319
0.13972628500005158 0.45188080117244755 0.4460185637518319
0.13991281800008437 0.4528578407425501 0.44699560332193444
0.14009983400001147 0.45188080117244755 0.44699560332193444
0.14028616399991733 0.4538348803126526 0.4479726428920372
0.14047364199996082 0.4538348803126526 0.4450415241817294
0.14066013899991958 0.4538348803126526 0.4479726428920372
0.14084646899982545 0.4557889594528579 0.44894968246213973
0.14103313199984768 0.4538348803126526 0.44699560332193444
0.14121994400011317 0.45188080117244755 0.44894968246213973
0.1414061259997652 0.45188080117244755 0.45676599902296044
0.14159258500012584 0.44894968246213973 0.44992672203224227
0.14177939699993658 0.4509037616023448 0.44992672203224227
0.1419665969997368 0.4538348803126526 0.45188080117244755
0.14215251999985412 0.4538348803126526 0.4509037616023448
0.14233873900002436 0.4509037616023448 0.45188080117244755
0.14253245800000514 0.45188080117244755 0.4538348803126526
0.14272436200008087 0.45188080117244755 0.44894968246213973
0.14291126599982817 0.4538348803126526 0.4538348803126526
0.14309783699991385 0.45188080117244755 0.4538348803126526
0.14328333399998883 0.45188080117244755 0.45481191988275516
0.1434694039999158 0.45188080117244755 0.45676599902296044
0.1436553640000966 0.4528578407425501 0.4528578407425501
0.14384212000004482 0.45188080117244755 0.45481191988275516
0.14402844999995068 0.4528578407425501 0.457743038593063
0.1442164469999625 0.45188080117244755 0.4557889594528579
0.1444035360000271 0.4538348803126526 0.45676599902296044
0.14459025499991185 0.45188080117244755 0.45969711773326827
0.14477721499997642 0.4528578407425501 0.45969711773326827
0.14496382300012556 0.45188080117244755 0.457743038593063
0.1451496340000631 0.4509037616023448 0.4606741573033708
0.14535966799985545 0.44894968246213973 0.46262823644357587
0.1455757009998706 0.4557889594528579 0.4606741573033708
0.14577614199970412 0.44894968246213973 0.4636052760136786
0.14597413799992864 0.4528578407425501 0.4636052760136786
0.14616445000001477 0.4509037616023448 0.46165119687347334
0.14635063200012155 0.45188080117244755 0.46458231558378116
0.1465497399999549 0.44992672203224227 0.46165119687347334
0.14673893999997745 0.45188080117244755 0.45969711773326827
0.14692551100006312 0.45188080117244755 0.45969711773326827
0.14711195199970462 0.44992672203224227 0.45676599902296044
0.14729968899973755 0.44894968246213973 0.46262823644357587
0.14748627900007705 0.4509037616023448 0.46262823644357587
0.14767284999970798 0.45188080117244755 0.46262823644357587
0.14785899399976188 0.4538348803126526 0.46262823644357587
0.14804524999999558 0.45188080117244755 0.46458231558378116
0.14823189499975342 0.45188080117244755 0.4636052760136786
0.14841831800004002 0.45188080117244755 0.4636052760136786
0.14860444399982953 0.45188080117244755 0.4636052760136786
0.14879220000011628 0.45481191988275516 0.4636052760136786
0.14897908600005394 0.45188080117244755 0.4636052760136786
0.14916654599983303 0.45188080117244755 0.46458231558378116
0.1493531169999187 0.45188080117244755 0.4636052760136786
0.14954024300004676 0.44894968246213973 0.46946751343429405
0.14972824000005858 0.4528578407425501 0.4636052760136786
0.1499163660000704 0.4528578407425501 0.46262823644357587
0.1501031590000821 0.4509037616023448 0.46165119687347334
0.1502905259999352 0.4528578407425501 0.46165119687347334
0.15050172600012957 0.44894968246213973 0.45969711773326827
0.1506906300000992 0.44894968246213973 0.4606741573033708
0.15087829399999464 0.4509037616023448 0.457743038593063
0.15106534599999577 0.45188080117244755 0.45969711773326827
0.1512514910000391 0.44992672203224227 0.45969711773326827
0.15143811699999787 0.4509037616023448 0.4557889594528579
0.15162568799996734 0.45188080117244755 0.45481191988275516
0.15181290700002137 0.4509037616023448 0.45969711773326827
0.15201756999977079 0.4538348803126526 0.457743038593063
0.15220584500002587 0.44894968246213973 0.457743038593063
0.1523922860001221 0.44992672203224227 0.45481191988275516
0.15257898599975306 0.44894968246213973 0.4509037616023448
0.15276535299972238 0.44894968246213973 0.4528578407425501
0.15295286899981875 0.44894968246213973 0.4538348803126526
0.15313925400005246 0.44992672203224227 0.45188080117244755
0.15332588100000066 0.44992672203224227 0.4557889594528579
0.15351189600005455 0.44992672203224227 0.44992672203224227
0.15369850399974894 0.45188080117244755 0.45188080117244755
0.153885186000025 0.44894968246213973 0.44699560332193444
0.1540725710001425 0.4528578407425501 0.44406448461162684
0.1542586239997945 0.44992672203224227 0.4479726428920372
0.15445002799970098 0.44894968246213973 0.44699560332193444
0.15464976499970362 0.4479726428920372 0.4460185637518319
0.15489776100002928 0.44699560332193444 0.441133365901319
0.15648143699991124 0.4528578407425501 0.4430874450415241
0.15732905100003336 0.45188080117244755 0.43917928676111373
0.1578907819998676 0.4528578407425501 0.4430874450415241
0.1581402040001194 0.4528578407425501 0.441133365901319
0.1583683670000937 0.45676599902296044 0.4401563263312165
0.1586264359998495 0.4538348803126526 0.44211040547142155
0.15907520600012504 0.4509037616023448 0.4430874450415241
0.1592730180000217 0.4509037616023448 0.441133365901319
0.15946508799970616 0.45188080117244755 0.441133365901319
0.1596550849999403 0.4538348803126526 0.4430874450415241
0.1598443220000263 0.45188080117244755 0.44406448461162684
0.16003635600009147 0.4509037616023448 0.44406448461162684
0.16110959699972227 0.4528578407425501 0.44992672203224227
0.1613171109997893 0.45188080117244755 0.4479726428920372
0.16151053399971715 0.45188080117244755 0.44699560332193444
0.16170017900003586 0.4538348803126526 0.4509037616023448
0.16189149000001635 0.45188080117244755 0.45188080117244755
0.16208224599995447 0.4557889594528579 0.4509037616023448
0.162271316999977 0.4557889594528579 0.4538348803126526
0.1625100719998045 0.45969711773326827 0.4538348803126526
0.16270069799975317 0.4538348803126526 0.4538348803126526
0.16288797300012448 0.4528578407425501 0.45481191988275516
0.16307509899979777 0.4509037616023448 0.4538348803126526
0.1632637809998414 0.4528578407425501 0.4538348803126526
0.16345022199993764 0.45188080117244755 0.4587200781631655
0.16364079300001322 0.45188080117244755 0.45481191988275516
0.16382947500005685 0.4528578407425501 0.45481191988275516
0.16401860099995247 0.4528578407425501 0.457743038593063
0.16420583899980556 0.45188080117244755 0.45481191988275516
0.16439833599997655 0.45188080117244755 0.45676599902296044
0.16459055399991485 0.45188080117244755 0.45676599902296044
0.16479375500011884 0.4557889594528579 0.4606741573033708
0.16498462199979258 0.45188080117244755 0.4587200781631655
0.16517113700001573 0.45188080117244755 0.45676599902296044
0.1653579300000274 0.45188080117244755 0.45969711773326827
0.16554437100012365 0.45188080117244755 0.45969711773326827
0.16573094199975458 0.4528578407425501 0.46165119687347334
0.16591762400003063 0.45481191988275516 0.46165119687347334
0.16610437999997885 0.4528578407425501 0.4606741573033708
0.1662911539997367 0.44992672203224227 0.46262823644357587
0.16649552099988796 0.4509037616023448 0.4606741573033708
0.16668210999978328 0.44894968246213973 0.46262823644357587
0.1668689779999113 0.44894968246213973 0.4606741573033708
0.167055677999997 0.4509037616023448 0.46165119687347334
0.16724697099971308 0.4479726428920372 0.45969711773326827
0.1674329120000948 0.44992672203224227 0.4636052760136786
0.16762052000012773 0.4460185637518319 0.4665363947239862
0.16780759099992792 0.44992672203224227 0.4655593551538837
0.16799379099984435 0.44992672203224227 0.4606741573033708
0.1681800100000146 0.45188080117244755 0.46262823644357587
0.16836706300000515 0.45188080117244755 0.46458231558378116
0.16855415200006973 0.4509037616023448 0.4636052760136786
0.16874044499991214 0.4538348803126526 0.4636052760136786
0.16892707099987092 0.4509037616023448 0.4636052760136786
0.16911538299973472 0.45188080117244755 0.46458231558378116
0.16931117600006473 0.44992672203224227 0.46165119687347334
0.16950006099978054 0.4509037616023448 0.46165119687347334
0.16968550299998242 0.4450415241817294 0.46262823644357587
0.1698726469999201 0.44894968246213973 0.45969711773326827
0.1700598849997732 0.44894968246213973 0.4587200781631655
0.1702473079999436 0.44699560332193444 0.457743038593063
0.17044030399983967 0.4460185637518319 0.457743038593063
0.1706437449997793 0.44406448461162684 0.4557889594528579
0.17084233400009907 0.4460185637518319 0.45676599902296044
0.1710352199997942 0.44699560332193444 0.45969711773326827
0.17127167899980122 0.4538348803126526 0.4587200781631655
0.17146173099990847 0.45188080117244755 0.4528578407425501
0.17165319000014279 0.4460185637518319 0.45188080117244755
0.17184013199994297 0.44992672203224227 0.4509037616023448
0.17202968399988094 0.45188080117244755 0.44894968246213973
0.17221671800007243 0.4460185637518319 0.4509037616023448
0.1724039549999361 0.4509037616023448 0.44992672203224227
0.1725908220000747 0.4509037616023448 0.4479726428920372
0.17277694899985363 0.4509037616023448 0.45188080117244755
0.1729641490001086 0.44992672203224227 0.44992672203224227
0.17315010899983463 0.4509037616023448 0.44992672203224227
0.17333716099983576 0.45188080117244755 0.45188080117244755
0.17352312100001654 0.4479726428920372 0.4479726428920372
0.17371291400013433 0.44992672203224227 0.44699560332193444
0.17389939199983928 0.44992672203224227 0.4460185637518319
0.17408533299976625 0.45676599902296044 0.44406448461162684
0.17427208899971447 0.4479726428920372 0.4430874450415241
0.1744740300000558 0.44894968246213973 0.4460185637518319
0.17466000800004622 0.4509037616023448 0.4430874450415241
0.17484813500004748 0.4509037616023448 0.44406448461162684
0.17503405699972063 0.4509037616023448 0.44406448461162684
0.1752206279998063 0.4528578407425501 0.44211040547142155
0.17540660599979674 0.4509037616023448 0.44699560332193444
0.17559308499994586 0.4528578407425501 0.441133365901319
0.1757824520000213 0.4557889594528579 0.4479726428920372
0.17596807800009628 0.457743038593063 0.4450415241817294
0.17615385299995978 0.4538348803126526 0.4430874450415241
0.17633933099978094 0.4509037616023448 0.4460185637518319
0.17652517899978193 0.4538348803126526 0.4430874450415241
0.17671095400010017 0.44894968246213973 0.4430874450415241
0.17689806199996383 0.45481191988275516 0.4450415241817294
0.17708596600004967 0.45188080117244755 0.441133365901319
0.17727166599979682 0.4509037616023448 0.4430874450415241
0.17745729299986124 0.4509037616023448 0.44211040547142155
0.17764388199975656 0.4509037616023448 0.441133365901319
0.1778309339997577 0.4557889594528579 0.4430874450415241
0.17801831999986462 0.4479726428920372 0.4430874450415241
0.17821792799986724 0.4479726428920372 0.4430874450415241
0.1784316459998081 0.45188080117244755 0.44406448461162684
0.1786616609997509 0.4479726428920372 0.44406448461162684
0.1788814530000309 0.45676599902296044 0.44211040547142155
0.17909459800011973 0.45188080117244755 0.4450415241817294
0.17929448299992146 0.45188080117244755 0.4450415241817294
0.1799882489999618 0.45188080117244755 0.44406448461162684
0.18022924399974727 0.44894968246213973 0.44699560332193444
0.18055738700013535 0.4509037616023448 0.44406448461162684
0.18075258699991537 0.4528578407425501 0.44699560332193444
0.18094158399981097 0.45481191988275516 0.45481191988275516
0.1811300439999286 0.44992672203224227 0.44894968246213973
0.1813173000000461 0.4538348803126526 0.45188080117244755
0.18150377799975104 0.45969711773326827 0.44894968246213973
0.18169418199977372 0.45188080117244755 0.4528578407425501
0.18188164200000756 0.4528578407425501 0.4509037616023448
0.18206784199992398 0.4528578407425501 0.4538348803126526
0.18227796800010765 0.45188080117244755 0.4557889594528579
0.18251896399988254 0.44894968246213973 0.45481191988275516
0.1828333839998777 0.4509037616023448 0.4557889594528579
0.1830483250000725 0.4538348803126526 0.457743038593063
0.1832512470000438 0.4509037616023448 0.45969711773326827
0.18344053999999232 0.45188080117244755 0.4538348803126526
0.18362761099979252 0.44894968246213973 0.4538348803126526
0.18381614500003707 0.44992672203224227 0.4528578407425501
0.18400340100015455 0.45188080117244755 0.45481191988275516
0.1841902860001028 0.45188080117244755 0.45481191988275516
0.18437622800001918 0.45188080117244755 0.4557889594528579
0.18456285399997796 0.45188080117244755 0.45969711773326827
0.18474909199994727 0.45188080117244755 0.45969711773326827
0.18495803199994043 0.45676599902296044 0.45969711773326827
0.18514828799970928 0.44992672203224227 0.46165119687347334
0.18533761799972126 0.4509037616023448 0.46165119687347334
0.18552391100001842 0.44894968246213973 0.4587200781631655
0.18571001899999828 0.45481191988275516 0.46262823644357587
0.1858967009998196 0.4479726428920372 0.46458231558378116
0.1860836239998207 0.44894968246213973 0.46262823644357587
0.1862701019999804 0.4460185637518319 0.4636052760136786
0.18648448700014342 0.45188080117244755 0.4636052760136786
0.18667189100006 0.4509037616023448 0.4636052760136786
0.18685785099978602 0.4509037616023448 0.4606741573033708
0.1870438109999668 0.4509037616023448 0.46262823644357587
0.18722949299990432 0.45188080117244755 0.4606741573033708
0.1874153409999053 0.45188080117244755 0.4636052760136786
0.18760187499992753 0.44992672203224227 0.46458231558378116
0.18778726099981213 0.4509037616023448 0.46458231558378116
0.1879737760000353 0.4528578407425501 0.46262823644357587
0.18815993899988825 0.4509037616023448 0.4655593551538837
0.18834717699974135 0.4509037616023448 0.45969711773326827
0.1885330810000596 0.44992672203224227 0.46165119687347334
0.1887197070000184 0.4509037616023448 0.4655593551538837
0.1889065559998926 0.45188080117244755 0.46165119687347334
0.18909307100011574 0.44992672203224227 0.4606741573033708
0.18927993799979959 0.4479726428920372 0.4606741573033708
0.1894665649997478 0.44992672203224227 0.4587200781631655
0.18965278399991803 0.44894968246213973 0.45969711773326827
0.18984050300014133 0.44894968246213973 0.45969711773326827
0.19002799899999445 0.4528578407425501 0.4636052760136786
0.19021457000008013 0.4509037616023448 0.4587200781631655
0.19040769699995508 0.44894968246213973 0.4587200781631655
0.1905975079998825 0.44992672203224227 0.45969711773326827
0.19078305999983058 0.4479726428920372 0.457743038593063
0.190968908999821 0.45188080117244755 0.4587200781631655
0.19115564599997015 0.45188080117244755 0.45676599902296044
0.1913414579998971 0.4450415241817294 0.4528578407425501
0.19152778799980297 0.44992672203224227 0.4538348803126526
0.1917153959998359 0.44699560332193444 0.45481191988275516
0.19190159599975232 0.4509037616023448 0.4509037616023448
0.19209637099993415 0.44894968246213973 0.45481191988275516
0.1922824230000515 0.4538348803126526 0.4528578407425501
0.19246890099975644 0.4509037616023448 0.45188080117244755
0.19265628699986337 0.44894968246213973 0.44699560332193444
0.19284241300010763 0.44699560332193444 0.4509037616023448
0.19302876199981256 0.4509037616023448 0.44992672203224227
0.1932147590000568 0.44894968246213973 0.4509037616023448
0.19339995900008944 0.4509037616023448 0.44992672203224227
0.19358601099975203 0.4509037616023448 0.4509037616023448
0.19377210099992226 0.45481191988275516 0.44992672203224227
0.19395748599981744 0.44894968246213973 0.4509037616023448
0.1941431499999453 0.4509037616023448 0.4479726428920372
0.19432972100003099 0.44894968246213973 0.44992672203224227
0.19451908800010642 0.45188080117244755 0.4460185637518319
0.19470477000004394 0.4538348803126526 0.4460185637518319
0.1948906919997171 0.4538348803126526 0.441133365901319
0.19507705900014116 0.45481191988275516 0.44406448461162684
0.19526344499990955 0.4509037616023448 0.441133365901319
0.19544999699974142 0.44894968246213973 0.44699560332193444
0.19563547600000675 0.4509037616023448 0.44406448461162684
0.19582150899987028 0.44992672203224227 0.4401563263312165
0.196009672999935 0.45481191988275516 0.4430874450415241
0.1961964839997563 0.4528578407425501 0.441133365901319
0.19638231399994766 0.4538348803126526 0.441133365901319
0.19656825599986405 0.4509037616023448 0.44406448461162684
0.19675504899987573 0.45481191988275516 0.4430874450415241
0.19694069399974978 0.45481191988275516 0.4460185637518319
0.1971270240001104 0.4557889594528579 0.441133365901319
0.1973129279999739 0.4528578407425501 0.4479726428920372
0.1975022579999859 0.4538348803126526 0.44211040547142155
0.19769003200008228 0.4538348803126526 0.4430874450415241
0.19787625099979778 0.45188080117244755 0.441133365901319
0.19806291499980944 0.44992672203224227 0.44211040547142155
0.19824892999986332 0.4509037616023448 0.4430874450415241
0.19843609300005483 0.45188080117244755 0.441133365901319
0.19862358999989738 0.44894968246213973 0.441133365901319
0.19882606800001668 0.4509037616023448 0.4430874450415241
0.199012656999912 0.4509037616023448 0.4430874450415241
0.19919943200011403 0.45188080117244755 0.4430874450415241
0.19938567000008334 0.45188080117244755 0.44406448461162684
0.19957203700005266 0.4538348803126526 0.4479726428920372
0.1997575330001382 0.4528578407425501 0.4479726428920372
0.19994399300003352 0.4538348803126526 0.44406448461162684
0.200130211999749 0.4528578407425501 0.44211040547142155
0.20031674599977123 0.4509037616023448 0.4460185637518319
0.2005027609998251 0.4528578407425501 0.44406448461162684
0.2006895539998368 0.4509037616023448 0.4460185637518319
0.20087566199981666 0.4538348803126526 0.4450415241817294
0.20106160299974363 0.4509037616023448 0.44992672203224227
0.20124793300010424 0.4538348803126526 0.4450415241817294
0.20143346699978792 0.45188080117244755 0.4479726428920372
0.20161977899988415 0.4528578407425501 0.4479726428920372
0.20180620099972657 0.4528578407425501 0.4509037616023448
0.2019924199998968 0.4528578407425501 0.44894968246213973
0.20217810199983433 0.4538348803126526 0.4557889594528579
0.20236470999998346 0.4528578407425501 0.4557889594528579
0.20256496599995444 0.45188080117244755 0.45481191988275516
0.20275081399995543 0.45188080117244755 0.4665363947239862
0.20293751500003054 0.4587200781631655 0.4528578407425501
0.20312373399974604 0.44992672203224227 0.4538348803126526
0.20331097100006446 0.4509037616023448 0.4538348803126526
0.20349702399971648 0.45188080117244755 0.457743038593063
0.20368298299990784 0.4528578407425501 0.4557889594528579
0.20387018400015222 0.45188080117244755 0.4538348803126526
0.20405636599980426 0.44894968246213973 0.4557889594528579
0.2042428069999005 0.4538348803126526 0.4538348803126526
0.20442856299996492 0.45188080117244755 0.4538348803126526
0.20461507799973333 0.45188080117244755 0.45481191988275516
0.20480414899975585 0.45188080117244755 0.4587200781631655
0.20499094199976753 0.4509037616023448 0.4606741573033708
0.2051780870001494 0.4538348803126526 0.45969711773326827
0.20536412100000234 0.4538348803126526 0.4587200781631655
0.2055502839998553 0.4538348803126526 0.4587200781631655
0.20573626199984574 0.4509037616023448 0.457743038593063
0.20592320400010067 0.4538348803126526 0.45676599902296044
0.20610914500002764 0.4528578407425501 0.4587200781631655
0.2062950859999546 0.45188080117244755 0.4655593551538837
0.20648721199995634 0.4538348803126526 0.45969711773326827
0.20667209800012643 0.45481191988275516 0.4636052760136786
0.2068588719998843 0.4509037616023448 0.4665363947239862
0.2070455539997056 0.44894968246213973 0.46165119687347334
0.20723218100010854 0.45188080117244755 0.45969711773326827
0.20741841800008842 0.4509037616023448 0.46165119687347334
0.20760421099976156 0.44894968246213973 0.45969711773326827
0.20779024500006926 0.4509037616023448 0.46262823644357587
0.2079764459999751 0.4509037616023448 0.46262823644357587
0.20816247899983864 0.45188080117244755 0.46165119687347334
0.20834797599991361 0.4528578407425501 0.46262823644357587
0.2085344540000733 0.4479726428920372 0.4606741573033708
0.20872021000013774 0.44992672203224227 0.45969711773326827
0.20890635499972632 0.44894968246213973 0.46262823644357587
0.20909227799984365 0.44992672203224227 0.45969711773326827
0.20927818199970716 0.44992672203224227 0.457743038593063
0.2094640119998985 0.44894968246213973 0.4606741573033708
0.20965015699994183 0.44992672203224227 0.46165119687347334
0.2098358759999428 0.44894968246213973 0.46165119687347334
0.21002190999979575 0.44699560332193444 0.4587200781631655
0.21020810999971218 0.4479726428920372 0.45676599902296044
0.2103986070001156 0.44699560332193444 0.4587200781631655
0.21058447399991564 0.44894968246213973 0.45676599902296044
0.21077008199972624 0.4460185637518319 0.45676599902296044
0.21095765300015046 0.44699560332193444 0.45676599902296044
0.21114392699973905 0.44699560332193444 0.46165119687347334
0.2113290170000255 0.4460185637518319 0.4587200781631655
0.21151451300011104 0.4450415241817294 0.45676599902296044
0.21170028799997453 0.44992672203224227 0.4538348803126526
0.21188630300002842 0.44992672203224227 0.4557889594528579
0.2120730779997757 0.44992672203224227 0.45481191988275516
0.2122593340000094 0.44699560332193444 0.45188080117244755
0.21244586800003162 0.44894968246213973 0.44992672203224227
0.2126317160000326 0.44894968246213973 0.44894968246213973
0.21281763900014994 0.45188080117244755 0.44894968246213973
0.21300348700015093 0.4538348803126526 0.45188080117244755
0.21318944699987696 0.4557889594528579 0.4528578407425501
0.2133752770000683 0.4538348803126526 0.4509037616023448
0.21356134799998472 0.45188080117244755 0.44894968246213973
0.21374749300002804 0.457743038593063 0.4479726428920372
0.21393326799989154 0.45188080117244755 0.44992672203224227
0.21411985699978686 0.4509037616023448 0.44894968246213973
0.21430526099993585 0.4528578407425501 0.4460185637518319
0.2144940539997151 0.45188080117244755 0.44699560332193444
0.21467988399990645 0.4538348803126526 0.4450415241817294
0.2148711770000773 0.45188080117244755 0.4460185637518319
0.21506074799981434 0.45188080117244755 0.44406448461162684
0.21524715199984712 0.4509037616023448 0.4460185637518319
0.21543266699973174 0.4538348803126526 0.4430874450415241
0.21562247900010334 0.45188080117244755 0.44406448461162684
0.21580847599989283 0.4538348803126526 0.44211040547142155
0.215994082999714 0.45676599902296044 0.441133365901319
0.2161794319999899 0.46165119687347334 0.44211040547142155
0.2163658179997583 0.45481191988275516 0.44406448461162684
0.21655188900012945 0.457743038593063 0.4430874450415241
0.21673734800015154 0.45969711773326827 0.4430874450415241
0.21692408599983537 0.4557889594528579 0.43917928676111373
0.21711017500001617 0.457743038593063 0.4430874450415241
0.2172966160001124 0.45481191988275516 0.441133365901319
0.2174826129999019 0.4557889594528579 0.44211040547142155
0.21766820199991344 0.4538348803126526 0.44211040547142155
0.21785419899970293 0.45481191988275516 0.44211040547142155
0.21803963999991538 0.4528578407425501 0.441133365901319
0.2182248780000009 0.45188080117244755 0.4430874450415241
0.21841507799990723 0.4538348803126526 0.4430874450415241
0.21860537099973953 0.45676599902296044 0.44406448461162684
0.21879495999974097 0.4509037616023448 0.4430874450415241
0.21898460500005967 0.45481191988275516 0.44894968246213973
0.2191806020000513 0.4538348803126526 0.44406448461162684
0.21939352399976997 0.4509037616023448 0.4479726428920372
0.21960757599981662 0.44992672203224227 0.44992672203224227
0.21981062799977735 0.4509037616023448 0.44699560332193444
0.22001260599972738 0.45188080117244755 0.44406448461162684
0.22021910200010097 0.45188080117244755 0.45188080117244755
0.2205293009997149 0.45188080117244755 0.44699560332193444
0.22076805599999716 0.4509037616023448 0.44699560332193444
0.22098366299996997 0.4509037616023448 0.4460185637518319
0.22118452999984584 0.4538348803126526 0.4479726428920372
0.22137506399985796 0.45188080117244755 0.4460185637518319
0.221565893999923 0.4557889594528579 0.4528578407425501
0.2217554089997975 0.45188080117244755 0.44894968246213973
0.22194421999984115 0.44992672203224227 0.44894968246213973
0.22213458699980038 0.45188080117244755 0.44894968246213973
0.22232375099974888 0.4509037616023448 0.4509037616023448
0.22251376599979267 0.4509037616023448 0.45188080117244755
0.22270342899992102 0.44992672203224227 0.44894968246213973
0.22289357399995424 0.4528578407425501 0.4538348803126526
0.22308205199988151 0.4538348803126526 0.4509037616023448
0.22327062299973477 0.45481191988275516 0.4528578407425501
0.2234596009998313 0.4538348803126526 0.4538348803126526
0.22364794999975857 0.45969711773326827 0.4528578407425501
0.22383744699982344 0.4528578407425501 0.4538348803126526
0.2240258689998882 0.45188080117244755 0.457743038593063
0.22421703300005902 0.45188080117244755 0.4538348803126526
0.22442093600011503 0.4528578407425501 0.45676599902296044
0.22462656200013953 0.4538348803126526 0.4587200781631655
0.22481737399994017 0.45481191988275516 0.457743038593063
0.22500748199990994 0.4557889594528579 0.4606741573033708
0.22519575599972086 0.45481191988275516 0.4606741573033708
0.2253840489997856 0.45481191988275516 0.45969711773326827
0.22557345299992448 0.4528578407425501 0.45969711773326827
0.2257624690000739 0.45188080117244755 0.46165119687347334
0.22595113199986372 0.45188080117244755 0.46165119687347334
0.22613953600011882 0.4538348803126526 0.46262823644357587
0.22632812499978172 0.44992672203224227 0.46262823644357587
0.22651865899979384 0.44894968246213973 0.4655593551538837
0.2267071930000384 0.45481191988275516 0.46165119687347334
0.22689633799973308 0.4538348803126526 0.46262823644357587
0.227085334000094 0.44992672203224227 0.46458231558378116
0.2272739609998098 0.44894968246213973 0.4636052760136786
0.22746247599980052 0.4509037616023448 0.4655593551538837
0.22765169500007687 0.44992672203224227 0.46262823644357587
0.22784448799984602 0.44894968246213973 0.4655593551538837
0.22803415099997437 0.44894968246213973 0.4655593551538837
0.22822336999979598 0.44992672203224227 0.46262823644357587
0.2284119779997127 0.44992672203224227 0.46262823644357587
0.22860138199985158 0.44992672203224227 0.46262823644357587
0.22879019299989523 0.44992672203224227 0.4636052760136786
0.2289789120000023 0.44894968246213973 0.4636052760136786
0.22916803899988736 0.45188080117244755 0.4655593551538837
0.22935666500006846 0.44894968246213973 0.46165119687347334
0.22954575399990063 0.45188080117244755 0.4606741573033708
0.2297369359998811 0.4509037616023448 0.46262823644357587
0.2299270999997134 0.4509037616023448 0.46165119687347334
0.23011676299984174 0.457743038593063 0.4587200781631655
0.23030570399987482 0.4528578407425501 0.46262823644357587
0.23049551599979168 0.4509037616023448 0.4587200781631655
0.23068415999978242 0.4509037616023448 0.457743038593063
0.23087312000006932 0.45188080117244755 0.45969711773326827
0.23106230199982747 0.4528578407425501 0.45676599902296044
0.2312507619999451 0.457743038593063 0.45676599902296044
0.23143946199979837 0.45481191988275516 0.4557889594528579
0.23162827399983144 0.4557889594528579 0.45481191988275516
0.23181719600006545 0.457743038593063 0.457743038593063
0.23200674800000343 0.45188080117244755 0.457743038593063
0.23219563399970866 0.4538348803126526 0.45481191988275516
0.2323841679999532 0.457743038593063 0.45481191988275516
0.23257281299993338 0.4528578407425501 0.45188080117244755
0.23276153200004046 0.4509037616023448 0.4538348803126526
0.232950510000137 0.4509037616023448 0.45188080117244755
0.2331394879997788 0.4538348803126526 0.457743038593063
0.23332792900009736 0.4538348803126526 0.45188080117244755
0.23351709200005644 0.4557889594528579 0.4509037616023448
0.2337060519998886 0.45188080117244755 0.4538348803126526
0.23389436399975239 0.4528578407425501 0.45188080117244755
0.2340829899999335 0.45188080117244755 0.4479726428920372
0.23427291300004072 0.4528578407425501 0.44699560332193444
0.23448170499978005 0.4538348803126526 0.44699560332193444
0.2346707020001304 0.4538348803126526 0.4460185637518319
0.23485940199998367 0.4528578407425501 0.4460185637518319
0.2350478620001013 0.4538348803126526 0.4479726428920372
0.2352374699999018 0.4557889594528579 0.4450415241817294
0.23542600400014635 0.4557889594528579 0.4430874450415241
0.2356145559997458 0.4509037616023448 0.4450415241817294
0.23580316400011725 0.4528578407425501 0.44406448461162684
0.2359917159997167 0.4528578407425501 0.441133365901319
0.23618134199978158 0.45676599902296044 0.44406448461162684
0.23637056100005793 0.45481191988275516 0.44406448461162684
0.23655979900013335 0.4528578407425501 0.4450415241817294
0.23674892500002898 0.4538348803126526 0.44406448461162684
0.23693775499987169 0.45188080117244755 0.44406448461162684
0.23712703000001056 0.45188080117244755 0.441133365901319
0.23731597100004365 0.4538348803126526 0.44699560332193444
0.23750517100006618 0.44992672203224227 0.4430874450415241
0.2376942420000887 0.45188080117244755 0.4430874450415241
0.23788353500003723 0.4538348803126526 0.4430874450415241
0.23807232799981648 0.4528578407425501 0.441133365901319
0.23826189900000827 0.4528578407425501 0.44211040547142155
0.238461561999884 0.4557889594528579 0.44406448461162684
0.23865065099971616 0.4509037616023448 0.44211040547142155
0.23883998099972814 0.45481191988275516 0.4460185637518319
0.23902921899980356 0.4528578407425501 0.44211040547142155
0.23921891899999537 0.4538348803126526 0.44211040547142155
0.23940835999974297 0.4538348803126526 0.44211040547142155
0.23959694899986062 0.4538348803126526 0.4479726428920372
0.23978509400012626 0.4538348803126526 0.44211040547142155
0.2399735169997257 0.45481191988275516 0.4430874450415241
0.2401621429999068 0.4509037616023448 0.441133365901319
0.24035108399993987 0.45676599902296044 0.4430874450415241
0.24054430299975138 0.4538348803126526 0.4430874450415241
0.24080644700006815 0.4538348803126526 0.4430874450415241
0.2410252390000096 0.45188080117244755 0.4450415241817294
0.24121808800009603 0.4528578407425501 0.44699560332193444
0.2414082509999389 0.4557889594528579 0.45188080117244755
0.24160030299981372 0.45188080117244755 0.44992672203224227
0.24179078099996332 0.45188080117244755 0.4509037616023448
0.24198003699984838 0.45481191988275516 0.4509037616023448
0.24216936699986036 0.4538348803126526 0.4528578407425501
0.24235878999979832 0.4538348803126526 0.4538348803126526
0.24256515699971715 0.4528578407425501 0.4509037616023448
0.24275428300006752 0.45188080117244755 0.45481191988275516
0.24294379799994203 0.45188080117244755 0.4509037616023448
0.24313207299974238 0.45481191988275516 0.4538348803126526
0.24332118099982836 0.4557889594528579 0.4557889594528579
0.24351010300006237 0.45188080117244755 0.457743038593063
0.2436998590001167 0.45188080117244755 0.4557889594528579
0.24388841199970557 0.45188080117244755 0.457743038593063
0.24407803799977046 0.4538348803126526 0.4587200781631655
0.24426712700005737 0.457743038593063 0.46165119687347334
0.24445582799990007 0.4509037616023448 0.4587200781631655
0.2446458800000073 0.4509037616023448 0.45969711773326827
0.24483430200007206 0.45481191988275516 0.4636052760136786
0.24502331799976673 0.44894968246213973 0.45969711773326827
0.24521211100000073 0.44992672203224227 0.4587200781631655
0.24540049600000202 0.44894968246213973 0.45676599902296044
0.24558867799987638 0.4479726428920372 0.4606741573033708
0.2457785819997298 0.44992672203224227 0.46262823644357587
0.24596831999997448 0.4460185637518319 0.4606741573033708
0.24615718699988065 0.44894968246213973 0.4636052760136786
0.2463461649999772 0.44894968246213973 0.46165119687347334
0.2465368469997884 0.4479726428920372 0.4606741573033708
0.24672528800010696 0.4509037616023448 0.457743038593063
0.24691797000014049 0.44992672203224227 0.46165119687347334
0.24710739200008902 0.4509037616023448 0.4636052760136786
0.24729548200002682 0.44894968246213973 0.4636052760136786
0.2474848669999119 0.45188080117244755 0.4587200781631655
0.24767354899995553 0.45188080117244755 0.46262823644357587
0.24786234199973478 0.4509037616023448 0.4606741573033708
0.24805061699998987 0.45188080117244755 0.4636052760136786
0.2482401319998644 0.44894968246213973 0.4636052760136786
0.24842916599982345 0.45188080117244755 0.4655593551538837
0.248617921999994 0.4538348803126526 0.46262823644357587
0.24880814100015414 0.44894968246213973 0.4655593551538837
0.2490305259998422 0.4509037616023448 0.4606741573033708
0.24924772499980463 0.44992672203224227 0.4655593551538837
0.2495813860000453 0.45188080117244755 0.46165119687347334
0.24978521599996384 0.45188080117244755 0.46946751343429405
0.24997936099998697 0.4528578407425501 0.46165119687347334
0.2501699499998722 0.45188080117244755 0.46262823644357587
0.25036016900003233 0.4528578407425501 0.45969711773326827
0.25056805399981386 0.44894968246213973 0.4557889594528579
0.2507583659999 0.4509037616023448 0.457743038593063
0.2509481029997005 0.44992672203224227 0.4587200781631655
0.2511378589997548 0.44894968246213973 0.4557889594528579
0.2513267999997879 0.4528578407425501 0.4557889594528579
0.25151555599995845 0.45188080117244755 0.4557889594528579
0.2517046829998435 0.44894968246213973 0.4538348803126526
0.25189386400006697 0.45188080117244755 0.4538348803126526
0.25208369399979347 0.45188080117244755 0.4557889594528579
0.2522735429997738 0.4509037616023448 0.4528578407425501
0.25246344700008194 0.44992672203224227 0.44894968246213973
0.25265396199984025 0.45188080117244755 0.45188080117244755
0.25284399600013785 0.45188080117244755 0.4538348803126526
0.25303365899981145 0.4528578407425501 0.44894968246213973
0.2532231929999398 0.4528578407425501 0.4479726428920372
0.2534124859998883 0.4528578407425501 0.44699560332193444
0.2536018719997628 0.4509037616023448 0.44894968246213973
0.25379090499973245 0.4509037616023448 0.4479726428920372
0.2539802349997444 0.4528578407425501 0.44406448461162684
0.25416954699994676 0.4509037616023448 0.44699560332193444
0.25435948799986363 0.4528578407425501 0.4450415241817294
0.2545586880000883 0.45188080117244755 0.4479726428920372
0.2547481289998359 0.4479726428920372 0.44211040547142155
0.25493771899982676 0.45188080117244755 0.44406448461162684
0.25512797500005036 0.4528578407425501 0.44406448461162684
0.2553168419999565 0.4528578407425501 0.4450415241817294
0.2555065609999474 0.45188080117244755 0.44211040547142155
0.2556950759999381 0.4528578407425501 0.441133365901319
0.25588461000006646 0.44894968246213973 0.4430874450415241
0.25607319899972936 0.44992672203224227 0.4401563263312165
0.2562627510001221 0.45188080117244755 0.44211040547142155
0.25645121099978496 0.4479726428920372 0.4460185637518319
0.25664033700013533 0.4538348803126526 0.441133365901319
0.2568294079997031 0.4538348803126526 0.4430874450415241
0.2570183120001275 0.45188080117244755 0.44211040547142155
0.25720773500006544 0.4538348803126526 0.441133365901319
0.2573970650000774 0.457743038593063 0.4430874450415241
0.2575856359999307 0.4509037616023448 0.441133365901319
0.25777463199983686 0.4528578407425501 0.4401563263312165
0.2579635550000603 0.4528578407425501 0.441133365901319
0.25815275500008283 0.4509037616023448 0.441133365901319
0.25834238200013715 0.4528578407425501 0.44211040547142155
0.25853284100003293 0.44992672203224227 0.44406448461162684
0.2587220420000449 0.4538348803126526 0.4430874450415241
0.2589105940000991 0.4528578407425501 0.4450415241817294
0.2590994050001427 0.4509037616023448 0.4450415241817294
0.25928869800009124 0.4509037616023448 0.44406448461162684
0.2594771949998176 0.4538348803126526 0.4450415241817294
0.25966561799987176 0.44894968246213973 0.4460185637518319
0.2598545959999683 0.45188080117244755 0.44699560332193444
0.2600434440000754 0.4538348803126526 0.44992672203224227
0.2602327189997595 0.45188080117244755 0.44699560332193444
0.26042202999997244 0.45481191988275516 0.4460185637518319
0.2606110639999315 0.4538348803126526 0.4479726428920372
0.2608005239999329 0.4538348803126526 0.44699560332193444
0.26098903899992365 0.45481191988275516 0.44699560332193444
0.2611779429998933 0.4509037616023448 0.45188080117244755
0.26136705099997926 0.4557889594528579 0.44894968246213973
0.2615559179998854 0.4557889594528579 0.44992672203224227
0.26174437800000305 0.4538348803126526 0.44894968246213973
0.2619330779998563 0.4538348803126526 0.4509037616023448
0.2621221119998154 0.4557889594528579 0.45188080117244755
0.26231399700009206 0.4528578407425501 0.4538348803126526
0.26250591999996686 0.45481191988275516 0.45188080117244755
0.26269547199990484 0.457743038593063 0.45481191988275516
0.26288533900014954 0.4538348803126526 0.4509037616023448
0.2630744660000346 0.4528578407425501 0.4538348803126526
0.26326366600005713 0.4528578407425501 0.45676599902296044
0.26345279199995275 0.4509037616023448 0.4557889594528579
0.2636419739997109 0.4509037616023448 0.4538348803126526
0.2638306190001458 0.4528578407425501 0.4538348803126526
0.26401994899970305 0.45969711773326827 0.45481191988275516
0.2642091679999794 0.44992672203224227 0.457743038593063
0.2643979979998221 0.45188080117244755 0.4587200781631655
0.2645869389998552 0.4538348803126526 0.4587200781631655
0.2647759359997508 0.4528578407425501 0.4606741573033708
0.2649698029999854 0.44894968246213973 0.45969711773326827
0.2651619479997862 0.45188080117244755 0.4655593551538837
0.265351647999978 0.44894968246213973 0.45969711773326827
0.2655406819999371 0.44992672203224227 0.46165119687347334
0.26573008600007597 0.4538348803126526 0.46262823644357587
0.26591861999986577 0.45188080117244755 0.4587200781631655
0.26610756099989885 0.4509037616023448 0.45969711773326827
0.26629657600005885 0.45481191988275516 0.4606741573033708
0.2664969990000827 0.45188080117244755 0.4636052760136786
0.2666869209997458 0.4528578407425501 0.4606741573033708
0.2668758989998423 0.4538348803126526 0.46165119687347334
0.26706496999986484 0.4606741573033708 0.4606741573033708
0.2672543929998028 0.4528578407425501 0.4587200781631655
0.26744337099989934 0.4528578407425501 0.4606741573033708
0.2676314049999746 0.44699560332193444 0.45969711773326827
0.2678207159997328 0.44894968246213973 0.4636052760136786
0.2680098609998822 0.44894968246213973 0.4655593551538837
0.2681988760000422 0.4538348803126526 0.45969711773326827
0.2683914469998854 0.4509037616023448 0.46458231558378116
0.26858118400014064 0.4587200781631655 0.4636052760136786
0.26877086600006805 0.4528578407425501 0.46262823644357587
0.2689603439998791 0.44992672203224227 0.4636052760136786
0.2691495449998911 0.4509037616023448 0.46165119687347334
0.2693386900000405 0.4509037616023448 0.4636052760136786
0.26952750100008416 0.44894968246213973 0.4606741573033708
0.26971647899972595 0.4538348803126526 0.45969711773326827
0.2699056799997379 0.44894968246213973 0.4606741573033708
0.27009465799983445 0.44992672203224227 0.46262823644357587
0.2702832469999521 0.45188080117244755 0.4587200781631655
0.27048237300004985 0.4538348803126526 0.457743038593063
0.27067185199985033 0.45188080117244755 0.45969711773326827
0.2708616259997143 0.45188080117244755 0.457743038593063
0.2710509749999801 0.45188080117244755 0.45969711773326827
0.27123948999997083 0.45188080117244755 0.457743038593063
0.2714282829997501 0.45188080117244755 0.4538348803126526
0.2716175199998361 0.4538348803126526 0.4509037616023448
0.27180616499981625 0.4509037616023448 0.4509037616023448
0.2719962169999235 0.44992672203224227 0.4509037616023448
0.27218556599973454 0.45188080117244755 0.4509037616023448
0.2723741549998522 0.4509037616023448 0.4509037616023448
0.27256318899981125 0.4509037616023448 0.45188080117244755
0.2727527229999396 0.4528578407425501 0.44894968246213973
0.2729417559999092 0.4509037616023448 0.4538348803126526
0.2731309569999212 0.4509037616023448 0.44894968246213973
0.27332006500000716 0.4528578407425501 0.44894968246213973
0.27350922799996624 0.4509037616023448 0.45188080117244755
0.2736979470000733 0.4528578407425501 0.44992672203224227
0.2738874990000113 0.4528578407425501 0.4479726428920372
0.2740760510000655 0.44894968246213973 0.44406448461162684
0.2742656780001198 0.45676599902296044 0.44406448461162684
0.2744667480001226 0.4528578407425501 0.4460185637518319
0.27465687499989144 0.4528578407425501 0.4460185637518319
0.27484609399971305 0.4509037616023448 0.44406448461162684
0.2750354419999894 0.4509037616023448 0.4479726428920372
0.275224216999959 0.45481191988275516 0.44406448461162684
0.27541317599980175 0.4538348803126526 0.4460185637518319
0.27560145100005684 0.4538348803126526 0.4430874450415241
0.2757905590001428 0.4538348803126526 0.4430874450415241
0.275979869999901 0.4538348803126526 0.4460185637518319
0.27616903299986006 0.4538348803126526 0.4430874450415241
0.27635869699997784 0.4528578407425501 0.441133365901319
0.27654823100010617 0.4528578407425501 0.441133365901319
0.276737115999822 0.45481191988275516 0.44406448461162684
0.2769260939999185 0.4538348803126526 0.44211040547142155
0.2771147389998987 0.4557889594528579 0.4460185637518319
0.27730379100012215 0.4538348803126526 0.44406448461162684
0.27749317699999665 0.4538348803126526 0.4430874450415241
0.27768241500007207 0.4557889594528579 0.44992672203224227
0.2778714669998408 0.4538348803126526 0.44406448461162684
0.27806092599985277 0.4538348803126526 0.441133365901319
0.27824981200001275 0.45481191988275516 0.44406448461162684
0.27843856799972855 0.45188080117244755 0.4430874450415241
0.2786281759999838 0.4509037616023448 0.4430874450415241
0.27881787599972085 0.4528578407425501 0.4430874450415241
0.2790086509999128 0.4509037616023448 0.44406448461162684
0.2791980729998613 0.4538348803126526 0.4450415241817294
0.2793874770000002 0.45188080117244755 0.44406448461162684
0.2795765850000862 0.45481191988275516 0.4450415241817294
0.27976523000006637 0.4538348803126526 0.4450415241817294
0.27995437499976106 0.4538348803126526 0.4430874450415241
0.2801430380000056 0.45481191988275516 0.44699560332193444
0.2803323499997532 0.45188080117244755 0.44699560332193444
0.28052173500009303 0.4538348803126526 0.4460185637518319
0.28071112099996753 0.4538348803126526 0.45481191988275516
0.2808996180001486 0.4528578407425501 0.44699560332193444
0.28108872499979043 0.4528578407425501 0.44894968246213973
0.2812778520001302 0.4528578407425501 0.44894968246213973
0.2814669409999624 0.4528578407425501 0.45676599902296044
0.28165756699991107 0.4528578407425501 0.45188080117244755
0.2818462489999547 0.4538348803126526 0.4538348803126526
0.28203520899978685 0.4528578407425501 0.4528578407425501
0.2822245950001161 0.4528578407425501 0.4538348803126526
0.28241390599987426 0.45481191988275516 0.4538348803126526
0.28260290299976987 0.45481191988275516 0.4538348803126526
0.28279139899996153 0.4557889594528579 0.45188080117244755
0.2829806549998466 0.4557889594528579 0.4587200781631655
0.2831697080000595 0.45969711773326827 0.45481191988275516
0.2833581489999233 0.45188080117244755 0.45481191988275516
0.28354725700000927 0.4528578407425501 0.45676599902296044
0.2837360680000529 0.45481191988275516 0.45481191988275516
0.2839251569998851 0.4538348803126526 0.4557889594528579
0.28411435799989704 0.4538348803126526 0.457743038593063
0.2843035579999196 0.4538348803126526 0.457743038593063
0.2844931659997201 0.4538348803126526 0.46262823644357587
0.2846830329999648 0.4538348803126526 0.45969711773326827
0.2848724370001037 0.4528578407425501 0.46165119687347334
0.28506113799994637 0.4538348803126526 0.46262823644357587
0.2852504309998949 0.4528578407425501 0.45969711773326827
0.28543918700006543 0.4528578407425501 0.46458231558378116
0.28562831299996105 0.4509037616023448 0.4606741573033708
0.2858169950000047 0.45188080117244755 0.4636052760136786
0.28600563999998485 0.44992672203224227 0.46165119687347334
0.2861950619999334 0.44992672203224227 0.46262823644357587
0.28639241099972423 0.44894968246213973 0.46262823644357587
0.28658296300000075 0.45188080117244755 0.46262823644357587
0.28677240399974835 0.45188080117244755 0.4606741573033708
0.2869624009999825 0.45188080117244755 0.4636052760136786
0.287152137999783 0.4538348803126526 0.46165119687347334
0.28734120899980553 0.4528578407425501 0.4655593551538837
0.28753018699990207 0.45188080117244755 0.46458231558378116
0.2877190359999986 0.4528578407425501 0.46458231558378116
0.2879078099999788 0.4509037616023448 0.46946751343429405
0.28809684399993785 0.44894968246213973 0.46165119687347334
0.28828522899993914 0.44894968246213973 0.46458231558378116
0.2884742080000251 0.44992672203224227 0.4684904738641915
0.2886637599999631 0.4538348803126526 0.4636052760136786
0.28885209000009127 0.45188080117244755 0.46165119687347334
0.2890405869998176 0.44992672203224227 0.46165119687347334
0.2892291570001362 0.44894968246213973 0.46165119687347334
0.2894178579999789 0.44894968246213973 0.46165119687347334
0.28960674300014944 0.45188080117244755 0.46165119687347334
0.28979527699993923 0.4479726428920372 0.4636052760136786
0.2899842179999723 0.4509037616023448 0.4606741573033708
0.2901734369997939 0.44894968246213973 0.457743038593063
0.2903620080001019 0.44992672203224227 0.457743038593063
0.29056018999972366 0.45188080117244755 0.45969711773326827
0.290749409 0.4528578407425501 0.45969711773326827
0.29093853499989564 0.44992672203224227 0.45676599902296044
0.2911272910000662 0.44992672203224227 0.4587200781631655
0.2913164729998243 0.4509037616023448 0.45676599902296044
0.29150600699995266 0.44992672203224227 0.45676599902296044
0.2916947439998694 0.44894968246213973 0.457743038593063
0.291883647999839 0.44699560332193444 0.45676599902296044
0.29207334900002024 0.44992672203224227 0.4528578407425501
0.2922634379997362 0.4479726428920372 0.45481191988275516
0.29245310099986455 0.4479726428920372 0.45188080117244755
0.2926438939998661 0.44699560332193444 0.4528578407425501
0.292833298000005 0.4509037616023448 0.4528578407425501
0.29302231400015444 0.4509037616023448 0.45188080117244755
0.29321144000005006 0.44894968246213973 0.45188080117244755
0.2934007509998082 0.44894968246213973 0.45188080117244755
0.2935904890000529 0.44699560332193444 0.45188080117244755
0.293779430000086 0.45188080117244755 0.45188080117244755
0.29396846400004506 0.45188080117244755 0.4479726428920372
0.29415734899976087 0.45188080117244755 0.44992672203224227
0.2943462529997305 0.4538348803126526 0.44699560332193444
0.29453884299982747 0.4538348803126526 0.44699560332193444
0.29472926500011454 0.4509037616023448 0.44211040547142155
0.29491870599986214 0.44699560332193444 0.4479726428920372
0.2951083140001174 0.4528578407425501 0.4460185637518319
0.29529810699978043 0.4538348803126526 0.4430874450415241
0.29548769599978186 0.4538348803126526 0.4401563263312165
0.2956767860000582 0.45188080117244755 0.44406448461162684
0.29586604199994326 0.45188080117244755 0.44211040547142155
0.29605583500006105 0.45188080117244755 0.4401563263312165
0.2962450909999461 0.45188080117244755 0.44211040547142155
0.2964345499999581 0.4538348803126526 0.43917928676111373
0.29662323200000174 0.4528578407425501 0.4460185637518319
0.29681228399977044 0.45188080117244755 0.43917928676111373
0.2970011520001208 0.44992672203224227 0.4401563263312165
0.29719085199985784 0.45188080117244755 0.44211040547142155
0.29738008899994384 0.4538348803126526 0.4382022471910112
0.29756895599985 0.44992672203224227 0.4382022471910112
0.29775741599996763 0.45188080117244755 0.43917928676111373
0.2979460050000853 0.4509037616023448 0.4401563263312165
0.2981352980000338 0.45188080117244755 0.43917928676111373
0.29832418399973903 0.4538348803126526 0.4401563263312165
0.29851373600013176 0.45676599902296044 0.43917928676111373
0.29870306600014374 0.44992672203224227 0.4430874450415241
0.29889165599979606 0.45481191988275516 0.43917928676111373
0.29908050399990316 0.4538348803126526 0.4430874450415241
0.2992693709998093 0.4528578407425501 0.44406448461162684
0.2994582010001068 0.4538348803126526 0.4460185637518319
0.29964745699999185 0.4538348803126526 0.4460185637518319
0.2998357500000566 0.4528578407425501 0.4479726428920372
0.3000244689997089 0.4557889594528579 0.44211040547142155
0.30021413199983726 0.4538348803126526 0.4450415241817294
0.3004036659999656 0.45676599902296044 0.4460185637518319
0.3005939039999248 0.4557889594528579 0.4430874450415241
0.3007831410000108 0.4528578407425501 0.44699560332193444
0.3009723790000862 0.4557889594528579 0.4460185637518319
0.30116157900010876 0.45481191988275516 0.44894968246213973
0.301350371999888 0.4557889594528579 0.44699560332193444
0.3015385349999633 0.4538348803126526 0.44699560332193444
0.30172788399977435 0.4538348803126526 0.44894968246213973
0.3019169179997334 0.4528578407425501 0.44894968246213973
0.3021060440000838 0.45481191988275516 0.4528578407425501
0.3022946329997467 0.4557889594528579 0.45188080117244755
0.3024926849998337 0.45188080117244755 0.4528578407425501
0.3026822560000255 0.4528578407425501 0.45481191988275516
0.3028716969997731 0.4528578407425501 0.4509037616023448
0.3030611199997111 0.4509037616023448 0.45481191988275516
0.3032508199999029 0.4538348803126526 0.45481191988275516
0.30344029799971395 0.4528578407425501 0.45676599902296044
0.3036291469998105 0.4509037616023448 0.45676599902296044
0.30381869899974845 0.4528578407425501 0.45676599902296044
0.30400776999977097 0.4479726428920372 0.457743038593063
0.3041974699999628 0.4509037616023448 0.4606741573033708
0.3043868370000382 0.4509037616023448 0.45969711773326827
0.3045757599998069 0.45188080117244755 0.4587200781631655
0.30476459000010436 0.45481191988275516 0.45481191988275516
0.3049533829998836 0.4509037616023448 0.45969711773326827
0.3051422690000436 0.45188080117244755 0.4587200781631655
0.3053303399997276 0.44992672203224227 0.4587200781631655
0.30552000299985593 0.4509037616023448 0.45676599902296044
0.305709258999741 0.44699560332193444 0.4636052760136786
0.30589860700001736 0.4509037616023448 0.45676599902296044
0.3060869930000081 0.4479726428920372 0.4587200781631655
0.3062758969999777 0.45188080117244755 0.45969711773326827
0.3064750969997476 0.44992672203224227 0.45969711773326827
0.3066648349999923 0.44992672203224227 0.4655593551538837
0.30685425699994084 0.44992672203224227 0.457743038593063
0.30704382800013263 0.44699560332193444 0.45969711773326827
0.30723310299981677 0.4509037616023448 0.4606741573033708
0.3074222469999768 0.44894968246213973 0.4606741573033708
0.3076110219999464 0.44992672203224227 0.4606741573033708
0.30779905600002166 0.44699560332193444 0.4655593551538837
0.3079881819999173 0.44894968246213973 0.4636052760136786
0.30817767899998216 0.44894968246213973 0.467513434294089
0.30836669400014216 0.44992672203224227 0.4636052760136786
0.3085567829998581 0.44894968246213973 0.45969711773326827
0.30874570600008155 0.4479726428920372 0.4636052760136786
0.3089350539999032 0.4538348803126526 0.46262823644357587
0.30912423600011607 0.44992672203224227 0.46165119687347334
0.3093140850000964 0.4460185637518319 0.46262823644357587
0.3095024330000342 0.4509037616023448 0.46262823644357587
0.3096920230000251 0.44699560332193444 0.4636052760136786
0.3098814449999736 0.4509037616023448 0.46458231558378116
0.31007020100014415 0.45676599902296044 0.46165119687347334
0.3102594389997648 0.44699560332193444 0.467513434294089
0.31044926899994607 0.45188080117244755 0.46262823644357587
0.31063911699993696 0.45188080117244755 0.46165119687347334
0.3108293360000971 0.44699560332193444 0.46262823644357587
0.3110183879998658 0.4479726428920372 0.4587200781631655
0.3112078479998672 0.4509037616023448 0.4587200781631655
0.3113968630000272 0.4509037616023448 0.4655593551538837
0.3115860079997219 0.45188080117244755 0.457743038593063
0.3117752829998608 0.44699560332193444 0.457743038593063
0.31196809399989434 0.44894968246213973 0.45676599902296044
0.31215727600010723 0.44894968246213973 0.457743038593063
0.3123463649999394 0.4509037616023448 0.44992672203224227
0.31253589900006773 0.44894968246213973 0.4557889594528579
0.3127249330000268 0.45188080117244755 0.4509037616023448
0.3129140779997215 0.44992672203224227 0.4509037616023448
0.3131030929998815 0.44992672203224227 0.4528578407425501
0.31329303399979835 0.45188080117244755 0.44992672203224227
0.3134829569999056 0.44894968246213973 0.4538348803126526
0.31367217499973776 0.45188080117244755 0.44894968246213973
0.3138626720001412 0.4509037616023448 0.44406448461162684
0.3140513909997935 0.45188080117244755 0.4479726428920372
0.3142405170001439 0.4528578407425501 0.4460185637518319
0.3144306439999127 0.4509037616023448 0.4450415241817294
0.31461995500012563 0.44894968246213973 0.44406448461162684
0.3148099889999685 0.4528578407425501 0.4430874450415241
0.31500015199981135 0.4538348803126526 0.4430874450415241
0.3151913709998553 0.45188080117244755 0.441133365901319
0.31537992299990947 0.4528578407425501 0.44406448461162684
0.315568457000154 0.4557889594528579 0.4430874450415241
0.315756620999764 0.4538348803126526 0.4430874450415241
0.31594595099977596 0.4528578407425501 0.4401563263312165
0.31613542900004177 0.4538348803126526 0.44211040547142155
0.31632488800005376 0.4538348803126526 0.44211040547142155
0.3165148479997697 0.4557889594528579 0.44406448461162684
0.3167043999997077 0.4538348803126526 0.44211040547142155
0.31689350799979366 0.45188080117244755 0.4382022471910112
0.3170827459998691 0.45481191988275516 0.4430874450415241
0.3172715939999762 0.45969711773326827 0.4401563263312165
0.3174604979999458 0.4509037616023448 0.4382022471910112
0.31764984699975685 0.45481191988275516 0.43722520762090866
0.31783963999987463 0.4528578407425501 0.43624816805080613
0.3180294700000559 0.45188080117244755 0.43917928676111373
0.3182182259997717 0.45481191988275516 0.4401563263312165
0.318407981999826 0.4509037616023448 0.44211040547142155
0.31859649699981674 0.45481191988275516 0.4401563263312165
0.3187861599999451 0.4509037616023448 0.4479726428920372
0.3189753789997667 0.4538348803126526 0.44406448461162684
0.3191650799999479 0.45481191988275516 0.44211040547142155
0.31935389099999156 0.4509037616023448 0.44406448461162684
0.31954322100000354 0.4538348803126526 0.44211040547142155
0.319732366000153 0.4538348803126526 0.44406448461162684
0.3199224179998055 0.45481191988275516 0.441133365901319
0.32011213699979635 0.4528578407425501 0.4401563263312165
0.32030142999974487 0.45481191988275516 0.44406448461162684
0.3204898899998625 0.45481191988275516 0.44211040547142155
0.32067931199981103 0.4557889594528579 0.44406448461162684
0.32086769799980175 0.4557889594528579 0.4430874450415241
0.3210564539999723 0.4538348803126526 0.4460185637518319
0.3212453400001323 0.4557889594528579 0.4430874450415241
0.321434391999901 0.4528578407425501 0.4479726428920372
0.3216229999998177 0.4557889594528579 0.4479726428920372
0.32181175599998824 0.4538348803126526 0.4460185637518319
0.3220008630000848 0.4528578407425501 0.44699560332193444
0.32218987899977947 0.4509037616023448 0.44894968246213973
0.32238965299984557 0.4528578407425501 0.44699560332193444
0.3225800199998048 0.45188080117244755 0.44894968246213973
0.3227689059999648 0.4509037616023448 0.4509037616023448
0.3229581249997864 0.4509037616023448 0.45188080117244755
0.3231466399997771 0.45188080117244755 0.44992672203224227
0.3233354139997573 0.44992672203224227 0.45481191988275516
0.32352455899990673 0.4538348803126526 0.4528578407425501
0.3237133709999398 0.44992672203224227 0.4538348803126526
0.3239019779998671 0.45676599902296044 0.45969711773326827
0.32409180800004833 0.45188080117244755 0.4557889594528579
0.324282619999849 0.4509037616023448 0.45969711773326827
0.32447294999974474 0.4509037616023448 0.45969711773326827
0.3246618909997778 0.4509037616023448 0.45969711773326827
0.3248508880001282 0.44992672203224227 0.46262823644357587
0.3250397920000978 0.44992672203224227 0.4587200781631655
0.32522869600006743 0.44992672203224227 0.46165119687347334
0.32541828500006886 0.4509037616023448 0.46165119687347334
0.3256069670001125 0.44699560332193444 0.4606741573033708
0.32579551899971193 0.45188080117244755 0.4587200781631655
0.325984015999893 0.4460185637518319 0.46165119687347334
0.32617225400008465 0.4509037616023448 0.457743038593063
0.3263609910000014 0.4509037616023448 0.45676599902296044
0.3265609689997291 0.4509037616023448 0.45969711773326827
0.3267522989999634 0.44894968246213973 0.46262823644357587
0.3269420739998168 0.44992672203224227 0.46262823644357587
0.32713101499984987 0.4479726428920372 0.46262823644357587
0.32732039999973495 0.4509037616023448 0.46262823644357587
0.3275097299997469 0.44699560332193444 0.4636052760136786
0.3276990790000127 0.45188080117244755 0.4655593551538837
0.3278877980001198 0.45188080117244755 0.467513434294089
0.32807659099989905 0.45188080117244755 0.4665363947239862
0.3282655499997418 0.45188080117244755 0.46262823644357587
0.3284541029997854 0.4509037616023448 0.467513434294089
0.3286422659998607 0.4509037616023448 0.46458231558378116
0.3288315589998092 0.44894968246213973 0.467513434294089
0.32902031499997975 0.44992672203224227 0.4665363947239862
0.3292085899997801 0.4509037616023448 0.4606741573033708
0.32940203099997234 0.44894968246213973 0.46165119687347334
0.3295912309999949 0.45188080117244755 0.4636052760136786
0.32978017200002796 0.4538348803126526 0.46165119687347334
0.32996894699999757 0.44992672203224227 0.46165119687347334
0.3301569800000834 0.44699560332193444 0.46165119687347334
0.33034525499988376 0.44894968246213973 0.4606741573033708
0.330535399999917 0.44699560332193444 0.45676599902296044
0.3307245259998126 0.44699560332193444 0.45969711773326827
0.3309133929997188 0.44699560332193444 0.4557889594528579
0.3311024820000057 0.4509037616023448 0.457743038593063
0.33129099799998585 0.44894968246213973 0.4557889594528579
0.3314857909999773 0.4479726428920372 0.4557889594528579
0.331687342999885 0.44699560332193444 0.4538348803126526
0.33189459799996257 0.4460185637518319 0.45481191988275516
0.3320872799999961 0.45188080117244755 0.4528578407425501
0.3322772950000399 0.44992672203224227 0.4528578407425501
0.33246731000008367 0.4479726428920372 0.4528578407425501
0.33265612200011674 0.44992672203224227 0.4509037616023448
0.33284541500006526 0.4479726428920372 0.4528578407425501
0.33303452300015124 0.44992672203224227 0.4509037616023448
0.3332238339999094 0.44699560332193444 0.4528578407425501
0.333412923999731 0.4528578407425501 0.45188080117244755
0.33360195699970063 0.44894968246213973 0.44992672203224227
0.33379102799972316 0.44894968246213973 0.44992672203224227
0.3339794690000417 0.44992672203224227 0.4479726428920372
0.33416844700013826 0.4509037616023448 0.44894968246213973
0.33435692600005495 0.45188080117244755 0.4479726428920372
0.3345605889999206 0.4509037616023448 0.4479726428920372
0.3347499000001335 0.4538348803126526 0.4460185637518319
0.3349390079997647 0.4538348803126526 0.44211040547142155
0.33512824599984015 0.44894968246213973 0.44406448461162684
0.3353189829999792 0.4538348803126526 0.4430874450415241
0.33550857199998063 0.45481191988275516 0.44406448461162684
0.3356972910000877 0.4509037616023448 0.44406448461162684
0.3358866579997084 0.45676599902296044 0.4460185637518319
0.3360758959997838 0.4538348803126526 0.4450415241817294
0.3362642809997851 0.4557889594528579 0.4430874450415241
0.33645357399973363 0.4509037616023448 0.4430874450415241
0.3366416819999358 0.45481191988275516 0.44406448461162684
0.33683051199977854 0.4538348803126526 0.44406448461162684
0.33701912000015 0.45481191988275516 0.43917928676111373
0.33720737600015127 0.4528578407425501 0.44406448461162684
0.33739676100003635 0.4538348803126526 0.44211040547142155
0.337585776999731 0.45188080117244755 0.44211040547142155
0.33777486600001794 0.4538348803126526 0.44406448461162684
0.337964565999755 0.4538348803126526 0.44211040547142155
0.3381536369997775 0.45481191988275516 0.4460185637518319
0.33834200399996917 0.4528578407425501 0.43917928676111373
0.33853103799992823 0.4538348803126526 0.441133365901319
0.33872016399982385 0.4528578407425501 0.441133365901319
0.33890825399976165 0.4528578407425501 0.4430874450415241
0.339097694999964 0.4509037616023448 0.4430874450415241
0.3392863579997538 0.4509037616023448 0.44406448461162684
0.33947526199972344 0.45188080117244755 0.4430874450415241
0.33966429600013726 0.44992672203224227 0.4460185637518319
0.3398530889999165 0.4528578407425501 0.4460185637518319
0.34004215999993903 0.4509037616023448 0.4430874450415241
0.3402312489997712 0.4528578407425501 0.4450415241817294
0.3404208940000899 0.45481191988275516 0.44406448461162684
0.34060974199974225 0.4538348803126526 0.4479726428920372
0.34079799799974353 0.4557889594528579 0.44992672203224227
0.34098714299989297 0.4557889594528579 0.4509037616023448
0.34117647299990495 0.4538348803126526 0.44699560332193444
0.34136513700013893 0.45188080117244755 0.4509037616023448
0.34155441099983364 0.4528578407425501 0.4509037616023448
0.3417433889999302 0.4509037616023448 0.4538348803126526
0.34193264499981524 0.4538348803126526 0.45188080117244755
0.3421215680000387 0.45188080117244755 0.4528578407425501
0.3423106199998074 0.46165119687347334 0.4538348803126526
0.3425009869997666 0.4557889594528579 0.4557889594528579
0.34269059500002186 0.4509037616023448 0.4538348803126526
0.3428793879998011 0.4538348803126526 0.4557889594528579
0.34306808800010913 0.44992672203224227 0.4557889594528579
0.34325747399998363 0.45188080117244755 0.4538348803126526
0.34344684100005907 0.4528578407425501 0.4538348803126526
0.34363622699993357 0.45969711773326827 0.457743038593063
0.34382568599994556 0.4538348803126526 0.45676599902296044
0.3440153129999999 0.44992672203224227 0.4587200781631655
0.34420410599977913 0.45676599902296044 0.4606741573033708
0.3443924909997804 0.45188080117244755 0.45969711773326827
0.3445807469997817 0.4528578407425501 0.46458231558378116
0.3447692439999628 0.44894968246213973 0.4636052760136786
0.3449580930000593 0.4538348803126526 0.4587200781631655
0.34514621900007114 0.45188080117244755 0.46262823644357587
0.3453353820000302 0.4538348803126526 0.4606741573033708
0.34552434199986237 0.44894968246213973 0.4636052760136786
0.3457128760001069 0.45481191988275516 0.4587200781631655
0.3459017609998227 0.44992672203224227 0.46262823644357587
0.3460909619998347 0.4557889594528579 0.46165119687347334
0.34627982899974086 0.44992672203224227 0.46165119687347334
0.34648073300013493 0.45188080117244755 0.4587200781631655
0.3466698029997133 0.4509037616023448 0.4606741573033708
0.3468582629998309 0.4509037616023448 0.46165119687347334
0.3470471299997371 0.45188080117244755 0.46165119687347334
0.34723555299979125 0.4509037616023448 0.45969711773326827
0.34742471599975033 0.4509037616023448 0.4636052760136786
0.3476129910000054 0.4528578407425501 0.46262823644357587
0.34780141300007017 0.4509037616023448 0.4665363947239862
0.3479900029997225 0.44992672203224227 0.46262823644357587
0.3481791660001363 0.4509037616023448 0.46262823644357587
0.3483687180000743 0.44894968246213973 0.46262823644357587
0.34855789999983244 0.44894968246213973 0.4636052760136786
0.34874617500008753 0.4509037616023448 0.4636052760136786
0.34893452300002537 0.44992672203224227 0.4606741573033708
0.34912261199997374 0.4479726428920372 0.4606741573033708
0.3493119419999857 0.44894968246213973 0.457743038593063
0.3495016429997122 0.44894968246213973 0.45969711773326827
0.34969100999978764 0.44894968246213973 0.4655593551538837
0.3498793589997149 0.44699560332193444 0.4587200781631655
0.35006846599981145 0.4509037616023448 0.45676599902296044
0.3502594259998659 0.44699560332193444 0.45676599902296044
0.3504498299998886 0.4460185637518319 0.457743038593063
0.35064025299971036 0.4479726428920372 0.4587200781631655
0.35082989700003964 0.44992672203224227 0.45481191988275516
0.35101828300003035 0.4509037616023448 0.4606741573033708
0.35120774300003177 0.4509037616023448 0.45676599902296044
0.35139659100013887 0.44894968246213973 0.4557889594528579
0.35158629199986535 0.4538348803126526 0.4557889594528579
0.3517753440000888 0.44894968246213973 0.45188080117244755
0.351964210999995 0.44894968246213973 0.4538348803126526
0.3521530409998377 0.4538348803126526 0.44992672203224227
0.3523417410001457 0.44699560332193444 0.45188080117244755
0.3525302200000624 0.4528578407425501 0.44894968246213973
0.35271962399974655 0.44894968246213973 0.44992672203224227
0.35290773199994874 0.45188080117244755 0.44894968246213973
0.3530964510000558 0.457743038593063 0.4509037616023448
0.35328548400002546 0.4538348803126526 0.44894968246213973
0.3534749069999634 0.45188080117244755 0.44894968246213973
0.35366412599978503 0.4538348803126526 0.44699560332193444
0.35385327099993447 0.4509037616023448 0.4479726428920372
0.35404191599991464 0.4557889594528579 0.44992672203224227
0.35422998600006395 0.45188080117244755 0.4460185637518319
0.35441968699979043 0.4557889594528579 0.4450415241817294
0.35460905399986586 0.4538348803126526 0.4430874450415241
0.35479816199995184 0.45969711773326827 0.44406448461162684
0.35498604699978387 0.4538348803126526 0.44406448461162684
0.3551745619997746 0.45676599902296044 0.43917928676111373
0.35536326300007204 0.45188080117244755 0.4401563263312165
0.35555162999980894 0.4528578407425501 0.441133365901319
0.355740570999842 0.4528578407425501 0.441133365901319
0.35592949400006546 0.4557889594528579 0.43917928676111373
0.3561176019998129 0.4587200781631655 0.441133365901319
0.35630643200011036 0.4528578407425501 0.4460185637518319
0.35649502099977326 0.45188080117244755 0.4450415241817294
0.35668349899970053 0.4538348803126526 0.43917928676111373
0.3568727739998394 0.44992672203224227 0.441133365901319
0.35706114100003106 0.4528578407425501 0.441133365901319
0.3572500450000007 0.4509037616023448 0.4430874450415241
0.35743898600003376 0.4557889594528579 0.4430874450415241
0.3576274460001514 0.4528578407425501 0.4430874450415241
0.35781570200015267 0.45481191988275516 0.44211040547142155
0.358004549999805 0.4538348803126526 0.44406448461162684
0.3581928799999332 0.4538348803126526 0.43917928676111373
0.358390302999851 0.4538348803126526 0.4460185637518319
0.3585803920000217 0.4509037616023448 0.44699560332193444
0.3587692769997375 0.4538348803126526 0.4450415241817294
0.3589607190001516 0.4509037616023448 0.44406448461162684
0.3591506970001319 0.4509037616023448 0.4460185637518319
0.3593396189999112 0.4509037616023448 0.44406448461162684
0.35952865299987025 0.45188080117244755 0.44699560332193444
0.3597171309997975 0.45188080117244755 0.4430874450415241
0.35990605400002096 0.44894968246213973 0.4460185637518319
0.3600952540000435 0.4528578407425501 0.44406448461162684
0.36028404699982275 0.45188080117244755 0.4460185637518319
0.3604726919998029 0.4538348803126526 0.44699560332193444
0.360661503999836 0.4509037616023448 0.4479726428920372
0.36084994500015455 0.4528578407425501 0.4479726428920372
0.3610388490001242 0.4509037616023448 0.45188080117244755
0.36122749400010434 0.46262823644357587 0.4479726428920372
0.3614156200001162 0.4557889594528579 0.45188080117244755
0.361604153999906 0.45676599902296044 0.4509037616023448
0.3617927619998227 0.4538348803126526 0.45481191988275516
0.36198125800001435 0.4528578407425501 0.4528578407425501
0.3621704399997725 0.45676599902296044 0.4538348803126526
0.3623589929998161 0.4538348803126526 0.4509037616023448
0.362556062999829 0.45188080117244755 0.4528578407425501
0.3627452450000419 0.4528578407425501 0.4509037616023448
0.36293425999974716 0.4509037616023448 0.4557889594528579
0.36312320199976966 0.4587200781631655 0.4528578407425501
0.36331129099971804 0.44992672203224227 0.45481191988275516
0.36349986200002604 0.4528578407425501 0.4557889594528579
0.3636888400001226 0.4509037616023448 0.4557889594528579
0.3638780400001451 0.44894968246213973 0.4557889594528579
0.364066628999808 0.44992672203224227 0.457743038593063
0.3642561450001267 0.4538348803126526 0.457743038593063
0.3644452339999589 0.45188080117244755 0.46262823644357587
0.3646342859997276 0.45188080117244755 0.4587200781631655
0.3648230789999616 0.44992672203224227 0.45969711773326827
0.3650119280000581 0.4509037616023448 0.45969711773326827
0.36520703599990156 0.45188080117244755 0.46165119687347334
0.36539671699983955 0.45188080117244755 0.45969711773326827
0.3655857879998621 0.4509037616023448 0.4606741573033708
0.36577465499976825 0.45188080117244755 0.46165119687347334
0.3659626149997166 0.4528578407425501 0.4587200781631655
0.3661514079999506 0.4509037616023448 0.4753297508549097
0.36634084900015296 0.4528578407425501 0.46262823644357587
0.36653162399989014 0.4528578407425501 0.46262823644357587
0.3667212309997012 0.45188080117244755 0.46165119687347334
0.36691024699985064 0.4528578407425501 0.45969711773326827
0.3670991139997568 0.44894968246213973 0.4636052760136786
0.367287572999885 0.45188080117244755 0.46165119687347334
0.3674768480000239 0.45188080117244755 0.46262823644357587
0.36766588199998296 0.45188080117244755 0.4636052760136786
0.3678545079997093 0.4509037616023448 0.4636052760136786
0.36804320800001733 0.4528578407425501 0.4636052760136786
0.3682321490000504 0.45188080117244755 0.46262823644357587
0.3684210719998191 0.44992672203224227 0.4636052760136786
0.3686089389998415 0.4538348803126526 0.46165119687347334
0.3687972140000966 0.44894968246213973 0.46165119687347334
0.3689860619997489 0.45188080117244755 0.46165119687347334
0.3691743919998771 0.44894968246213973 0.46165119687347334
0.36936275900006876 0.45188080117244755 0.46165119687347334
0.3695512750000489 0.4528578407425501 0.46165119687347334
0.3697397529999762 0.44894968246213973 0.45969711773326827
0.3699280269997871 0.4557889594528579 0.4636052760136786
0.3701170609997462 0.44992672203224227 0.46165119687347334
0.3703058539999802 0.44992672203224227 0.45969711773326827
0.37049623999973846 0.44992672203224227 0.45676599902296044
0.3706845329998032 0.44894968246213973 0.45676599902296044
0.3708737510000901 0.44894968246213973 0.4538348803126526
0.37106211899981645 0.45188080117244755 0.45481191988275516
0.3712504860000081 0.4528578407425501 0.4538348803126526
0.37143890800007284 0.4509037616023448 0.4538348803126526
0.371627960999831 0.45188080117244755 0.45188080117244755
0.3718167719998746 0.45188080117244755 0.4509037616023448
0.37200573199970677 0.4538348803126526 0.4509037616023448
0.37219474699986677 0.45188080117244755 0.44699560332193444
0.37238378099982583 0.45188080117244755 0.44699560332193444
0.37257307399977435 0.44992672203224227 0.44992672203224227
0.3727624590001142 0.44992672203224227 0.44894968246213973
0.3729509740001049 0.44699560332193444 0.44894968246213973
0.37314047099971503 0.44992672203224227 0.4479726428920372
0.37332904200002304 0.4509037616023448 0.44894968246213973
0.37351777899993976 0.44699560332193444 0.4479726428920372
0.37370686899976135 0.4538348803126526 0.4479726428920372
0.37389593899979445 0.4509037616023448 0.44894968246213973
0.37408441799971115 0.4528578407425501 0.4460185637518319
0.3742737849997866 0.45481191988275516 0.44406448461162684
0.3744749849997788 0.4557889594528579 0.4460185637518319
0.3746643330000552 0.457743038593063 0.44406448461162684
0.37485368199986624 0.45481191988275516 0.44211040547142155
0.3750427899999522 0.4528578407425501 0.44699560332193444
0.37523145299974203 0.45481191988275516 0.4450415241817294
0.37542019100010293 0.4528578407425501 0.4430874450415241
0.3756091689997447 0.4538348803126526 0.44406448461162684
0.3757984429998942 0.45676599902296044 0.44211040547142155
0.3759871249999378 0.4557889594528579 0.441133365901319
0.37617625199982285 0.45188080117244755 0.44406448461162684
0.37636517400005687 0.45481191988275516 0.4450415241817294
0.3765543009999419 0.4538348803126526 0.4401563263312165
0.3767427049997423 0.44992672203224227 0.44211040547142155
0.3769316269999763 0.4528578407425501 0.43917928676111373
0.3771201800000199 0.4509037616023448 0.44406448461162684
0.3773086390001481 0.45188080117244755 0.44211040547142155
0.377497320999737 0.4538348803126526 0.441133365901319
0.37768620699989697 0.4528578407425501 0.4401563263312165
0.3778749439998137 0.4538348803126526 0.4401563263312165
0.3780635699999948 0.45188080117244755 0.43917928676111373
0.3782522520000384 0.45188080117244755 0.441133365901319
0.3784414530000504 0.4509037616023448 0.44406448461162684
0.37863009800003056 0.4509037616023448 0.44406448461162684
0.37881870499995784 0.45188080117244755 0.4430874450415241
0.379007220999938 0.4538348803126526 0.4430874450415241
0.37919586599991817 0.4509037616023448 0.44406448461162684
0.3793844550000358 0.4538348803126526 0.44406448461162684
0.3795731179998256 0.45188080117244755 0.4430874450415241
0.3797617820000596 0.4509037616023448 0.441133365901319
0.37995118599974376 0.44992672203224227 0.4430874450415241
0.38014127499991446 0.45188080117244755 0.4430874450415241
0.38033038300000044 0.4528578407425501 0.4430874450415241
0.38051928699997006 0.45481191988275516 0.4460185637518319
0.3807079690000137 0.45188080117244755 0.44406448461162684
0.3808972429997084 0.45188080117244755 0.4479726428920372
0.3810868880000271 0.4538348803126526 0.4460185637518319
0.38127584799985925 0.44992672203224227 0.44894968246213973
0.38146477000009327 0.45188080117244755 0.44699560332193444
0.38165410000010525 0.44894968246213973 0.45188080117244755
0.3818429859998105 0.4528578407425501 0.44992672203224227
0.38203203800003394 0.44894968246213973 0.4538348803126526
0.3822212199997921 0.4538348803126526 0.4509037616023448
0.3824100689998886 0.45188080117244755 0.4557889594528579
0.38259932499977367 0.45188080117244755 0.4509037616023448
0.3827884319998702 0.45188080117244755 0.45481191988275516
0.38297759599981873 0.45481191988275516 0.4509037616023448
0.3831668150000951 0.4509037616023448 0.4538348803126526
0.38335560799987434 0.4509037616023448 0.44894968246213973
0.3835452529997383 0.44992672203224227 0.45481191988275516
0.3837343420000252 0.4528578407425501 0.45481191988275516
0.3839227650000794 0.44894968246213973 0.4557889594528579
0.38411229799976354 0.4538348803126526 0.4557889594528579
0.38430299899982856 0.45188080117244755 0.45481191988275516
0.3844921989998511 0.44992672203224227 0.45676599902296044
0.384681288000138 0.4509037616023448 0.45969711773326827
0.38486987799979033 0.44894968246213973 0.46165119687347334
0.38505911499987633 0.44894968246213973 0.45969711773326827
0.3852485379998143 0.44699560332193444 0.4606741573033708
0.38543690500000594 0.4528578407425501 0.4606741573033708
0.38562527199974284 0.44992672203224227 0.4636052760136786
0.3858136939998076 0.4538348803126526 0.4606741573033708
0.3860028579997561 0.45188080117244755 0.4636052760136786
0.38619235499982096 0.4538348803126526 0.4606741573033708
0.3863894989999608 0.44992672203224227 0.4606741573033708
0.38657914399982474 0.4538348803126526 0.46262823644357587
0.3867678999999953 0.44992672203224227 0.46262823644357587
0.38695647099984853 0.4509037616023448 0.46458231558378116
0.3871446529997229 0.45188080117244755 0.4636052760136786
0.3873340569998618 0.4528578407425501 0.46262823644357587
0.38752316499994777 0.44894968246213973 0.4655593551538837
0.3877116799999385 0.45188080117244755 0.46262823644357587
0.3879004169998552 0.44992672203224227 0.46262823644357587
0.38808958099980373 0.44992672203224227 0.4606741573033708
0.3882788179998897 0.4479726428920372 0.4636052760136786
0.3884674629998699 0.4557889594528579 0.45969711773326827
0.3886564599997655 0.44992672203224227 0.46262823644357587
0.3888455679998515 0.44992672203224227 0.46262823644357587
0.3890346379998846 0.4557889594528579 0.46165119687347334
0.3892238019998331 0.4509037616023448 0.4606741573033708
0.38941279799973927 0.4509037616023448 0.45969711773326827
0.389602221000132 0.45188080117244755 0.4606741573033708
0.38979062499993233 0.45188080117244755 0.46165119687347334
0.389978992000124 0.45481191988275516 0.46165119687347334
0.3901678779998292 0.44894968246213973 0.45969711773326827
0.39035731900003157 0.45481191988275516 0.45969711773326827
0.3905550750000657 0.45188080117244755 0.457743038593063
0.3907442009999613 0.45676599902296044 0.457743038593063
0.3909333639999204 0.4479726428920372 0.46458231558378116
0.3911241020000489 0.4509037616023448 0.45676599902296044
0.3913143019999552 0.44992672203224227 0.45676599902296044
0.3915036139997028 0.44992672203224227 0.45676599902296044
0.39169274000005316 0.44699560332193444 0.4538348803126526
0.3918817180001497 0.44699560332193444 0.4538348803126526
0.3920714739997493 0.44894968246213973 0.4538348803126526
0.39225998899974 0.45188080117244755 0.4528578407425501
0.3924488940001538 0.44992672203224227 0.4509037616023448
0.39263813099978506 0.44992672203224227 0.4509037616023448
0.3928274239997336 0.45188080117244755 0.45481191988275516
0.393016568999883 0.44992672203224227 0.44894968246213973
0.3932059539997681 0.44992672203224227 0.4538348803126526
0.39339470999993864 0.4509037616023448 0.45188080117244755
0.39358361399990827 0.4509037616023448 0.45188080117244755
0.3937721480001528 0.45188080117244755 0.4460185637518319
0.3939613120001013 0.45188080117244755 0.4479726428920372
0.39415043799999694 0.45188080117244755 0.4430874450415241
0.39433897199978674 0.44992672203224227 0.44406448461162684
0.39452933899974596 0.4538348803126526 0.4450415241817294
0.39471913199986375 0.45188080117244755 0.4430874450415241
0.3949080909997065 0.45188080117244755 0.4460185637518319
0.3950971069998559 0.4509037616023448 0.4401563263312165
0.3952863439999419 0.4509037616023448 0.4479726428920372
0.39547513699972114 0.4528578407425501 0.44211040547142155
0.395664633999786 0.4528578407425501 0.44406448461162684
0.3958530189997873 0.4538348803126526 0.441133365901319
0.3960415900000953 0.4509037616023448 0.44406448461162684
0.39623054999992746 0.4538348803126526 0.4382022471910112
0.39641917600010856 0.4557889594528579 0.44211040547142155
0.39660861699985617 0.45188080117244755 0.44211040547142155
0.39679787299974123 0.45188080117244755 0.44211040547142155
0.39698733299974265 0.4557889594528579 0.43917928676111373
0.39717634799990265 0.457743038593063 0.441133365901319
0.397365660000105 0.4528578407425501 0.441133365901319
0.397555119000117 0.4528578407425501 0.4401563263312165
0.3977444120000655 0.4528578407425501 0.441133365901319
0.3979329459998553 0.45188080117244755 0.44211040547142155
0.3981223499999942 0.4528578407425501 0.44211040547142155
0.398312143000112 0.45676599902296044 0.44211040547142155
0.3985015289999865 0.44894968246213973 0.44406448461162684
0.3986905619999561 0.4538348803126526 0.4430874450415241
0.3988794289998623 0.45188080117244755 0.44699560332193444
0.39906833399982133 0.4528578407425501 0.44406448461162684
0.399257366999791 0.45481191988275516 0.4460185637518319
0.3994469750000462 0.45481191988275516 0.4430874450415241
0.3996362309999313 0.45188080117244755 0.4450415241817294
0.39982567200013364 0.457743038593063 0.4430874450415241
0.40001513200013505 0.4538348803126526 0.44211040547142155
0.4002035359999354 0.4557889594528579 0.4479726428920372
0.4003920699997252 0.4587200781631655 0.4479726428920372
0.40058054800010723 0.45481191988275516 0.4479726428920372
0.4007695079999394 0.4538348803126526 0.4460185637518319
0.40095907800014174 0.4538348803126526 0.44992672203224227
0.4011472600000161 0.4538348803126526 0.4460185637518319
0.4013358130000597 0.457743038593063 0.4509037616023448
0.40152353199982826 0.45676599902296044 0.45188080117244755
0.4017120280000199 0.4538348803126526 0.44992672203224227
0.4019005619998097 0.45188080117244755 0.4538348803126526
0.40208916999972644 0.4538348803126526 0.44992672203224227
0.40227774100003444 0.4538348803126526 0.4557889594528579
0.40247695900006875 0.4538348803126526 0.4538348803126526
0.40266612300001725 0.45481191988275516 0.4509037616023448
0.40285487899973305 0.4538348803126526 0.4538348803126526
0.40304367199996705 0.45481191988275516 0.45188080117244755
0.4032319089997145 0.4538348803126526 0.4509037616023448
0.4034214799999063 0.45188080117244755 0.4557889594528579
0.40361006900002394 0.4538348803126526 0.45481191988275516
0.40379914000004646 0.4509037616023448 0.4557889594528579
0.40398808100007955 0.457743038593063 0.45481191988275516
0.40417720699997517 0.44992672203224227 0.45969711773326827
0.40436624099993423 0.4557889594528579 0.457743038593063
0.40455525600009423 0.44894968246213973 0.45969711773326827
0.4047447719999582 0.4538348803126526 0.45481191988275516
0.4049330650000229 0.44992672203224227 0.45969711773326827
0.4051218209997387 0.4509037616023448 0.4557889594528579
0.40531087299996216 0.45188080117244755 0.45969711773326827
0.4054992769997625 0.44992672203224227 0.4587200781631655
0.40568834799978504 0.4509037616023448 0.46165119687347334
0.4058771039999556 0.4528578407425501 0.4606741573033708
0.4060661369999252 0.4538348803126526 0.46165119687347334
0.40625515300007464 0.45188080117244755 0.4587200781631655
0.4064444639998328 0.4538348803126526 0.46262823644357587
0.40663446100006695 0.45969711773326827 0.46165119687347334
0.40682360599976164 0.44992672203224227 0.4636052760136786
0.4070129359997736 0.45188080117244755 0.46458231558378116
0.40720252499977505 0.44992672203224227 0.46262823644357587
0.40739185499978703 0.45188080117244755 0.46262823644357587
0.40758061099995757 0.44992672203224227 0.4606741573033708
0.40776977399991665 0.44992672203224227 0.46262823644357587
0.40795882700012953 0.45481191988275516 0.46165119687347334
0.4081475269999828 0.4538348803126526 0.45969711773326827
0.4083365980000053 0.45188080117244755 0.4606741573033708
0.4085256129997106 0.457743038593063 0.45969711773326827
0.4087139059997753 0.44992672203224227 0.4606741573033708
0.4089031989997238 0.4509037616023448 0.45969711773326827
0.40909177000003183 0.4479726428920372 0.46262823644357587
0.40928061800013893 0.44992672203224227 0.4587200781631655
0.40946996699995 0.4479726428920372 0.4606741573033708
0.4096589639998456 0.4509037616023448 0.46262823644357587
0.40984801600006904 0.44894968246213973 0.46165119687347334
0.4100367349997214 0.4509037616023448 0.4606741573033708
0.41022584299980736 0.44992672203224227 0.46262823644357587
0.41041600600010497 0.4479726428920372 0.46165119687347334
0.4106045029998313 0.44699560332193444 0.457743038593063
0.4107940359999702 0.44699560332193444 0.46458231558378116
0.41098308899972835 0.44699560332193444 0.45969711773326827
0.4111719739998989 0.4557889594528579 0.457743038593063
0.41136093399973106 0.45188080117244755 0.4538348803126526
0.4115500970001449 0.44699560332193444 0.4528578407425501
0.41173911299983956 0.44992672203224227 0.4509037616023448
0.41192851699997846 0.4460185637518319 0.45481191988275516
0.412117717000001 0.44992672203224227 0.4509037616023448
0.41230691700002353 0.4450415241817294 0.4509037616023448
0.41249598800004605 0.44992672203224227 0.4509037616023448
0.4126851699998042 0.44699560332193444 0.45188080117244755
0.41287455600013345 0.4509037616023448 0.44992672203224227
0.41306331199984925 0.44894968246213973 0.4479726428920372
0.413251733999914 0.45481191988275516 0.44699560332193444
0.41344021199984127 0.44699560332193444 0.44699560332193444
0.41362948699998014 0.44992672203224227 0.44699560332193444
0.4138193539997701 0.4479726428920372 0.4479726428920372
0.4140083689999301 0.4528578407425501 0.44406448461162684
0.4141979400001219 0.4509037616023448 0.4450415241817294
0.4143941590000395 0.44894968246213973 0.4450415241817294
0.41458463699973436 0.4509037616023448 0.44406448461162684
0.4147739109998838 0.44992672203224227 0.4450415241817294
0.4149634079999487 0.45188080117244755 0.44211040547142155
0.41515181199974904 0.45188080117244755 0.4430874450415241
0.4153431609997824 0.4538348803126526 0.4430874450415241
0.41553199100007987 0.45188080117244755 0.4430874450415241
0.41572145000009186 0.4528578407425501 0.441133365901319
0.41591068799971254 0.4528578407425501 0.441133365901319
0.4160994439998831 0.4509037616023448 0.44211040547142155
0.41628831099978925 0.4557889594528579 0.44406448461162684
0.41647795600010795 0.45481191988275516 0.44211040547142155
0.4166675819997181 0.4528578407425501 0.44406448461162684
0.4168571340001108 0.45481191988275516 0.441133365901319
0.4170461680000699 0.45188080117244755 0.44406448461162684
0.41723496099984914 0.45676599902296044 0.43722520762090866
0.4174239949998082 0.4528578407425501 0.44211040547142155
0.41761282500010566 0.45188080117244755 0.43722520762090866
0.41780147000008583 0.45188080117244755 0.43917928676111373
0.417990244000066 0.45481191988275516 0.4401563263312165
0.41817896299971835 0.45481191988275516 0.44211040547142155
0.41836783000007927 0.45481191988275516 0.441133365901319
0.4185668820000501 0.4538348803126526 0.441133365901319
0.41875635999986116 0.4528578407425501 0.44406448461162684
0.41894519100014804 0.45481191988275516 0.44211040547142155
0.4191344089999802 0.4557889594528579 0.44406448461162684
0.41932296200002384 0.45676599902296044 0.44406448461162684
0.4195120690001204 0.4528578407425501 0.4430874450415241
0.4197008249998362 0.44992672203224227 0.4460185637518319
0.4198900629999116 0.45188080117244755 0.4430874450415241
0.4200790039999447 0.45481191988275516 0.4450415241817294
0.4202677230000518 0.4528578407425501 0.44406448461162684
0.4204561639999156 0.45188080117244755 0.4460185637518319
0.42064525299974775 0.4538348803126526 0.44406448461162684
0.4208348429997386 0.4538348803126526 0.4479726428920372
0.4210236909998457 0.45188080117244755 0.44699560332193444
0.4212122989997624 0.4509037616023448 0.45188080117244755
0.4214010919999964 0.4538348803126526 0.44894968246213973
0.4215904220000084 0.44894968246213973 0.44992672203224227
0.42177899299986166 0.4538348803126526 0.44894968246213973
0.42196760099977837 0.44992672203224227 0.45676599902296044
0.42215631999988545 0.4509037616023448 0.45481191988275516
0.42234509399986564 0.45188080117244755 0.4538348803126526
0.42253455399986706 0.4538348803126526 0.4509037616023448
0.42272288399999525 0.4509037616023448 0.45676599902296044
0.42291319500009195 0.4528578407425501 0.45481191988275516
0.423102321999977 0.457743038593063 0.4538348803126526
0.42329378099975656 0.44894968246213973 0.4538348803126526
0.4234836850000647 0.45481191988275516 0.4538348803126526
0.4236721080001189 0.44894968246213973 0.457743038593063
0.42386112299982415 0.44992672203224227 0.46262823644357587
0.42405030500003704 0.44992672203224227 0.4587200781631655
0.4242394679999961 0.4528578407425501 0.45676599902296044
0.42442853900001865 0.44699560332193444 0.45969711773326827
0.42461685099988244 0.4528578407425501 0.4587200781631655
0.4248059030001059 0.44894968246213973 0.45969711773326827
0.42499552899971604 0.45188080117244755 0.457743038593063
0.42518387800009805 0.44894968246213973 0.45969711773326827
0.4253727259997504 0.4509037616023448 0.457743038593063
0.4255617789999633 0.45188080117244755 0.457743038593063
0.42575055299994347 0.44992672203224227 0.45676599902296044
0.42593958699990253 0.4509037616023448 0.46458231558378116
0.4261288239999885 0.44894968246213973 0.45969711773326827
0.4263178579999476 0.4509037616023448 0.4606741573033708
0.42650703999970574 0.44894968246213973 0.4587200781631655
0.4266960919999292 0.44894968246213973 0.4665363947239862
0.4268844779999199 0.4509037616023448 0.4606741573033708
0.42707288199972027 0.44894968246213973 0.46165119687347334
0.4272616379998908 0.44894968246213973 0.4606741573033708
0.4274508749999768 0.44992672203224227 0.46458231558378116
0.4276397979997455 0.44992672203224227 0.46165119687347334
0.42782931300007476 0.44992672203224227 0.4655593551538837
0.4280186619998858 0.44894968246213973 0.4636052760136786
0.42820664000009856 0.44894968246213973 0.4655593551538837
0.4283955999999307 0.44992672203224227 0.46262823644357587
0.428584206999858 0.44992672203224227 0.46262823644357587
0.42877335200000743 0.4509037616023448 0.467513434294089
0.42896195999992415 0.4538348803126526 0.46165119687347334
0.42915056799984086 0.4509037616023448 0.46165119687347334
0.4293390829998316 0.4509037616023448 0.45969711773326827
0.42952756099975886 0.44894968246213973 0.4606741573033708
0.4297154659998341 0.44992672203224227 0.4587200781631655
0.42990459199972975 0.4460185637518319 0.46165119687347334
0.4300939589998052 0.44992672203224227 0.4587200781631655
0.4302827520000392 0.44699560332193444 0.45676599902296044
0.4304816190001475 0.4479726428920372 0.4587200781631655
0.43067059699978927 0.44894968246213973 0.45969711773326827
0.43085885299979054 0.45188080117244755 0.4587200781631655
0.43104775699976017 0.44992672203224227 0.45676599902296044
0.43123630899981436 0.4528578407425501 0.4557889594528579
0.431424990999858 0.4538348803126526 0.457743038593063
0.4316136729999016 0.4538348803126526 0.4557889594528579
0.4318027069998607 0.44992672203224227 0.45676599902296044
0.43199142599996776 0.44992672203224227 0.4538348803126526
0.4321801820001383 0.4430874450415241 0.4538348803126526
0.4323692529997061 0.4509037616023448 0.4538348803126526
0.4325580639997497 0.44894968246213973 0.45481191988275516
0.4327469499999097 0.44992672203224227 0.4509037616023448
0.4329357799997524 0.44699560332193444 0.4538348803126526
0.4331251280000288 0.4509037616023448 0.44894968246213973
0.4333138839997446 0.44699560332193444 0.4538348803126526
0.4335027879997142 0.45188080117244755 0.44992672203224227
0.43369176699980017 0.44992672203224227 0.44894968246213973
0.43388037399972745 0.4509037616023448 0.4479726428920372
0.43406931499976054 0.44992672203224227 0.44992672203224227
0.43425777499987817 0.45188080117244755 0.44406448461162684
0.43444810499977393 0.44894968246213973 0.4460185637518319
0.4346372129998599 0.4538348803126526 0.4460185637518319
0.4348254689998612 0.44992672203224227 0.45188080117244755
0.4350135209997461 0.4538348803126526 0.4450415241817294
0.43520214799991663 0.4538348803126526 0.44699560332193444
0.4353911439998228 0.4509037616023448 0.4460185637518319
0.4355803449998348 0.45481191988275516 0.44699560332193444
0.4357699339998362 0.4538348803126526 0.4479726428920372
0.4359583569998904 0.4538348803126526 0.4450415241817294
0.43614690899994457 0.4538348803126526 0.4460185637518319
0.4363355169998613 0.45481191988275516 0.4450415241817294
0.4365244949999578 0.4528578407425501 0.44406448461162684
0.4367135100001178 0.45481191988275516 0.44211040547142155
0.43690256199988653 0.4528578407425501 0.44211040547142155
0.4370910590000676 0.4538348803126526 0.43917928676111373
0.43727968499979397 0.4528578407425501 0.441133365901319
0.43746801499992216 0.4557889594528579 0.4382022471910112
0.4376563639998494 0.457743038593063 0.43917928676111373
0.437845027000094 0.4528578407425501 0.4401563263312165
0.4380337090001376 0.4557889594528579 0.4382022471910112
0.4382217249999485 0.45481191988275516 0.441133365901319
0.43841053599999213 0.4538348803126526 0.4382022471910112
0.43859853300000395 0.4538348803126526 0.43917928676111373
0.4387875479997092 0.45188080117244755 0.4450415241817294
0.4389761190000172 0.4528578407425501 0.44992672203224227
0.4391642079999656 0.44992672203224227 0.4430874450415241
0.4393528709997554 0.45481191988275516 0.44406448461162684
0.4395410530000845 0.4557889594528579 0.4430874450415241
0.4397295869998743 0.457743038593063 0.44211040547142155
0.4399193059998652 0.4557889594528579 0.4460185637518319
0.44010865500013097 0.4557889594528579 0.4430874450415241
0.4402974479999102 0.457743038593063 0.4450415241817294
0.4404861670000173 0.45481191988275516 0.44406448461162684
0.440675440999712 0.45481191988275516 0.4479726428920372
0.4408644009999989 0.45676599902296044 0.44992672203224227
0.441053342000032 0.4538348803126526 0.44699560332193444
0.4412420240000756 0.45969711773326827 0.45188080117244755
0.44143105700004526 0.45676599902296044 0.44894968246213973
0.44161983200001487 0.4538348803126526 0.4528578407425501
0.4418091990000903 0.45481191988275516 0.4538348803126526
0.44199876999982735 0.4528578407425501 0.45188080117244755
0.44218795200004024 0.4538348803126526 0.4528578407425501
0.44238704100007453 0.44992672203224227 0.4528578407425501
0.44257724099998086 0.45188080117244755 0.45481191988275516
0.44276629299974957 0.4528578407425501 0.4557889594528579
0.4429548459997932 0.4557889594528579 0.45188080117244755
0.4431433049999214 0.45188080117244755 0.4528578407425501
0.4433324500000708 0.4538348803126526 0.4509037616023448
0.4435214279997126 0.457743038593063 0.45481191988275516
0.44371105499976693 0.45188080117244755 0.4538348803126526
0.4439006249999693 0.44992672203224227 0.45676599902296044
0.4440900669997063 0.4509037616023448 0.4557889594528579
0.44427991500015196 0.44992672203224227 0.45676599902296044
0.4444690039999841 0.4528578407425501 0.45676599902296044
0.44465868599991154 0.44699560332193444 0.45969711773326827
0.4448476640000081 0.4509037616023448 0.4606741573033708
0.44503708699994604 0.45188080117244755 0.46165119687347334
0.4452254359998733 0.45188080117244755 0.45676599902296044
0.44541413599972657 0.44894968246213973 0.46165119687347334
0.44560287400008747 0.45188080117244755 0.4587200781631655
0.4457913149999513 0.44992672203224227 0.4587200781631655
0.44598081100002673 0.457743038593063 0.4587200781631655
0.4461699009998483 0.4509037616023448 0.4636052760136786
0.44635880499981795 0.4538348803126526 0.4606741573033708
0.44655665299978864 0.4509037616023448 0.46165119687347334
0.44674503899977935 0.4587200781631655 0.4606741573033708
0.446933942999749 0.4509037616023448 0.4636052760136786
0.44712306900009935 0.4528578407425501 0.45969711773326827
0.447311751000143 0.45188080117244755 0.46262823644357587
0.4475001179998799 0.4528578407425501 0.46262823644357587
0.4476886329998706 0.4557889594528579 0.467513434294089
0.44787716700011515 0.4538348803126526 0.46458231558378116
0.4480667379998522 0.45188080117244755 0.46262823644357587
0.4482557530000122 0.45188080117244755 0.4606741573033708
0.44844473100010873 0.45188080117244755 0.46458231558378116
0.4486343759999727 0.4528578407425501 0.46165119687347334
0.4488232989997414 0.44894968246213973 0.46165119687347334
0.4490117579998696 0.45676599902296044 0.4606741573033708
0.44920103300000847 0.4538348803126526 0.46165119687347334
0.44938975200011555 0.44992672203224227 0.46458231558378116
0.44957858199995826 0.4538348803126526 0.4587200781631655
0.4497671710000759 0.4538348803126526 0.4636052760136786
0.449956112000109 0.44894968246213973 0.4606741573033708
0.45014523899999404 0.4479726428920372 0.45969711773326827
0.4503339580001011 0.45188080117244755 0.45969711773326827
0.4505241769998065 0.44894968246213973 0.4606741573033708
0.45071248800013564 0.44894968246213973 0.4606741573033708
0.450901206999788 0.44992672203224227 0.4606741573033708
0.45108964800010654 0.45481191988275516 0.45969711773326827
0.4512781079997694 0.45188080117244755 0.45969711773326827
0.45146697500013033 0.44894968246213973 0.457743038593063
0.45165632299995195 0.45188080117244755 0.457743038593063
0.4518450609998581 0.44992672203224227 0.457743038593063
0.45203442799993354 0.44992672203224227 0.45481191988275516
0.45222325799977625 0.44992672203224227 0.4528578407425501
0.4524123840001266 0.44992672203224227 0.4538348803126526
0.4526011220000328 0.4509037616023448 0.4538348803126526
0.45278969299988603 0.45188080117244755 0.45188080117244755
0.45297872599985567 0.4479726428920372 0.45481191988275516
0.4531674270001531 0.44992672203224227 0.44992672203224227
0.45335614599980545 0.4460185637518319 0.4528578407425501
0.4535446239997327 0.44894968246213973 0.44894968246213973
0.45373352799970235 0.44992672203224227 0.44992672203224227
0.4539224320001267 0.45188080117244755 0.44992672203224227
0.45411094700011745 0.44992672203224227 0.44699560332193444
0.45429955500003416 0.44699560332193444 0.44699560332193444
0.45448977399973955 0.44992672203224227 0.44894968246213973
0.4546783079999841 0.44894968246213973 0.4460185637518319
0.4548665269999219 0.45188080117244755 0.44699560332193444
0.45505489400011356 0.44699560332193444 0.4479726428920372
0.4552437239999563 0.4509037616023448 0.44699560332193444
0.4554354799997782 0.4528578407425501 0.44406448461162684
0.45562421700014966 0.44992672203224227 0.4460185637518319
0.45581275099993945 0.45188080117244755 0.4460185637518319
0.4560018960000889 0.45481191988275516 0.4479726428920372
0.4561901150000267 0.4528578407425501 0.44699560332193444
0.456378592999954 0.4538348803126526 0.4460185637518319
0.4565674229997967 0.45481191988275516 0.4460185637518319
0.45675634600002013 0.4557889594528579 0.4460185637518319
0.4569448239999474 0.4538348803126526 0.44699560332193444
0.45713319100013905 0.4587200781631655 0.44406448461162684
0.45732139099982305 0.4538348803126526 0.4450415241817294
0.45751094399975045 0.45676599902296044 0.44406448461162684
0.4576995510001325 0.4509037616023448 0.4479726428920372
0.4578880479998588 0.4538348803126526 0.4460185637518319
0.4580763039998601 0.4538348803126526 0.4460185637518319
0.4582651529999566 0.4528578407425501 0.44406448461162684
0.45846161200006463 0.4538348803126526 0.4450415241817294
0.4586507939998228 0.4557889594528579 0.44406448461162684
0.45883929100000387 0.4528578407425501 0.4450415241817294
0.4590273429998888 0.4528578407425501 0.44406448461162684
0.45921622900004877 0.4538348803126526 0.4430874450415241
0.45940592899978583 0.44992672203224227 0.44992672203224227
0.4595954999999776 0.4528578407425501 0.44699560332193444
0.45978429299975687 0.44992672203224227 0.4450415241817294
0.45997295600000143 0.4528578407425501 0.4450415241817294
0.46016178599984414 0.45188080117244755 0.4460185637518319
0.4603503749999618 0.44992672203224227 0.44699560332193444
0.46053911299986794 0.4528578407425501 0.45188080117244755
0.4607280360000914 0.45481191988275516 0.4460185637518319
0.46091703199999756 0.457743038593063 0.4509037616023448
0.4611059919998297 0.4528578407425501 0.44894968246213973
0.4612945439998839 0.4528578407425501 0.45188080117244755
0.4614827629998217 0.4557889594528579 0.45188080117244755
0.4616709639999499 0.4528578407425501 0.45188080117244755
0.4618597939997926 0.4509037616023448 0.4538348803126526
0.46204890099988916 0.45188080117244755 0.45188080117244755
0.4622377499999857 0.45188080117244755 0.4538348803126526
0.4624277469997651 0.4538348803126526 0.45676599902296044
0.46261755800014726 0.4509037616023448 0.4557889594528579
0.4628057770000851 0.44992672203224227 0.44894968246213973
0.46299508899983266 0.45188080117244755 0.45481191988275516
0.46318441899984464 0.45188080117244755 0.4528578407425501
0.4633736189998672 0.44992672203224227 0.4557889594528579
0.46356209699979445 0.45188080117244755 0.4528578407425501
0.46375026099985917 0.4509037616023448 0.45676599902296044
0.46393927600001916 0.4509037616023448 0.457743038593063
0.4641281799999888 0.44894968246213973 0.4587200781631655
0.46431713999982094 0.44992672203224227 0.457743038593063
0.464507433000108 0.44699560332193444 0.45969711773326827
0.4646968179999931 0.45188080117244755 0.45676599902296044
0.46488501900012125 0.4509037616023448 0.4636052760136786
0.4650738669997736 0.44894968246213973 0.45969711773326827
0.4652626600000076 0.44699560332193444 0.4636052760136786
0.4654524530001254 0.44894968246213973 0.45969711773326827
0.4656407459997354 0.44992672203224227 0.46458231558378116
0.4658297239998319 0.44992672203224227 0.46165119687347334
0.46602009099979114 0.44992672203224227 0.46165119687347334
0.4662088469999617 0.4509037616023448 0.4606741573033708
0.4663977509999313 0.45188080117244755 0.4587200781631655
0.46658513700003823 0.44992672203224227 0.4606741573033708
0.46677333699972223 0.4528578407425501 0.45969711773326827
0.4669626300001255 0.44699560332193444 0.4636052760136786
0.467151701000148 0.4509037616023448 0.4606741573033708
0.46734097599983215 0.45188080117244755 0.46165119687347334
0.4675301209999816 0.45188080117244755 0.4606741573033708
0.46771852499978195 0.44894968246213973 0.467513434294089
0.4679064470001322 0.45188080117244755 0.4636052760136786
0.46809531400003834 0.44992672203224227 0.46458231558378116
0.4682838849998916 0.44992672203224227 0.46262823644357587
0.46847371500007284 0.4557889594528579 0.4636052760136786
0.46866254499991555 0.44894968246213973 0.4636052760136786
0.46885131999988516 0.4538348803126526 0.46262823644357587
0.46903970499988645 0.44992672203224227 0.46262823644357587
0.46922842399999354 0.4528578407425501 0.4606741573033708
0.4694166619997304 0.45188080117244755 0.46262823644357587
0.46960514000011244 0.44992672203224227 0.46458231558378116
0.4697939329998917 0.4528578407425501 0.4606741573033708
0.46998257799987186 0.44894968246213973 0.45969711773326827
0.4701711669999895 0.4528578407425501 0.457743038593063
0.4703595529999802 0.44992672203224227 0.45481191988275516
0.47055754899975 0.44992672203224227 0.45676599902296044
0.47074654600010035 0.45481191988275516 0.45676599902296044
0.4709355059999325 0.45188080117244755 0.4587200781631655
0.4711244099999021 0.44992672203224227 0.4528578407425501
0.47131401799970263 0.44992672203224227 0.45481191988275516
0.4715026620001481 0.4528578407425501 0.45676599902296044
0.47169127000006483 0.44699560332193444 0.4557889594528579
0.4718807670001297 0.44894968246213973 0.44992672203224227
0.47206987499976094 0.44894968246213973 0.45188080117244755
0.4722592419998364 0.44894968246213973 0.4509037616023448
0.4724490720000176 0.4460185637518319 0.4509037616023448
0.47263767999993433 0.44992672203224227 0.44894968246213973
