0 0.457743038593063 0.30434782608695654
0.0005009930000596796 0.4557889594528579 0.24865657059110902
0.000772749000134354 0.4528578407425501 0.21446018563751834
0.0010540970001784444 0.4528578407425501 0.20762090864680016
0.0012979820003238274 0.4528578407425501 0.2261846604787494
0.0015689599999859638 0.4479726428920372 0.2681973619931608
0.0018571410000731703 0.44992672203224227 0.29750854909623836
0.002091916000154015 0.44894968246213973 0.34733756717147046
0.002679426000213425 0.44992672203224227 0.36003908158280407
0.00288286800014248 0.4538348803126526 0.36687835857352225
0.0030819020003036712 0.4587200781631655 0.36980947728383007
0.0032728999999562802 0.457743038593063 0.3737176355642404
0.003461619000063365 0.46262823644357587 0.37274059599413767
0.0036508200000753277 0.4636052760136786 0.37469467513434296
0.003839762000097835 0.4606741573033708 0.3776257938446508
0.004030852000141749 0.4606741573033708 0.3756717147044455
0.004220978999910585 0.4587200781631655 0.3805569125549584
0.00441056900035619 0.45676599902296044 0.3786028334147533
0.0045996030003152555 0.4587200781631655 0.3805569125549584
0.0047875079999357695 0.4538348803126526 0.37957987298485585
0.004976098000042839 0.45188080117244755 0.3776257938446508
0.005164947000139364 0.4528578407425501 0.37274059599413767
0.005352573999971355 0.45188080117244755 0.3756717147044455
0.005542368000078568 0.4538348803126526 0.3786028334147533
0.005751976000283321 0.45188080117244755 0.3883732291157791
0.005954195999947842 0.4557889594528579 0.3952125061064973
0.006169730000237905 0.4557889594528579 0.42745481191988266
0.007623747000252479 0.4509037616023448 0.48216902784562765
0.007932891000109521 0.4479726428920372 0.4948705422569615
0.00817825800004357 0.44992672203224227 0.5095261358085001
0.008390106000206288 0.44992672203224227 0.5232046897899365
0.00859340000033626 0.4509037616023448 0.5368832437713726
0.008798582000054012 0.4509037616023448 0.5525158768930141
0.00900067200018384 0.4528578407425501 0.5681485100146555
0.009199206000175764 0.4460185637518319 0.5759648265754762
0.009393130000262317 0.44894968246213973 0.5867122618466047
0.009588053000243235 0.44894968246213973 0.595505617977528
0.009785050000118645 0.4509037616023448 0.6111382510991694
0.01001547300029415 0.44992672203224227 0.6189545676599901
0.010226063000118302 0.44699560332193444 0.631656082071324
0.010470410999914748 0.44406448461162684 0.6414264777723497
0.01072516700014603 0.44699560332193444 0.6463116756228626
0.01096940400020685 0.45188080117244755 0.6531509526135808
0.011204381999959878 0.4450415241817294 0.6551050317537861
0.011549322000064421 0.4450415241817294 0.6365412799218368
0.011973890000263054 0.44699560332193444 0.6238397655105032
0.012185943000076804 0.44699560332193444 0.605276013678554
0.012386403000164137 0.4450415241817294 0.5847581827063997
0.012583604000155901 0.4450415241817294 0.5642403517342451
0.012781305000316934 0.45188080117244755 0.5417684416218858
0.012981839000076434 0.45188080117244755 0.5173424523693209
0.0131775770000786 0.44699560332193444 0.48998534440644836
0.013371481999911339 0.4430874450415241 0.4704445530043966
0.013568924000082916 0.4430874450415241 0.441133365901319
0.013766050999947765 0.4430874450415241 0.4255007327796776
0.013967474000310176 0.4430874450415241 0.41963849535906195
0.014173562999985734 0.4450415241817294 0.4255007327796776
0.01440481899999213 0.44699560332193444 0.441133365901319
0.014646890000221902 0.44699560332193444 0.4538348803126526
0.01487957200015444 0.44992672203224227 0.46262823644357587
0.015078420999998343 0.44992672203224227 0.4655593551538837
0.01527953000004345 0.45676599902296044 0.4655593551538837
0.015478674999940267 0.4528578407425501 0.46262823644357587
0.0156750800001646 0.45188080117244755 0.4636052760136786
0.015873206999913236 0.4538348803126526 0.46262823644357587
0.016077259000212507 0.4528578407425501 0.45481191988275516
0.016276312000172766 0.4509037616023448 0.44699560332193444
0.016477606000080414 0.44894968246213973 0.43722520762090866
0.0166797880001468 0.44894968246213973 0.42745481191988266
0.016880526000022655 0.4479726428920372 0.41670737664875435
0.01707800500025769 0.4460185637518319 0.4059599413776258
0.01728213100022913 0.44992672203224227 0.3913043478260869
0.01748059200008356 0.4528578407425501 0.3786028334147533
0.01768577400025606 0.4538348803126526 0.37274059599413767
0.017888716000015847 0.4538348803126526 0.3551538837322912
0.01808775000017704 0.45481191988275516 0.3385442110405472
0.018286005999925692 0.45481191988275516 0.31998045920859797
0.01848909599993931 0.4557889594528579 0.2984855886663409
0.018685705000279995 0.45481191988275516 0.2877381533952126
0.018882813000345777 0.4538348803126526 0.29164631167562294
0.019082069999967644 0.4538348803126526 0.3014167073766487
0.019296826000299916 0.45481191988275516 0.32681973619931615
0.01952421200030585 0.45188080117244755 0.35222276502198335
0.0197241529999701 0.4557889594528579 0.3834880312652662
0.01992170600033205 0.457743038593063 0.39716658524670256
0.020122813999932987 0.4528578407425501 0.4137762579384465
0.020316552000167576 0.4528578407425501 0.42745481191988266
0.020514030999947863 0.45676599902296044 0.4303859306301905
0.020710899000278005 0.45676599902296044 0.42452369320957506
0.020910600000206614 0.45676599902296044 0.412799218368344
0.021105486000124074 0.4587200781631655 0.3913043478260869
0.021296057000199653 0.4587200781631655 0.37957987298485585
0.021492314000170154 0.4587200781631655 0.36980947728383007
0.021727088000261574 0.46458231558378116 0.3659013190034197
0.021947919000012917 0.457743038593063 0.3678553981436248
0.022140397999919514 0.457743038593063 0.3707865168539326
0.02232976499999495 0.4557889594528579 0.37469467513434296
0.022519689000091603 0.457743038593063 0.38153395212506114
0.022708630000124685 0.45676599902296044 0.3854421104054715
0.02289947999997821 0.457743038593063 0.38641914997557403
0.023091421000117407 0.4587200781631655 0.38739618954567656
0.023283197000182554 0.45676599902296044 0.3805569125549584
0.023472435000257974 0.46262823644357587 0.3756717147044455
0.023660710000058316 0.4587200781631655 0.3707865168539326
0.02384955900015484 0.4557889594528579 0.35906204201270153
0.024046982000072603 0.45676599902296044 0.348314606741573
0.0242468680003185 0.45481191988275516 0.33268197361993157
0.024445125000056578 0.45481191988275516 0.33170493404982904
0.024637752000217006 0.4509037616023448 0.3424523693209576
0.02484397100033675 0.4509037616023448 0.36003908158280407
0.025044524000350066 0.44992672203224227 0.38641914997557403
0.025242651000098704 0.4479726428920372 0.4176844162188569
0.025458573999912915 0.44699560332193444 0.4851001465559355
0.02596528899994155 0.44894968246213973 0.5329750854909623
0.02626298900031543 0.4479726428920372 0.5466536394723986
0.026623743000072864 0.44699560332193444 0.5378602833414754
0.026879332000135037 0.4479726428920372 0.5280898876404494
0.027182160999927873 0.4479726428920372 0.5261358085002443
0.027456824000182678 0.44699560332193444 0.4978016609672691
0.029421000000183994 0.4479726428920372 0.5173424523693209
0.029718570000113687 0.4509037616023448 0.5554469956033219
0.03098538600033862 0.441133365901319 0.5476306790425012
0.03181102300004568 0.441133365901319 0.5114802149487054
0.03270225100004609 0.4430874450415241 0.5163654127992183
0.032934636999925715 0.45481191988275516 0.524181729360039
0.03316298600020673 0.4430874450415241 0.540791402051783
0.033538629000304354 0.43624816805080613 0.5427454811919883
0.033741292000286194 0.4382022471910112 0.5398143624816805
0.033931808000033925 0.4382022471910112 0.5329750854909623
0.034125676000257954 0.44211040547142155 0.5271128480703469
0.03431546999991042 0.44211040547142155 0.5183194919394236
0.034514299999955256 0.44406448461162684 0.5105031753786029
0.034736001000055694 0.44699560332193444 0.5017098192476794
0.03494401700027083 0.44894968246213973 0.4909623839765511
0.035173939000287646 0.44992672203224227 0.48216902784562765
0.03538467699991088 0.44699560332193444 0.4684904738641915
0.035599247999925865 0.4479726428920372 0.4606741573033708
0.03580937500009895 0.44894968246213973 0.4538348803126526
0.0360119649999433 0.4460185637518319 0.44894968246213973
0.036225665000074514 0.4460185637518319 0.44211040547142155
0.03645173600034468 0.44699560332193444 0.38251099169516367
0.0382119710002371 0.45188080117244755 0.37469467513434296
0.03873313100029918 0.45188080117244755 0.36199316072300936
0.04117302300028314 0.46262823644357587 0.36003908158280407
0.041381113000170444 0.467513434294089 0.35222276502198335
0.041573628000151075 0.467513434294089 0.33756717147044446
0.04176288500002556 0.4655593551538837 0.31900341963849543
0.041952086000037525 0.46165119687347334 0.303370786516854
0.04214084300019749 0.46458231558378116 0.29262335124572547
0.04322180899998784 0.46165119687347334 0.3385442110405472
0.04353112000035253 0.46458231558378116 0.35417684416218864
0.04374556099992333 0.45969711773326827 0.37274059599413767
0.04395409500011738 0.46165119687347334 0.3913043478260869
0.04416011100011019 0.4587200781631655 0.4186614557889594
0.04436396000028253 0.457743038593063 0.43722520762090866
0.04457421600000089 0.46262823644357587 0.4636052760136786
0.04480354700035605 0.45481191988275516 0.4978016609672691
0.04504746900011014 0.4528578407425501 0.5192965315095261
0.04524092900010146 0.44992672203224227 0.5398143624816805
0.04543187100034629 0.4528578407425501 0.5564240351734244
0.04562125800021022 0.45188080117244755 0.5613092330239375
0.04580969900007403 0.4509037616023448 0.567171470444553
0.04600358600009713 0.4538348803126526 0.5740107474352711
0.0461947130002045 0.45188080117244755 0.578895945285784
0.04638426500014248 0.45188080117244755 0.5808500244259893
0.04657230000020718 0.4538348803126526 0.5749877870053737
0.04676009400009207 0.4528578407425501 0.5749877870053737
0.04694823900035772 0.4557889594528579 0.5701025891548608
0.047173347000352805 0.45188080117244755 0.576941866145579
0.047365011000238155 0.4509037616023448 0.5837811431362969
0.04755317500030287 0.4479726428920372 0.5925744992672204
0.047741691000283026 0.4460185637518319 0.5974596971177333
0.047930763000294974 0.4479726428920372 0.5935515388373229
0.04813026000010723 0.4479726428920372 0.5759648265754762
0.04833807200020601 0.4460185637518319 0.550561797752809
0.04853925399993386 0.4479726428920372 0.5075720566682951
0.048758603000351286 0.44699560332193444 0.46946751343429405
0.04894997100018372 0.44699560332193444 0.43917928676111373
0.04913789400006863 0.44406448461162684 0.4206155349291647
0.04932600300026024 0.44699560332193444 0.4137762579384465
0.04951477800022985 0.4460185637518319 0.42256961406936977
0.04970327499995619 0.4479726428920372 0.44406448461162684
0.04989019799995731 0.4460185637518319 0.46165119687347334
0.05007949200035 0.44406448461162684 0.4831460674157304
0.0502678040002138 0.4430874450415241 0.5046409379579873
0.050456913000289205 0.441133365901319 0.533952125061065
0.05068457600009424 0.441133365901319 0.5554469956033219
0.05089048100035143 0.4401563263312165 0.578895945285784
0.052139964000161854 0.4479726428920372 0.6130923302393747
0.05252347700024984 0.45188080117244755 0.6023448949682462
0.05272432600031607 0.4528578407425501 0.5857352222765022
0.052914786000201275 0.4557889594528579 0.5701025891548608
0.05310506100022394 0.4557889594528579 0.5515388373229115
0.05329554000036296 0.45676599902296044 0.5319980459208598
0.05348476000017399 0.4509037616023448 0.512457254518808
0.05367599800001699 0.4509037616023448 0.4831460674157304
0.05386390300009225 0.44894968246213973 0.4557889594528579
0.0540568629999143 0.4509037616023448 0.43722520762090866
0.05424532300003193 0.45188080117244755 0.4264777723497801
0.0544338580002659 0.44894968246213973 0.41670737664875435
0.05462267000029897 0.45481191988275516 0.4049829018075233
0.054818501000227116 0.44992672203224227 0.4010747435271129
0.055008016000101634 0.45188080117244755 0.4040058622374205
0.05524786500018308 0.4509037616023448 0.41475329750854906
0.05543904800015298 0.45188080117244755 0.4264777723497801
0.05562706299997444 0.4509037616023448 0.4401563263312165
0.05581524600029297 0.45188080117244755 0.4538348803126526
0.05600226200022007 0.4509037616023448 0.47239863214460187
0.05618981499992515 0.44992672203224227 0.49193942354665365
0.05637677499998972 0.4538348803126526 0.5144113336590133
0.0565643100003399 0.45188080117244755 0.5271128480703469
0.05675228900008733 0.45188080117244755 0.5486077186126037
0.05693978599992988 0.4528578407425501 0.5632633121641426
0.05712695000011081 0.4557889594528579 0.5661944308744504
0.05731389199991099 0.457743038593063 0.5583781143136297
0.05750096300016594 0.46165119687347334 0.5329750854909623
0.057687276000251586 0.46946751343429405 0.5007327796775769
0.057879143000263866 0.47142159257449934 0.45188080117244755
0.05811012200001642 0.467513434294089 0.4108451392281387
0.05830917399998725 0.4636052760136786 0.3737176355642404
0.05852300500009733 0.46262823644357587 0.33756717147044446
0.05874074300027132 0.4587200781631655 0.3131411822178798
0.05894435100026385 0.4606741573033708 0.2740595994137762
0.05959841599997162 0.44699560332193444 0.11284807034684907
0.059991151000303944 0.4460185637518319 0.10796287249633618
0.06022146300028908 0.4460185637518319 0.12066438690766979
0.0604212930002177 0.4479726428920372 0.14411333659013192
0.060613643000124284 0.4509037616023448 0.17244748412310695
0.060802066000178456 0.4479726428920372 0.19785051294577438
0.06098893400030647 0.45188080117244755 0.2183683439179287
0.06117680100032885 0.45481191988275516 0.23888617489008301
0.06136411400029829 0.4528578407425501 0.2584269662921348
0.06155063000005612 0.4528578407425501 0.2789447972642891
0.061742794000110734 0.4557889594528579 0.293600390815828
0.06192975400017531 0.4538348803126526 0.3111871030776747
0.062116325000260986 0.4538348803126526 0.31900341963849543
0.06230302700032553 0.4538348803126526 0.3287738153395212
0.0624900420002632 0.4538348803126526 0.3365901319003419
0.06267642900002102 0.4509037616023448 0.3434294088910601
0.06286399999999048 0.4528578407425501 0.34929164631167553
0.06307833100026983 0.4528578407425501 0.3639472398632144
0.06326905000014449 0.4557889594528579 0.3688324377137273
0.06345843600001899 0.46262823644357587 0.37957987298485585
0.0636460820001048 0.46458231558378116 0.38935026868588185
0.06383432000029643 0.46262823644357587 0.40205178309721545
0.06402081800024462 0.4606741573033708 0.4176844162188569
0.06421433300010904 0.4606741573033708 0.42940889106008795
0.06446805199993833 0.4587200781631655 0.43722520762090866
0.06488378700032627 0.4587200781631655 0.43917928676111373
0.06509002500024508 0.4538348803126526 0.4479726428920372
0.06528035600013027 0.45481191988275516 0.4665363947239862
0.06546846400033246 0.4538348803126526 0.48705422569614076
0.06565681300025972 0.4528578407425501 0.5036638983878847
0.06584612599999673 0.4538348803126526 0.5251587689301416
0.06605719700019108 0.4538348803126526 0.5476306790425012
0.06625993500028926 0.45188080117244755 0.5574010747435272
0.06648519100008343 0.4538348803126526 0.5642403517342451
0.06670844700011003 0.4509037616023448 0.5642403517342451
0.06723025500014046 0.44894968246213973 0.5779189057156815
0.06818238999994719 0.4479726428920372 0.5730337078651686
0.06846758900019267 0.45188080117244755 0.567171470444553
0.06869264200031466 0.4479726428920372 0.5603321934538348
0.0689440830001331 0.44699560332193444 0.5349291646311676
0.06951796400016974 0.4538348803126526 0.5271128480703469
0.06976829399991402 0.4538348803126526 0.5202735710796287
0.07000443800006906 0.4509037616023448 0.522227650219834
0.07020134300000791 0.45188080117244755 0.5232046897899365
0.07039380300011544 0.44992672203224227 0.524181729360039
0.0705829490002543 0.44894968246213973 0.522227650219834
0.07077803900028812 0.44699560332193444 0.5202735710796287
0.07096809199993004 0.44699560332193444 0.5202735710796287
0.0711783300002935 0.44992672203224227 0.5212506106497312
0.07136919699996724 0.4450415241817294 0.522227650219834
0.07155691700017996 0.4430874450415241 0.5232046897899365
0.07174491400019178 0.4430874450415241 0.5310210063507572
0.07193302299992865 0.441133365901319 0.5398143624816805
0.07212137200031066 0.44406448461162684 0.5476306790425012
0.07230831400011084 0.4460185637518319 0.5515388373229115
0.07249442200009071 0.4450415241817294 0.5534929164631168
0.07268169799999669 0.4528578407425501 0.550561797752809
0.07287101000019902 0.45188080117244755 0.5486077186126037
0.07331320699995558 0.4450415241817294 0.5300439667806547
0.07356062999997448 0.44211040547142155 0.5212506106497312
0.07390905100010059 0.441133365901319 0.5183194919394236
0.07412552899995717 0.4430874450415241 0.5134342940889105
0.07432280500006527 0.441133365901319 0.5163654127992183
0.07451637600024696 0.4450415241817294 0.5085490962383976
0.0747046510000473 0.4479726428920372 0.49975574010747437
0.07489226000006965 0.44992672203224227 0.4831460674157304
0.07508096099991235 0.44894968246213973 0.457743038593063
0.07527053200010414 0.44992672203224227 0.4352711284807034
0.07545915900027467 0.45188080117244755 0.40889106008793363
0.07564654499992685 0.4509037616023448 0.3913043478260869
0.07583326500025578 0.45188080117244755 0.37469467513434296
0.07601989200020398 0.4509037616023448 0.36980947728383007
0.07620983400011028 0.4528578407425501 0.36980947728383007
0.07639705400015373 0.4528578407425501 0.376648754274548
0.07658381000010195 0.45481191988275516 0.3854421104054715
0.07677127100032521 0.4528578407425501 0.3913043478260869
0.07695900900034758 0.4528578407425501 0.39716658524670256
0.07714645100031703 0.45481191988275516 0.39716658524670256
0.0773340040000221 0.4538348803126526 0.4010747435271129
0.07752372300001298 0.4587200781631655 0.3913043478260869
0.07771596100019451 0.4587200781631655 0.38935026868588185
0.0779024590001427 0.45969711773326827 0.3805569125549584
0.07809027100029198 0.45969711773326827 0.376648754274548
0.07827697199991235 0.45969711773326827 0.376648754274548
0.07846485800018854 0.457743038593063 0.376648754274548
0.07865311500017924 0.45969711773326827 0.3737176355642404
0.07884972300007576 0.457743038593063 0.37469467513434296
0.07907231300032436 0.457743038593063 0.3737176355642404
0.07927486600010525 0.45676599902296044 0.3776257938446508
0.07946795499992731 0.4557889594528579 0.3805569125549584
0.0796581940003307 0.4557889594528579 0.3834880312652662
0.07984915399993042 0.457743038593063 0.38153395212506114
0.08003963300006944 0.457743038593063 0.376648754274548
0.08022955600017667 0.45676599902296044 0.37469467513434296
0.08041968299994551 0.4557889594528579 0.36980947728383007
0.08061092100024325 0.45481191988275516 0.3659013190034197
0.08080132600025536 0.457743038593063 0.3678553981436248
0.08099136000009821 0.46165119687347334 0.3659013190034197
0.0812958010001239 0.46262823644357587 0.3610161211529066
0.08149798300019029 0.46458231558378116 0.358085002442599
0.08169288800036156 0.46262823644357587 0.3531998045920859
0.08188551500006724 0.46165119687347334 0.3512457254518808
0.08207760499999495 0.46165119687347334 0.3502686858817783
0.08226893500022925 0.467513434294089 0.35417684416218864
0.08246056200005114 0.46262823644357587 0.3610161211529066
0.08265241100025378 0.46458231558378116 0.3707865168539326
0.08284290900019187 0.4606741573033708 0.3854421104054715
0.0830482210003538 0.4665363947239862 0.3981436248168051
0.08324132899997494 0.4587200781631655 0.4059599413776258
0.08343282700025156 0.45969711773326827 0.40986809965803617
0.08362310200027423 0.4587200781631655 0.4176844162188569
0.08381382100014889 0.4587200781631655 0.4284318514899854
0.08402859600028023 0.4557889594528579 0.441133365901319
0.0842230749999544 0.4538348803126526 0.44992672203224227
0.08441562799998792 0.4538348803126526 0.4538348803126526
0.08460645800005295 0.45481191988275516 0.45676599902296044
0.08479727100029777 0.44992672203224227 0.45676599902296044
0.08498736100000315 0.45188080117244755 0.4587200781631655
0.08517724700004692 0.45188080117244755 0.457743038593063
0.08536692899997433 0.4509037616023448 0.4538348803126526
0.08555689000013444 0.4509037616023448 0.4509037616023448
0.08574690600016766 0.44992672203224227 0.4450415241817294
0.08593814400001065 0.45188080117244755 0.4401563263312165
0.08620771400001104 0.4460185637518319 0.4333170493404983
0.08641528499993001 0.44992672203224227 0.4264777723497801
0.08660596800018538 0.44894968246213973 0.4264777723497801
0.08680272400033573 0.45676599902296044 0.4255007327796776
0.08699403600030564 0.45188080117244755 0.42745481191988266
0.08718960800024433 0.44894968246213973 0.43917928676111373
0.0873804940001719 0.4430874450415241 0.4479726428920372
0.0875768060000155 0.4430874450415241 0.4704445530043966
0.08776776600006997 0.4479726428920372 0.4782608695652173
0.0885249970001496 0.4460185637518319 0.5583781143136297
0.08886464000033811 0.44699560332193444 0.576941866145579
0.08907961900013106 0.44699560332193444 0.5925744992672204
0.08928589400011333 0.4479726428920372 0.6072300928187591
0.08947720600008324 0.44699560332193444 0.6170004885197851
0.08966405499995744 0.44699560332193444 0.6345872007816316
0.08985034900024402 0.44699560332193444 0.6590131900341964
0.09003645700022389 0.4460185637518319 0.6834391792867611
0.09022258400000283 0.4460185637518319 0.7010258915486076
0.09040865600036341 0.4479726428920372 0.7029799706888129
0.09060461600029157 0.44699560332193444 0.7137274059599414
0.09079335400019772 0.4430874450415241 0.7117733268197362
0.09098100000028353 0.4430874450415241 0.7107962872496336
0.09117177500002072 0.441133365901319 0.7078651685393258
0.09135803200024384 0.44406448461162684 0.7039570102589154
0.09154338100006498 0.4460185637518319 0.6853932584269662
0.09172967500035156 0.4430874450415241 0.6648754274548119
0.09194993100027204 0.44211040547142155 0.6297020029311187
0.0921449840002424 0.4460185637518319 0.6003908158280411
0.09233181400031754 0.44699560332193444 0.5740107474352711
0.09251736700025504 0.44894968246213973 0.5603321934538348
0.09270264299993869 0.44699560332193444 0.5427454811919883
0.09291162099998473 0.44894968246213973 0.5251587689301416
0.09310541500008185 0.44699560332193444 0.5017098192476794
0.09329844900003081 0.4450415241817294 0.486077186126038
0.09348431700027504 0.44406448461162684 0.45188080117244755
0.09366987000021254 0.44406448461162684 0.4303859306301905
0.0938556270002664 0.4430874450415241 0.42159257449926724
0.09404088300016156 0.4430874450415241 0.41963849535906195
0.09422608400018362 0.44406448461162684 0.4284318514899854
0.09441132300025856 0.4450415241817294 0.43624816805080613
0.09459661600021718 0.4450415241817294 0.4460185637518319
0.09478174300011233 0.4479726428920372 0.44406448461162684
0.09496785200008162 0.4509037616023448 0.42745481191988266
0.09515634900026271 0.45188080117244755 0.40693698094772834
0.09534255000016856 0.44894968246213973 0.38153395212506114
0.09552730700033862 0.45481191988275516 0.3512457254518808
0.09571237900036067 0.45188080117244755 0.3258426966292134
0.09589920899998106 0.4509037616023448 0.3111871030776747
0.0960853550000138 0.45188080117244755 0.3160723009281876
0.09627185199997257 0.44992672203224227 0.31900341963849543
0.09645727599991005 0.4509037616023448 0.3365901319003419
0.09664281000004848 0.44699560332193444 0.358085002442599
0.09682812200026092 0.44894968246213973 0.36980947728383007
0.09701397200024076 0.44992672203224227 0.37176355642403514
0.09719980299996678 0.4509037616023448 0.35906204201270153
0.09739000400031728 0.4538348803126526 0.3365901319003419
0.09757646400021258 0.4557889594528579 0.3131411822178798
0.09776340600001276 0.4557889594528579 0.29457743038593054
0.09794932900013009 0.45481191988275516 0.28480703468490476
0.0981340490002367 0.45188080117244755 0.28480703468490476
0.09831839800017406 0.44992672203224227 0.29262335124572547
0.0985041359999741 0.4479726428920372 0.3150952613580851
0.09868970800016541 0.44699560332193444 0.3365901319003419
0.09887492699999711 0.4509037616023448 0.3629702002931119
0.09906414700026289 0.44992672203224227 0.3903273082559844
0.09925099600013709 0.4528578407425501 0.4157303370786516
0.09943553099992641 0.44699560332193444 0.4352711284807034
0.09966687900032412 0.4528578407425501 0.43917928676111373
0.09985346900020886 0.4538348803126526 0.431362970200293
0.10003904099994543 0.4528578407425501 0.41475329750854906
0.10022427900003095 0.45481191988275516 0.3913043478260869
0.10041031400032807 0.4538348803126526 0.3688324377137273
0.1005954219999694 0.457743038593063 0.34733756717147046
0.10078151200013963 0.457743038593063 0.32681973619931615
0.10096743600024638 0.45969711773326827 0.31704934049829014
0.10115302600024734 0.45969711773326827 0.31216414264777725
0.10133794900002613 0.46165119687347334 0.3238886174890083
0.10152296500018565 0.4636052760136786 0.3277967757694187
0.10170937000020785 0.4606741573033708 0.3356130923302394
0.10189566300005026 0.46165119687347334 0.3424523693209576
0.10208093900018866 0.4606741573033708 0.34929164631167553
0.10226699200029543 0.4606741573033708 0.3502686858817783
0.10245228500025405 0.46165119687347334 0.34636052760136793
0.10263793100011753 0.46165119687347334 0.35222276502198335
0.10282326200012903 0.4606741573033708 0.35417684416218864
0.10305927700028406 0.4587200781631655 0.35710796287249624
0.1032474970002113 0.46165119687347334 0.3629702002931119
0.10343303100034973 0.45969711773326827 0.358085002442599
0.10361862100035069 0.45676599902296044 0.36199316072300936
0.10380430400027763 0.4606741573033708 0.3659013190034197
0.10398920900024677 0.4606741573033708 0.3756717147044455
0.10417592800013153 0.46165119687347334 0.3854421104054715
0.10436094400029106 0.4528578407425501 0.39716658524670256
0.10454794199995376 0.45481191988275516 0.4176844162188569
0.10476482700005363 0.4538348803126526 0.42452369320957506
0.10495063999997001 0.4528578407425501 0.44211040547142155
0.10513678500001333 0.45188080117244755 0.44992672203224227
0.10532213400028922 0.4509037616023448 0.4665363947239862
0.10550740999997288 0.4509037616023448 0.48216902784562765
0.10569237000026988 0.45188080117244755 0.49193942354665365
0.10587832999999591 0.4509037616023448 0.5056179775280898
0.10606327200002852 0.4528578407425501 0.512457254518808
0.10624858500023038 0.44992672203224227 0.5202735710796287
0.10643461900008333 0.45188080117244755 0.5153883732291158
0.10661907900021106 0.45188080117244755 0.5192965315095261
0.10680420700009563 0.4538348803126526 0.522227650219834
0.10699020400033987 0.44992672203224227 0.5232046897899365
0.10717762700005551 0.44894968246213973 0.5300439667806547
0.1073934390001341 0.4460185637518319 0.5437225207620908
0.10758493599996655 0.44406448461162684 0.5515388373229115
0.10777134099998875 0.4479726428920372 0.5525158768930141
0.10795928300012747 0.4450415241817294 0.5622862725940401
0.10814496600005441 0.44406448461162684 0.5642403517342451
0.10832996299996012 0.44992672203224227 0.5720566682950659
0.10851449800020418 0.44894968246213973 0.5730337078651686
0.10869929099999354 0.4509037616023448 0.5681485100146555
0.10888471499993102 0.45188080117244755 0.5583781143136297
0.10907237900028122 0.45188080117244755 0.5554469956033219
0.10925778399996489 0.4528578407425501 0.5525158768930141
0.10944281799993405 0.4528578407425501 0.550561797752809
0.10962839000012536 0.4557889594528579 0.5564240351734244
0.109815368999989 0.45676599902296044 0.5642403517342451
0.11000099600005342 0.4538348803126526 0.5740107474352711
0.11018586299996969 0.4528578407425501 0.5828041035661944
0.11037145299997064 0.45188080117244755 0.58866634098681
0.11055639500000325 0.4479726428920372 0.5945285784074255
0.11076715200033505 0.44894968246213973 0.595505617977528
0.110953186000188 0.4460185637518319 0.5945285784074255
0.11114914600011616 0.4430874450415241 0.5857352222765022
0.1113346070001171 0.44211040547142155 0.5681485100146555
0.11152214100002311 0.44406448461162684 0.5456765999022961
0.11170817600032024 0.44211040547142155 0.5212506106497312
0.11189367299994046 0.4401563263312165 0.5007327796775769
0.11208043000033285 0.4450415241817294 0.4811919882755251
0.11226513100018565 0.4352711284807034 0.467513434294089
0.11245125799996458 0.43917928676111373 0.45481191988275516
0.11263760700012426 0.4401563263312165 0.4450415241817294
0.11282317900031558 0.4450415241817294 0.43624816805080613
0.11300871299999926 0.4352711284807034 0.43429408891060084
0.11319498800003203 0.4352711284807034 0.4333170493404983
0.11338035600010699 0.43429408891060084 0.4382022471910112
0.11356533500020305 0.43917928676111373 0.44992672203224227
0.11375096200026746 0.43429408891060084 0.45969711773326827
0.11393727400036369 0.4382022471910112 0.4665363947239862
0.11412201300026936 0.4401563263312165 0.4763067904250122
0.11430799200024921 0.441133365901319 0.4929164631167562
0.11449404500035598 0.43917928676111373 0.5056179775280898
0.11467935700011367 0.4401563263312165 0.512457254518808
0.11486515000024156 0.4450415241817294 0.5114802149487054
0.11505742600002122 0.4460185637518319 0.5144113336590133
0.11524553400022342 0.4479726428920372 0.5065950170981925
0.11544160500034195 0.4460185637518319 0.5065950170981925
0.11562952900021628 0.4460185637518319 0.49877870053737183
0.1158160630002385 0.4450415241817294 0.495847581827064
0.11600180100003854 0.44406448461162684 0.48412310698583294
0.11618783600033566 0.4430874450415241 0.47923790913532005
0.11637322200022027 0.44406448461162684 0.4704445530043966
0.11655853399997795 0.4430874450415241 0.4606741573033708
0.116743606 0.44211040547142155 0.46262823644357587
0.11693397399994865 0.4401563263312165 0.44894968246213973
0.11711878599999181 0.44699560332193444 0.4352711284807034
0.1173036720001619 0.4450415241817294 0.41963849535906195
0.11749620699993102 0.45188080117244755 0.3981436248168051
0.11768188900032328 0.45481191988275516 0.3756717147044455
0.11786657199991168 0.4538348803126526 0.36003908158280407
0.11805234700022993 0.4606741573033708 0.3424523693209576
0.11823706700033654 0.4538348803126526 0.34440644846116264
0.11842197200030569 0.45969711773326827 0.33463605276013686
0.11860730200032776 0.4587200781631655 0.3307278944797265
0.11879278100013835 0.45969711773326827 0.3365901319003419
0.11897766800029785 0.46458231558378116 0.3404982901807523
0.11916427599999224 0.45969711773326827 0.35222276502198335
0.11934916200016232 0.4606741573033708 0.3629702002931119
0.11953566000011051 0.46165119687347334 0.37176355642403514
0.11972139799991055 0.4587200781631655 0.37274059599413767
0.1199084140002924 0.4587200781631655 0.37176355642403514
0.12009370800024044 0.46165119687347334 0.3678553981436248
0.12027905700006158 0.46165119687347334 0.35710796287249624
0.12046449900026346 0.46165119687347334 0.3531998045920859
0.1206502370000635 0.46165119687347334 0.3365901319003419
0.12083490100030758 0.46262823644357587 0.32193453834880303
0.12102038000011817 0.46458231558378116 0.30727894479726436
0.12120734000018274 0.46165119687347334 0.30727894479726436
0.1214196340001763 0.4636052760136786 0.3111871030776747
0.12160746500012465 0.46165119687347334 0.3209574987787005
0.12179264700034764 0.4636052760136786 0.3365901319003419
0.12197818200002075 0.46165119687347334 0.3551538837322912
0.12216467899997951 0.46262823644357587 0.3756717147044455
0.12235008400011793 0.46262823644357587 0.3932584269662922
0.12253576600005545 0.4636052760136786 0.41475329750854906
0.12273281900024813 0.46262823644357587 0.43624816805080613
0.12292766800010213 0.46165119687347334 0.45188080117244755
0.1231338880002113 0.46262823644357587 0.4606741573033708
0.12332053299996915 0.4636052760136786 0.4684904738641915
0.12354297499996392 0.457743038593063 0.4655593551538837
0.12373323100018752 0.45969711773326827 0.46165119687347334
0.1239215810001042 0.45969711773326827 0.44992672203224227
0.12410726300004171 0.46262823644357587 0.441133365901319
0.1242933900002754 0.4587200781631655 0.4137762579384465
0.12447905399994852 0.4557889594528579 0.39716658524670256
0.12466627399999197 0.457743038593063 0.3834880312652662
0.12485286400033146 0.45969711773326827 0.3786028334147533
0.1250385470002584 0.45481191988275516 0.3737176355642404
0.12522487700016427 0.4528578407425501 0.38641914997557403
0.1254106530000172 0.45676599902296044 0.40205178309721545
0.12559642800033544 0.4587200781631655 0.41670737664875435
0.12578112900018823 0.4606741573033708 0.43722520762090866
0.1259657559999141 0.4655593551538837 0.4382022471910112
0.1261504940002851 0.4636052760136786 0.4557889594528579
0.12633476900009555 0.4665363947239862 0.4655593551538837
0.12651937800001178 0.46262823644357587 0.47923790913532005
0.12670470900002329 0.46458231558378116 0.49877870053737183
0.1268928910003524 0.4655593551538837 0.5476306790425012
0.12735055200028 0.46165119687347334 0.5749877870053737
0.12755560400000832 0.45969711773326827 0.6365412799218368
0.12796309900022607 0.457743038593063 0.659990229604299
0.12818385500031582 0.4528578407425501 0.6678065461651197
0.1284141850001106 0.45188080117244755 0.5437225207620908
0.1296007800001462 0.4382022471910112 0.49975574010747437
0.1297969249999369 0.4303859306301905 0.4606741573033708
0.12998821900009716 0.4323400097703958 0.42940889106008795
0.13017823500013037 0.42940889106008795 0.4049829018075233
0.13036734300021635 0.4284318514899854 0.37274059599413767
0.1305562289999216 0.42452369320957506 0.36980947728383007
0.13075881900022068 0.4264777723497801 0.3786028334147533
0.13096972400035156 0.431362970200293 0.40693698094772834
0.13117547999991075 0.42940889106008795 0.43722520762090866
0.13137007000023004 0.4323400097703958 0.4733756717147044
0.13156201200035866 0.43429408891060084 0.5075720566682951
0.1317551390002336 0.4352711284807034 0.5359062042012701
0.13194708100036223 0.43722520762090866 0.5515388373229115
0.13213898499998322 0.43624816805080613 0.5613092330239375
0.13233040900013293 0.43917928676111373 0.5681485100146555
0.13252185000010286 0.441133365901319 0.5701025891548608
0.1327127740000833 0.4430874450415241 0.5730337078651686
0.13290391900000031 0.44406448461162684 0.5701025891548608
0.13309452800012878 0.4430874450415241 0.5652173913043479
0.13328734000015174 0.4460185637518319 0.5613092330239375
0.13347926300002655 0.4401563263312165 0.5554469956033219
0.13367044599999645 0.44406448461162684 0.550561797752809
0.1338620169999558 0.44406448461162684 0.5437225207620908
0.134053385000243 0.4430874450415241 0.5271128480703469
0.13424391900025512 0.44406448461162684 0.5026868588177822
0.13443512000003466 0.4460185637518319 0.4733756717147044
0.13462593200029005 0.4509037616023448 0.4323400097703958
0.13481655900022815 0.4460185637518319 0.38739618954567656
0.13500750100001824 0.4479726428920372 0.358085002442599
0.13521349800021198 0.44992672203224227 0.34440644846116264
0.13540171800013923 0.4528578407425501 0.3434294088910601
0.13558925200004524 0.4509037616023448 0.35222276502198335
0.13577741600010995 0.45188080117244755 0.36492427943331696
0.13596487700033322 0.4509037616023448 0.3786028334147533
0.13615168900014396 0.44992672203224227 0.3903273082559844
0.13633861200014508 0.44699560332193444 0.40889106008793363
0.1365258509999876 0.45481191988275516 0.4186614557889594
0.13671806999991531 0.44992672203224227 0.4333170493404983
0.1369061230002444 0.4528578407425501 0.441133365901319
0.13709428700030912 0.45188080117244755 0.43429408891060084
0.13728148800009876 0.45676599902296044 0.4255007327796776
0.13746876300001531 0.457743038593063 0.4079140205178309
0.13765568700000586 0.4587200781631655 0.3952125061064973
0.1378435360002186 0.45969711773326827 0.3805569125549584
0.1380308299999342 0.45969711773326827 0.37274059599413767
0.1382173460001468 0.45676599902296044 0.3776257938446508
0.13840415799995753 0.45969711773326827 0.3707865168539326
0.13859084000023358 0.46262823644357587 0.37176355642403514
0.1387780970003405 0.46262823644357587 0.3688324377137273
0.1389647060000243 0.4587200781631655 0.3776257938446508
0.1391588330002378 0.4587200781631655 0.38446507083536874
0.13935047800032407 0.45969711773326827 0.37957987298485585
0.13954136400025163 0.45676599902296044 0.3776257938446508
0.13973191700006282 0.457743038593063 0.3756717147044455
0.13992239600020184 0.4587200781631655 0.3756717147044455
0.14011272700008703 0.45676599902296044 0.36199316072300936
0.14030311300030007 0.4606741573033708 0.36003908158280407
0.1404934070001218 0.457743038593063 0.3561309233023937
0.14068421899992245 0.4538348803126526 0.3512457254518808
0.1408750680002413 0.46262823644357587 0.3404982901807523
0.14106512100033797 0.46262823644357587 0.33463605276013686
0.1412548590001279 0.46165119687347334 0.32681973619931615
0.14144506000002366 0.46458231558378116 0.32975085490962375
0.14163565000035305 0.4665363947239862 0.3385442110405472
0.14182564700013245 0.46165119687347334 0.3414753297508548
0.14201520000005985 0.4636052760136786 0.3453834880312652
0.1422050500000296 0.4665363947239862 0.3551538837322912
0.1423955099999148 0.46946751343429405 0.3610161211529066
0.14258646999996927 0.4636052760136786 0.3659013190034197
0.1427764120003303 0.4636052760136786 0.37469467513434296
0.14296848399999362 0.4636052760136786 0.38153395212506114
0.1431588330001432 0.46262823644357587 0.3883732291157791
0.14334871900018697 0.4636052760136786 0.4010747435271129
0.14353867900035766 0.4636052760136786 0.4186614557889594
0.14372839900033796 0.4606741573033708 0.4264777723497801
0.14391839600011735 0.4636052760136786 0.44699560332193444
0.14410839400034092 0.46165119687347334 0.46458231558378116
0.14429827999992995 0.45969711773326827 0.47728382999511476
0.14448733300014283 0.457743038593063 0.4938935026868587
0.14467684900000677 0.4528578407425501 0.5046409379579873
0.14486682799997652 0.45481191988275516 0.5173424523693209
0.1450576400002319 0.4528578407425501 0.5183194919394236
0.14524852600015947 0.45481191988275516 0.5153883732291158
0.14543948600021395 0.4528578407425501 0.5173424523693209
0.1456291690001308 0.4528578407425501 0.5192965315095261
0.1458183330000793 0.45188080117244755 0.5290669272105519
0.1460081270001865 0.4538348803126526 0.5378602833414754
0.14619805000029373 0.4538348803126526 0.540791402051783
0.14638806600032694 0.45188080117244755 0.533952125061065
0.14657784100018034 0.4538348803126526 0.5163654127992183
0.14676737500030868 0.45188080117244755 0.4938935026868587
0.14695709500028897 0.45481191988275516 0.4704445530043966
0.14714685200033273 0.4538348803126526 0.4450415241817294
0.14733673799992175 0.44992672203224227 0.4264777723497801
0.14752649399997608 0.4460185637518319 0.41963849535906195
0.14771608399996694 0.4450415241817294 0.42452369320957506
0.1479051559999789 0.4460185637518319 0.441133365901319
0.14809491300002264 0.4460185637518319 0.457743038593063
0.14828366900019319 0.44894968246213973 0.47728382999511476
0.1484726110002157 0.4450415241817294 0.4948705422569615
0.14866197900028055 0.44406448461162684 0.5085490962383976
0.14885051300007035 0.4460185637518319 0.5183194919394236
0.14903991800019867 0.44699560332193444 0.5319980459208598
0.14922939699999915 0.44699560332193444 0.5368832437713726
0.1494183019999582 0.4460185637518319 0.5349291646311676
0.14960805800001253 0.45188080117244755 0.5349291646311676
0.1497976670002572 0.45188080117244755 0.533952125061065
0.14998742300031154 0.44894968246213973 0.5349291646311676
0.15017679099992165 0.44699560332193444 0.5349291646311676
0.15036754800030394 0.4479726428920372 0.5349291646311676
0.1505576560002737 0.44406448461162684 0.5398143624816805
0.1507470420001482 0.44699560332193444 0.5398143624816805
0.15094237300036184 0.4450415241817294 0.540791402051783
0.15114318499990986 0.44211040547142155 0.540791402051783
0.15133338600026036 0.4450415241817294 0.5349291646311676
0.15152425399992353 0.44406448461162684 0.5310210063507572
0.15171558500014726 0.44211040547142155 0.5232046897899365
0.1519054519999372 0.4430874450415241 0.522227650219834
0.15209578300027715 0.44211040547142155 0.524181729360039
0.15228481700023622 0.4430874450415241 0.5329750854909623
0.15247474100033287 0.4450415241817294 0.540791402051783
0.1526644790001228 0.44406448461162684 0.5466536394723986
0.15285451299996566 0.4450415241817294 0.5456765999022961
0.1530446770002527 0.44211040547142155 0.5446995603321934
0.1532347860002119 0.43722520762090866 0.5417684416218858
0.15342611599999145 0.441133365901319 0.5359062042012701
0.1536168360003103 0.43917928676111373 0.5300439667806547
0.15380662999996275 0.4382022471910112 0.5202735710796287
0.1539965720003238 0.441133365901319 0.512457254518808
0.15418632799992338 0.44406448461162684 0.5046409379579873
0.1543763439999566 0.4460185637518319 0.5007327796775769
0.15456730400001106 0.4479726428920372 0.49877870053737183
0.15475741299997026 0.44894968246213973 0.4929164631167562
0.1549470210002255 0.44992672203224227 0.48412310698583294
0.15513874099997338 0.45481191988275516 0.4753297508549097
0.15532984900028168 0.4528578407425501 0.4704445530043966
0.15551982800025144 0.4479726428920372 0.46262823644357587
0.15571012200007317 0.4528578407425501 0.4606741573033708
0.15590030400016985 0.4538348803126526 0.4587200781631655
0.15609052400031942 0.4509037616023448 0.4665363947239862
0.15628092900033153 0.44992672203224227 0.4704445530043966
0.15647111099997346 0.44894968246213973 0.46946751343429405
0.15666079400034505 0.4509037616023448 0.4753297508549097
0.15685086500025136 0.44894968246213973 0.47435271128480694
0.15704047400004129 0.4528578407425501 0.4636052760136786
0.1572298790001696 0.45188080117244755 0.46165119687347334
0.15741946900016046 0.4538348803126526 0.4401563263312165
0.15760983600011969 0.45188080117244755 0.4235466536394723
0.15779981500008944 0.4587200781631655 0.4079140205178309
0.15798973800019667 0.457743038593063 0.3913043478260869
0.1581811060000291 0.4528578407425501 0.37469467513434296
0.1583784550002747 0.4528578407425501 0.3639472398632144
0.15857047100007549 0.4538348803126526 0.3502686858817783
0.15876137600025686 0.45676599902296044 0.3385442110405472
0.1589540580002904 0.45676599902296044 0.33170493404982904
0.15914587099996425 0.4528578407425501 0.3238886174890083
0.15933566400008203 0.4528578407425501 0.3238886174890083
0.1595254950002527 0.4538348803126526 0.3238886174890083
0.15971515899991573 0.4528578407425501 0.3209574987787005
0.15990448999991713 0.45676599902296044 0.31704934049829014
0.160093765000056 0.457743038593063 0.3180263800683927
0.1602837069999623 0.4557889594528579 0.31704934049829014
0.16047385199999553 0.45481191988275516 0.3150952613580851
0.16066388700028256 0.45676599902296044 0.31900341963849543
0.16085393999992448 0.457743038593063 0.3160723009281876
0.16104417800033843 0.46262823644357587 0.31216414264777725
0.16123384200000146 0.4606741573033708 0.3160723009281876
0.1614242830000876 0.45969711773326827 0.31998045920859797
0.16161418799993044 0.4655593551538837 0.32681973619931615
0.1618055000003551 0.45969711773326827 0.3336590131900341
0.16199901600020894 0.457743038593063 0.33952125061064975
0.16218905100004122 0.4606741573033708 0.3502686858817783
0.16237982600023315 0.46262823644357587 0.36199316072300936
0.16256999000006545 0.45676599902296044 0.3737176355642404
0.16275956100025724 0.4636052760136786 0.3854421104054715
0.16294920700011062 0.4636052760136786 0.39912066438690763
0.1631408339999325 0.46458231558378116 0.41182217879824123
0.1633354790001249 0.46262823644357587 0.42940889106008795
0.16354003200012812 0.4636052760136786 0.43624816805080613
0.1637448440001208 0.467513434294089 0.44894968246213973
0.16394382299995414 0.4665363947239862 0.4557889594528579
0.164134450000347 0.46262823644357587 0.4636052760136786
0.16432502099996782 0.46165119687347334 0.47239863214460187
0.16451488900020195 0.467513434294089 0.4782608695652173
0.16470610800024588 0.4655593551538837 0.486077186126038
0.16489616100034254 0.4655593551538837 0.48705422569614076
0.16508678800028065 0.46262823644357587 0.4851001465559355
0.16527708200010238 0.4636052760136786 0.4811919882755251
0.1654675419999876 0.4606741573033708 0.46946751343429405
0.16565761400033807 0.457743038593063 0.4557889594528579
0.16584779599998 0.4557889594528579 0.44894968246213973
0.16603764599994975 0.4557889594528579 0.4430874450415241
0.1662281610001628 0.4538348803126526 0.441133365901319
0.16641869600016435 0.45969711773326827 0.4460185637518319
0.16660861900027157 0.45969711773326827 0.4538348803126526
0.16679811600033645 0.4606741573033708 0.46458231558378116
0.16698766900026385 0.45676599902296044 0.47435271128480694
0.16718190700021296 0.4538348803126526 0.4831460674157304
0.16737229399996068 0.45188080117244755 0.4929164631167562
0.16756201299995155 0.4479726428920372 0.5007327796775769
0.16775130700034424 0.4460185637518319 0.5095261358085001
0.16794041499997547 0.4450415241817294 0.5144113336590133
0.1681298390003576 0.44211040547142155 0.5163654127992183
0.1683192250002321 0.44211040547142155 0.5173424523693209
0.1685078710002017 0.44406448461162684 0.5271128480703469
0.16869699800008675 0.441133365901319 0.5251587689301416
0.16888645800008817 0.43917928676111373 0.5261358085002443
0.16907956600016405 0.4382022471910112 0.5251587689301416
0.16926878599997508 0.43917928676111373 0.5261358085002443
0.16945839400023033 0.43917928676111373 0.5290669272105519
0.1696487439999146 0.4382022471910112 0.5300439667806547
0.16983824099997946 0.4450415241817294 0.5398143624816805
0.17002747900005488 0.441133365901319 0.5417684416218858
0.17021669900032066 0.4382022471910112 0.5456765999022961
0.1704059740000048 0.441133365901319 0.5378602833414754
0.17059586000004856 0.4382022471910112 0.5319980459208598
0.17078620900019814 0.441133365901319 0.5202735710796287
0.17097696600012569 0.4352711284807034 0.5183194919394236
0.17116716700002144 0.43722520762090866 0.5144113336590133
0.17135414600033982 0.43722520762090866 0.5153883732291158
0.1715410140000131 0.43917928676111373 0.522227650219834
0.17172823300006712 0.43624816805080613 0.5280898876404494
0.17191487900026914 0.4450415241817294 0.5368832437713726
0.17210167300027024 0.441133365901319 0.5446995603321934
0.17228818900002807 0.4401563263312165 0.5515388373229115
0.17247522300021956 0.4382022471910112 0.5554469956033219
0.1726622200003476 0.4401563263312165 0.5593551538837322
0.17284940300032758 0.44406448461162684 0.5593551538837322
0.17303625200020178 0.44211040547142155 0.5564240351734244
0.17322215700005472 0.4450415241817294 0.5574010747435272
0.1734092290002991 0.4450415241817294 0.5574010747435272
0.17359602200031077 0.44406448461162684 0.5574010747435272
0.17378372300026967 0.44406448461162684 0.550561797752809
0.173971425000218 0.441133365901319 0.5446995603321934
0.17415729200001806 0.44406448461162684 0.5319980459208598
0.17434471600017787 0.44211040547142155 0.5192965315095261
0.17453556500004197 0.4430874450415241 0.5026868588177822
0.17472389600015958 0.4450415241817294 0.48998534440644836
0.17491231900021376 0.4450415241817294 0.4733756717147044
0.17512329700002738 0.44894968246213973 0.4587200781631655
0.17531516500002908 0.44894968246213973 0.44699560332193444
0.17550475500001994 0.44894968246213973 0.44211040547142155
0.17569438200007426 0.44894968246213973 0.43917928676111373
0.17588449100003345 0.44894968246213973 0.43722520762090866
0.17607424700008778 0.44992672203224227 0.4450415241817294
0.1762638740001421 0.44992672203224227 0.4479726428920372
0.17645333500013294 0.44894968246213973 0.45969711773326827
0.17664377600021908 0.44699560332193444 0.46458231558378116
0.17683295899996665 0.4460185637518319 0.4606741573033708
0.17702260500027478 0.44992672203224227 0.46262823644357587
0.17721182400009639 0.4509037616023448 0.4655593551538837
0.17740226600017195 0.45481191988275516 0.4636052760136786
0.17759148599998298 0.4557889594528579 0.4704445530043966
0.1777843350000694 0.45676599902296044 0.4782608695652173
0.17798183200011408 0.4587200781631655 0.48705422569614076
0.1781716810000944 0.4606741573033708 0.49682462139716654
0.17836177100025452 0.4606741573033708 0.5007327796775769
0.1785525459999917 0.46165119687347334 0.5056179775280898
0.1787422840002364 0.4606741573033708 0.5085490962383976
0.17893233700033306 0.45969711773326827 0.5065950170981925
0.17913346400018781 0.46262823644357587 0.5017098192476794
0.17932377600027394 0.46165119687347334 0.486077186126038
0.1795137369999793 0.4557889594528579 0.4655593551538837
0.1797039930002029 0.45676599902296044 0.41963849535906195
0.17989300900035232 0.4538348803126526 0.36199316072300936
0.18008247000034316 0.4528578407425501 0.29750854909623836
0.1802716520001013 0.44992672203224227 0.2330239374694676
0.18046103799997582 0.4509037616023448 0.1861260381045433
0.18065033199991376 0.44992672203224227 0.16267708842208117
0.18084040400026424 0.4528578407425501 0.146067415730337
0.18102923400010695 0.45969711773326827 0.14215925744992663
0.1812189910001507 0.4528578407425501 0.14509037616023446
0.18140778499991939 0.45481191988275516 0.16170004885197842
0.18159739300017463 0.4528578407425501 0.18417195896433802
0.1817885010000282 0.4538348803126526 0.21446018563751834
0.18197835099999793 0.45481191988275516 0.2408402540302883
0.18228673500016157 0.45481191988275516 0.28480703468490476
0.1825682130001951 0.4557889594528579 0.30727894479726436
0.18293726299998525 0.45481191988275516 0.29262335124572547
0.18315748300028645 0.4557889594528579 0.22813873961895448
0.18383888000016668 0.45676599902296044 0.22813873961895448
0.1840611370002989 0.4528578407425501 0.24670249145090373
0.184275319000335 0.4557889594528579 0.31900341963849543
0.1847409609999886 0.4528578407425501 0.3610161211529066
0.18494047600006525 0.4557889594528579 0.3952125061064973
0.18513310300022567 0.4557889594528579 0.42745481191988266
0.18532454500018503 0.45188080117244755 0.4509037616023448
0.18551539400004913 0.45188080117244755 0.4753297508549097
0.18570650300034686 0.4557889594528579 0.5026868588177822
0.1858974820002004 0.4557889594528579 0.5085490962383976
0.18608842300000106 0.4636052760136786 0.5192965315095261
0.18628045800005566 0.4587200781631655 0.533952125061065
0.18647090000013122 0.45969711773326827 0.5398143624816805
0.1866619340003126 0.45969711773326827 0.5446995603321934
0.18685198699995453 0.4636052760136786 0.5515388373229115
0.18704913200008377 0.4557889594528579 0.5456765999022961
0.18763588299998446 0.4460185637518319 0.5446995603321934
0.18783562099997653 0.4460185637518319 0.550561797752809
0.18802689700032715 0.44992672203224227 0.5437225207620908
0.188217024000096 0.4479726428920372 0.5495847581827065
0.18840700200007632 0.44699560332193444 0.5593551538837322
0.18859701800010953 0.4460185637518319 0.567171470444553
0.1887864420000369 0.4450415241817294 0.5720566682950659
0.1889766980002605 0.4557889594528579 0.5749877870053737
0.18916613999999754 0.4509037616023448 0.5730337078651686
0.1893577109999569 0.45188080117244755 0.5661944308744504
0.1895470419999583 0.4509037616023448 0.5574010747435272
0.18973657700007607 0.4479726428920372 0.5456765999022961
0.1900293319999946 0.44699560332193444 0.5310210063507572
0.19024940300005255 0.4430874450415241 0.5202735710796287
0.1905211580001378 0.4479726428920372 0.5144113336590133
0.19071723000024576 0.44406448461162684 0.5095261358085001
0.19090898600006767 0.44699560332193444 0.5153883732291158
0.1911376680000103 0.44699560332193444 0.5173424523693209
0.19133044299996982 0.4479726428920372 0.524181729360039
0.1915212930002781 0.4460185637518319 0.5368832437713726
0.19171143800031132 0.44699560332193444 0.5486077186126037
0.19190262100028121 0.4509037616023448 0.5574010747435272
0.19209335899995494 0.44992672203224227 0.567171470444553
0.1922863380000308 0.4430874450415241 0.5828041035661944
0.19247653899992656 0.441133365901319 0.5906204201270151
0.19266620300004433 0.44211040547142155 0.5994137762579383
0.19285633000026792 0.44211040547142155 0.6023448949682462
0.19304656800022713 0.4430874450415241 0.6160234489496825
0.19323647300006996 0.4430874450415241 0.6160234489496825
0.1934266180001032 0.43917928676111373 0.6199316072300929
0.1936163380000835 0.441133365901319 0.6121152906692722
0.19380611299993689 0.4382022471910112 0.5984367366878358
0.19399585100018157 0.4460185637518319 0.5720566682950659
0.19418514500011952 0.44406448461162684 0.5456765999022961
0.19437477200017383 0.4450415241817294 0.5163654127992183
0.19456406500012235 0.4460185637518319 0.48900830483634583
0.1947541370000181 0.4460185637518319 0.4655593551538837
0.19494411599998784 0.44894968246213973 0.4460185637518319
0.1951354830002856 0.44699560332193444 0.4352711284807034
0.1953258880002977 0.44894968246213973 0.43429408891060084
0.19551596000019345 0.4479726428920372 0.4382022471910112
0.19570556799999395 0.44699560332193444 0.4450415241817294
0.19589519500004826 0.4460185637518319 0.44894968246213973
0.19608460000017658 0.44992672203224227 0.45969711773326827
0.19627459699995597 0.44894968246213973 0.46262823644357587
0.19646494600010556 0.4460185637518319 0.46946751343429405
0.19665459199995894 0.44406448461162684 0.45676599902296044
0.19684453400031998 0.44699560332193444 0.4528578407425501
0.19703410500005702 0.4479726428920372 0.4479726428920372
0.19722387999991042 0.4528578407425501 0.4430874450415241
0.19741300700025022 0.4509037616023448 0.431362970200293
0.19760361599992393 0.45676599902296044 0.41475329750854906
0.19779276100007337 0.457743038593063 0.4049829018075233
0.19798257399997965 0.45676599902296044 0.3913043478260869
0.19817223800009742 0.45481191988275516 0.376648754274548
0.1983619570000883 0.457743038593063 0.3561309233023937
0.19855154700007915 0.457743038593063 0.33170493404982904
0.19874197000035565 0.45676599902296044 0.31216414264777725
0.19893200500018793 0.4587200781631655 0.293600390815828
0.19913679799992678 0.45188080117244755 0.2789447972642891
0.19932701800007635 0.4509037616023448 0.2740595994137762
0.19951647800007777 0.4479726428920372 0.2730825598436737
0.1997063460003119 0.4538348803126526 0.28187591597459694
0.19989587999998548 0.45188080117244755 0.29653150952613583
0.20008539600030417 0.44992672203224227 0.3150952613580851
0.2002760790001048 0.45481191988275516 0.3336590131900341
0.2004652979999264 0.4528578407425501 0.3512457254518808
0.2006552770003509 0.4557889594528579 0.37274059599413767
0.20084512600033122 0.45676599902296044 0.38641914997557403
0.20103456800006825 0.4557889594528579 0.39716658524670256
0.201224103000186 0.457743038593063 0.4079140205178309
0.2014138780000394 0.45969711773326827 0.4108451392281387
0.20160330099997736 0.46262823644357587 0.4176844162188569
0.2017930020001586 0.457743038593063 0.4108451392281387
0.20198227700029747 0.4557889594528579 0.3952125061064973
0.20217186700028833 0.457743038593063 0.3786028334147533
0.20236038300026848 0.4587200781631655 0.35906204201270153
0.20254973200007953 0.4606741573033708 0.3404982901807523
0.20273950799992235 0.457743038593063 0.3307278944797265
0.20292904200005069 0.4587200781631655 0.33268197361993157
0.2031270760003281 0.4606741573033708 0.34733756717147046
0.20332086999997045 0.457743038593063 0.3629702002931119
0.20351114499999312 0.457743038593063 0.38153395212506114
0.20370106800010035 0.4636052760136786 0.39912066438690763
0.20389156600003844 0.45969711773326827 0.41670737664875435
0.20408108200035713 0.4606741573033708 0.4323400097703958
0.20427024600030563 0.4606741573033708 0.4450415241817294
0.20446009500028595 0.4606741573033708 0.45481191988275516
0.2046488149999277 0.45676599902296044 0.46946751343429405
0.20483857099998204 0.46165119687347334 0.4831460674157304
0.20502779100024782 0.4538348803126526 0.5017098192476794
0.20521675100007997 0.4587200781631655 0.49975574010747437
0.20540608200008137 0.4587200781631655 0.49975574010747437
0.20559557900014624 0.4587200781631655 0.4938935026868587
0.20578435400011585 0.457743038593063 0.48998534440644836
0.20597838899993803 0.457743038593063 0.48216902784562765
0.20620642299991232 0.45481191988275516 0.4655593551538837
0.20658191700022144 0.45481191988275516 0.457743038593063
0.20677939600000173 0.45481191988275516 0.44992672203224227
0.20697241200014105 0.45481191988275516 0.44211040547142155
0.20716670599995268 0.4538348803126526 0.44406448461162684
0.20735710999997536 0.45188080117244755 0.4479726428920372
0.20754712600000857 0.4479726428920372 0.4430874450415241
0.207736364000084 0.4479726428920372 0.4509037616023448
0.20792604700000084 0.4509037616023448 0.45188080117244755
0.2081159330000446 0.44894968246213973 0.45481191988275516
0.20830563400022584 0.4479726428920372 0.47142159257449934
0.2084956870003225 0.44699560332193444 0.486077186126038
0.20868470300001718 0.44894968246213973 0.5007327796775769
0.2088730890000079 0.4460185637518319 0.5173424523693209
0.20906260500032658 0.4460185637518319 0.5349291646311676
0.20925160300021162 0.44894968246213973 0.5515388373229115
0.20944669300024543 0.44992672203224227 0.5613092330239375
0.20964176400002543 0.4538348803126526 0.5691255495847583
0.2098316500000692 0.44699560332193444 0.5779189057156815
0.21002118500018696 0.4450415241817294 0.5828041035661944
0.21021123800028363 0.44699560332193444 0.5876893014167073
0.21040067900003123 0.44211040547142155 0.58866634098681
0.21059014000002207 0.44211040547142155 0.5867122618466047
0.21077926700036187 0.441133365901319 0.5925744992672204
0.21096969000018362 0.44211040547142155 0.58866634098681
0.21116274299993165 0.441133365901319 0.5896433805569126
0.21135225900025034 0.44211040547142155 0.5867122618466047
0.21154249700020955 0.4450415241817294 0.5867122618466047
0.21173236499998893 0.4450415241817294 0.5798729848558866
0.21192256600033943 0.43917928676111373 0.5720566682950659
0.21211848900020414 0.441133365901319 0.5632633121641426
0.21231085699992036 0.4460185637518319 0.5388373229115779
0.21250302099997498 0.44211040547142155 0.5144113336590133
0.21269494400030453 0.4450415241817294 0.49877870053737183
0.21288471900015793 0.44699560332193444 0.4929164631167562
0.21307536500034985 0.4460185637518319 0.495847581827064
0.2132665660001294 0.44211040547142155 0.5036638983878847
0.2134570260000146 0.4382022471910112 0.5134342940889105
0.21364735700035453 0.4430874450415241 0.5300439667806547
0.2138380210003561 0.44211040547142155 0.5437225207620908
0.2140279250002095 0.4430874450415241 0.5554469956033219
0.21421788599991487 0.4479726428920372 0.5661944308744504
0.21440901300002224 0.44406448461162684 0.5691255495847583
0.2145993060003093 0.4479726428920372 0.5632633121641426
0.2147896189999301 0.44992672203224227 0.5534929164631168
0.21497983800009024 0.4479726428920372 0.5398143624816805
0.21517109500018705 0.44894968246213973 0.5232046897899365
0.21536162900019917 0.44992672203224227 0.5085490962383976
0.21555112700025347 0.45188080117244755 0.48900830483634583
0.21574160499994832 0.44992672203224227 0.457743038593063
0.2159316030001719 0.4479726428920372 0.4323400097703958
0.2161223040002369 0.44699560332193444 0.3952125061064973
0.21631220900007975 0.4450415241817294 0.35710796287249624
0.21650420600008147 0.4479726428920372 0.3229115779189058
0.2166946850002205 0.4460185637518319 0.29653150952613583
0.21688455200001044 0.44699560332193444 0.27699071812408405
0.21707466099996964 0.44894968246213973 0.2681973619931608
0.2172640470002989 0.45188080117244755 0.2711284807034684
0.21745363700028975 0.4557889594528579 0.2867611138251098
0.21764426400022785 0.45969711773326827 0.3014167073766487
0.21783387300001777 0.4587200781631655 0.3229115779189058
0.2180235549999452 0.46165119687347334 0.3414753297508548
0.21821346000024278 0.4606741573033708 0.35710796287249624
0.21840303099997982 0.45969711773326827 0.3659013190034197
0.21859217700011868 0.4636052760136786 0.37176355642403514
0.218781804000173 0.4606741573033708 0.37469467513434296
0.2189722090001851 0.46262823644357587 0.3756717147044455
0.21916494700008116 0.457743038593063 0.3756717147044455
0.21935529600023074 0.45676599902296044 0.376648754274548
0.21954599700029576 0.4538348803126526 0.37176355642403514
0.2197362910001175 0.45481191988275516 0.36980947728383007
0.21992632499996034 0.457743038593063 0.36199316072300936
0.22011702600002536 0.45481191988275516 0.35906204201270153
0.22030707900012203 0.4538348803126526 0.358085002442599
0.22049663200004943 0.4538348803126526 0.35222276502198335
0.22068650000028356 0.457743038593063 0.34733756717147046
0.22087681199991493 0.4606741573033708 0.3404982901807523
0.22106684600021254 0.45969711773326827 0.33268197361993157
0.22125612200034084 0.4636052760136786 0.32681973619931615
0.2214457120003317 0.46946751343429405 0.3209574987787005
0.2216359500002909 0.4636052760136786 0.31021006350757196
0.22182698400001755 0.4665363947239862 0.30727894479726436
0.22201724100023057 0.4733756717147044 0.3004396678065462
0.22220773800017923 0.4665363947239862 0.30923302393746943
0.22239853200017023 0.4655593551538837 0.31900341963849543
0.22258849200034092 0.4636052760136786 0.33268197361993157
0.2227791929999512 0.4655593551538837 0.34929164631167553
0.2229692270002488 0.4636052760136786 0.36003908158280407
0.22316050300014467 0.46946751343429405 0.37957987298485585
0.2233507220003048 0.4655593551538837 0.3961895456765998
0.22354016400004184 0.4636052760136786 0.41963849535906195
0.2237303649999376 0.46458231558378116 0.44406448461162684
0.22391951100007645 0.4636052760136786 0.47239863214460187
0.22410898900034226 0.46165119687347334 0.47728382999511476
0.2242993570002909 0.46165119687347334 0.4811919882755251
0.22449016900009156 0.4606741573033708 0.47435271128480694
0.22468027800005075 0.4587200781631655 0.4733756717147044
0.22487031200034835 0.457743038593063 0.467513434294089
0.22505988400007482 0.457743038593063 0.4655593551538837
0.2252493810001397 0.4557889594528579 0.4684904738641915
0.225439323000046 0.4557889594528579 0.4704445530043966
0.22562909800035413 0.4528578407425501 0.46946751343429405
0.22581905800007007 0.45676599902296044 0.467513434294089
0.22600861099999747 0.4557889594528579 0.46946751343429405
0.22619742400001996 0.45481191988275516 0.457743038593063
0.22638660600023286 0.4528578407425501 0.4538348803126526
0.22657617799995933 0.4528578407425501 0.45969711773326827
0.22676510100018277 0.4528578407425501 0.4538348803126526
0.22695546900013142 0.44992672203224227 0.46458231558378116
0.22714529900031266 0.44992672203224227 0.4851001465559355
0.22733418600000732 0.4528578407425501 0.5065950170981925
0.2275243130002309 0.44406448461162684 0.5261358085002443
0.22771373600016886 0.4460185637518319 0.5476306790425012
0.22790591800003313 0.4460185637518319 0.5642403517342451
0.22810686000002534 0.4479726428920372 0.5818270639960919
0.22829785700014327 0.4460185637518319 0.5994137762579383
0.22848741000007067 0.4460185637518319 0.6121152906692722
0.22867668500020955 0.4450415241817294 0.6257938446507083
0.22886603500001002 0.4430874450415241 0.6306790425012212
0.22905571699993743 0.4450415241817294 0.6443575964826576
0.22924467800021375 0.4479726428920372 0.6492427943331704
0.22943349000024682 0.44699560332193444 0.6414264777723497
0.22962295000024824 0.4460185637518319 0.6179775280898876
0.22981255900003816 0.44699560332193444 0.6082071323888618
0.23000262999994447 0.44699560332193444 0.58866634098681
0.2301916460000939 0.44699560332193444 0.5710796287249633
0.23038066200024332 0.44699560332193444 0.5534929164631168
0.23056949300007545 0.4460185637518319 0.5476306790425012
0.2307588050002778 0.4460185637518319 0.540791402051783
0.2309540430001107 0.4450415241817294 0.5349291646311676
0.23115115100017647 0.4460185637518319 0.5319980459208598
0.23134140799993475 0.4479726428920372 0.5134342940889105
0.23153083100032745 0.4479726428920372 0.49193942354665365
0.2317204210003183 0.44699560332193444 0.47239863214460187
0.2319105850001506 0.4479726428920372 0.44894968246213973
0.232099694000226 0.4450415241817294 0.41963849535906195
0.23228876500024853 0.44406448461162684 0.39228138739618945
0.2324796329999117 0.4430874450415241 0.37274059599413767
0.2326706670000931 0.44894968246213973 0.3610161211529066
0.23286025700008395 0.4460185637518319 0.3551538837322912
0.2330504770002335 0.4460185637518319 0.35906204201270153
0.2332410849999178 0.4430874450415241 0.3659013190034197
0.23343062000003556 0.4401563263312165 0.3854421104054715
0.23362028400015333 0.441133365901319 0.40009770395701016
0.23381089200029237 0.44211040547142155 0.4206155349291647
0.23400294500015661 0.44406448461162684 0.43722520762090866
0.23419360900015818 0.44211040547142155 0.4606741573033708
0.23438332900013847 0.4450415241817294 0.4733756717147044
0.2345731780001188 0.4460185637518319 0.49682462139716654
0.23476299000003564 0.44992672203224227 0.5144113336590133
0.2349522839999736 0.4509037616023448 0.5359062042012701
0.2351425400001972 0.4509037616023448 0.5564240351734244
0.23533264900015638 0.4538348803126526 0.5740107474352711
0.23552259100006268 0.45188080117244755 0.5867122618466047
0.23571308800001134 0.4509037616023448 0.6033219345383487
0.23590778900006626 0.45188080117244755 0.6072300928187591
0.2360981570000149 0.4538348803126526 0.6033219345383487
0.23628889500014338 0.4528578407425501 0.605276013678554
0.2364789660000497 0.45188080117244755 0.6023448949682462
0.2366693710000618 0.44894968246213973 0.6062530532486565
0.23686023900017972 0.4509037616023448 0.6003908158280411
0.23705047700013893 0.4538348803126526 0.5808500244259893
0.23724088200015103 0.457743038593063 0.5515388373229115
0.23743106400024772 0.4606741573033708 0.5007327796775769
0.23762111700034438 0.46165119687347334 0.441133365901319
0.23781168899995464 0.45969711773326827 0.37957987298485585
0.23800116700022045 0.46458231558378116 0.32193453834880303
0.2381906280002113 0.46262823644357587 0.2681973619931608
0.23838021800020215 0.46165119687347334 0.2330239374694676
0.238570030000119 0.45969711773326827 0.2134831460674158
0.23875967499998296 0.46165119687347334 0.21250610649731305
0.2389491359999738 0.4606741573033708 0.22129946262823652
0.2391390410002714 0.457743038593063 0.23986321446018555
0.2393282050002199 0.4557889594528579 0.25451880801172444
0.23951772100008384 0.4528578407425501 0.2613580850024426
0.23970705100009582 0.44992672203224227 0.26917440156326333
0.2398961409999174 0.4460185637518319 0.27015144113336587
0.2400854350003101 0.44894968246213973 0.2740595994137762
0.24027506199990967 0.44894968246213973 0.2838299951148022
0.24046461500029181 0.4509037616023448 0.29457743038593054
0.240655390000029 0.45188080117244755 0.31216414264777725
0.24084448000030534 0.4538348803126526 0.31998045920859797
0.2410353479999685 0.45481191988275516 0.3336590131900341
0.24122573400018155 0.45676599902296044 0.33952125061064975
0.24141634200032058 0.45676599902296044 0.3453834880312652
0.2416061730000365 0.45969711773326827 0.36199316072300936
0.2417957259999639 0.457743038593063 0.3639472398632144
0.24198509400002877 0.4557889594528579 0.3707865168539326
0.24217405400031566 0.4538348803126526 0.3805569125549584
0.24236358899997867 0.45969711773326827 0.3932584269662922
0.24255240100001174 0.46165119687347334 0.40889106008793363
0.24274193500014007 0.4587200781631655 0.41475329750854906
0.24293158099999346 0.45676599902296044 0.42256961406936977
0.24314583700015646 0.45969711773326827 0.42452369320957506
0.24333561200000986 0.45969711773326827 0.42159257449926724
0.2435259799999585 0.4636052760136786 0.412799218368344
0.24371642200003407 0.4606741573033708 0.3981436248168051
0.24390608600015184 0.45969711773326827 0.38641914997557403
0.24409547200002635 0.4557889594528579 0.3756717147044455
0.24428509900008066 0.4528578407425501 0.3737176355642404
0.24447487399993406 0.45481191988275516 0.37957987298485585
0.24466485300035856 0.4528578407425501 0.39228138739618945
0.24485427600029652 0.45188080117244755 0.40986809965803617
0.24504377400035082 0.45188080117244755 0.4333170493404983
0.24523362300033114 0.44992672203224227 0.44211040547142155
0.24542280500008928 0.4509037616023448 0.44992672203224227
0.2456125809999321 0.44992672203224227 0.44992672203224227
0.2458025410001028 0.45188080117244755 0.45188080117244755
0.24599244599994563 0.45188080117244755 0.4479726428920372
0.24618266500010577 0.4528578407425501 0.4430874450415241
0.2463720700002341 0.4538348803126526 0.4333170493404983
0.24656143800029895 0.4557889594528579 0.43722520762090866
0.246751230999962 0.4557889594528579 0.43917928676111373
0.24694135800018557 0.45969711773326827 0.44894968246213973
0.24713993000023038 0.45969711773326827 0.4636052760136786
0.24732914900005198 0.457743038593063 0.47728382999511476
0.2475184800000534 0.4528578407425501 0.49682462139716654
0.24770790299999135 0.4538348803126526 0.5114802149487054
0.2478968079999504 0.4557889594528579 0.5232046897899365
0.24808589800022673 0.4528578407425501 0.5290669272105519
0.24829482099994493 0.4538348803126526 0.5388373229115779
0.24850202200013882 0.4538348803126526 0.5495847581827065
0.24869481600035215 0.4557889594528579 0.5525158768930141
0.2488867570000366 0.45481191988275516 0.5515388373229115
0.24907751399996414 0.4509037616023448 0.5495847581827065
0.249268141000357 0.45188080117244755 0.5495847581827065
0.24945778700021037 0.44992672203224227 0.5378602833414754
0.24964756200006377 0.44992672203224227 0.5378602833414754
0.24983705900012865 0.44992672203224227 0.5319980459208598
0.2500273529999504 0.4538348803126526 0.5290669272105519
0.2502162760001738 0.44894968246213973 0.5202735710796287
0.2504056070001752 0.4450415241817294 0.5212506106497312
0.2505945120001343 0.4460185637518319 0.5261358085002443
0.2507832870001039 0.44699560332193444 0.5271128480703469
0.25097326600007364 0.44406448461162684 0.5368832437713726
0.2511656330002552 0.4450415241817294 0.5368832437713726
0.2513551860001826 0.4479726428920372 0.540791402051783
0.2515455910001947 0.4401563263312165 0.5486077186126037
0.25173516199993173 0.441133365901319 0.5583781143136297
0.2519248450003033 0.44406448461162684 0.5681485100146555
0.25211643500006176 0.43917928676111373 0.5808500244259893
0.2523068030000104 0.44211040547142155 0.5925744992672204
0.2524964670001282 0.44211040547142155 0.5984367366878358
0.25268605700011904 0.4382022471910112 0.6082071323888618
0.25287561000004644 0.441133365901319 0.6091841719589643
0.25306499599992094 0.441133365901319 0.6082071323888618
0.25325462299997525 0.44211040547142155 0.6042989741084515
0.2534441760003574 0.43917928676111373 0.5964826575476307
0.2536333400003059 0.441133365901319 0.5935515388373229
0.25382370800025456 0.44699560332193444 0.5837811431362969
0.2540132980002454 0.44699560332193444 0.5837811431362969
0.25420311000016227 0.441133365901319 0.578895945285784
0.25439290300028006 0.4450415241817294 0.5730337078651686
0.2545820489999642 0.45188080117244755 0.567171470444553
0.2547715830000925 0.44992672203224227 0.5534929164631168
0.25496172900011516 0.44992672203224227 0.5456765999022961
0.2551521519999369 0.4538348803126526 0.5388373229115779
0.2553422790001605 0.4557889594528579 0.5378602833414754
0.25553201699995043 0.4538348803126526 0.5319980459208598
0.2557219039999836 0.45188080117244755 0.5319980459208598
0.25591143800011196 0.4509037616023448 0.5280898876404494
0.25610071300025083 0.4509037616023448 0.524181729360039
0.25629093299994565 0.45481191988275516 0.5212506106497312
0.2564814860002116 0.4479726428920372 0.5183194919394236
0.25667100200007553 0.44699560332193444 0.5065950170981925
0.2568611660003626 0.4460185637518319 0.49877870053737183
0.25705110700027944 0.44894968246213973 0.4811919882755251
0.25724060500033374 0.4509037616023448 0.4587200781631655
0.25742982400015535 0.45481191988275516 0.4235466536394723
0.2576194329999453 0.4528578407425501 0.3776257938446508
0.25781026399999973 0.4538348803126526 0.32193453834880303
0.25799985300000117 0.457743038593063 0.255495847581827
0.25818885100034095 0.45481191988275516 0.19980459208597945
0.25837810800021543 0.4509037616023448 0.15681485100146553
0.25856749400008994 0.45676599902296044 0.14215925744992663
0.258756528000049 0.4528578407425501 0.14020517830972157
0.2589458030001879 0.4509037616023448 0.16072300928187588
0.2591386710000734 0.4509037616023448 0.1890571568148509
0.2593277979999584 0.44992672203224227 0.23009281875915977
0.259518018000108 0.4538348803126526 0.2603810454323401
0.25970829300013065 0.44992672203224227 0.2808988764044944
0.2598977900001955 0.4509037616023448 0.293600390815828
0.26008719500032385 0.44894968246213973 0.3063019052271616
0.2602773220000927 0.45481191988275516 0.3180263800683927
0.260466634000295 0.45481191988275516 0.3180263800683927
0.2606556499999897 0.4538348803126526 0.32193453834880303
0.2608451099999911 0.45676599902296044 0.3277967757694187
0.26103497800022524 0.45969711773326827 0.3414753297508548
0.261224642000343 0.4606741573033708 0.34636052760136793
0.2614148060001753 0.4606741573033708 0.35906204201270153
0.2616045260001556 0.4606741573033708 0.37957987298485585
0.2617941900002734 0.4636052760136786 0.40205178309721545
0.26198474300008456 0.46458231558378116 0.4255007327796776
0.26217453600020235 0.46458231558378116 0.4450415241817294
0.2623641079999288 0.4606741573033708 0.4606741573033708
0.26255421600035334 0.457743038593063 0.4733756717147044
0.2627437880000798 0.46262823644357587 0.48216902784562765
0.2629326740002398 0.46458231558378116 0.4831460674157304
0.26313511600028505 0.4636052760136786 0.4831460674157304
0.2633254460001808 0.46946751343429405 0.4851001465559355
0.26351535100002366 0.4655593551538837 0.46946751343429405
0.2637047370003529 0.4665363947239862 0.45676599902296044
0.2638941610002803 0.4636052760136786 0.44894968246213973
0.2640831580001759 0.4655593551538837 0.4352711284807034
0.26427228500006095 0.45676599902296044 0.4176844162188569
0.2644618940003056 0.4538348803126526 0.4040058622374205
0.26465203900033885 0.45676599902296044 0.38641914997557403
0.2648420180003086 0.4528578407425501 0.376648754274548
0.26503158900004564 0.44894968246213973 0.36492427943331696
0.2652215130001423 0.4479726428920372 0.35906204201270153
0.2654109730001437 0.44211040547142155 0.36003908158280407
0.2656003590000182 0.44699560332193444 0.36687835857352225
0.2657903750000514 0.44894968246213973 0.37469467513434296
0.26597994700023264 0.44992672203224227 0.3913043478260869
0.2661697590001495 0.4479726428920372 0.40986809965803617
0.26635907100035183 0.4538348803126526 0.42940889106008795
0.266547809000258 0.45676599902296044 0.4430874450415241
0.26673739900024884 0.4528578407425501 0.4557889594528579
0.26692695200017624 0.45188080117244755 0.46262823644357587
0.26712618999999904 0.4538348803126526 0.4851001465559355
0.26731474300004265 0.44992672203224227 0.49877870053737183
0.26750401800018153 0.44894968246213973 0.5056179775280898
0.2676929970002675 0.4450415241817294 0.5114802149487054
0.2678823280002689 0.44894968246213973 0.5202735710796287
0.2680725660002281 0.4460185637518319 0.5251587689301416
0.2682689520001986 0.4479726428920372 0.5359062042012701
0.2684601900000416 0.44699560332193444 0.5437225207620908
0.2686496870001065 0.441133365901319 0.5515388373229115
0.26884011099991767 0.44211040547142155 0.5583781143136297
0.269029201000194 0.4450415241817294 0.5603321934538348
0.26921862400013197 0.4450415241817294 0.5564240351734244
0.2694085470002392 0.4450415241817294 0.540791402051783
0.2695985820000715 0.4430874450415241 0.5310210063507572
0.2697884490003162 0.44211040547142155 0.5163654127992183
0.269978354000159 0.44406448461162684 0.5036638983878847
0.2701680000000124 0.44211040547142155 0.5036638983878847
0.27035770100019363 0.43917928676111373 0.5085490962383976
0.27054727199993067 0.4382022471910112 0.5173424523693209
0.27073678800024936 0.4401563263312165 0.5329750854909623
0.2709335630001988 0.4401563263312165 0.550561797752809
0.27113883800029726 0.44406448461162684 0.5642403517342451
0.27132931699998153 0.43917928676111373 0.5740107474352711
0.2715188140000464 0.43624816805080613 0.5847581827063997
0.27170868200028053 0.44211040547142155 0.5906204201270151
0.27189840200026083 0.4430874450415241 0.5964826575476307
0.2720888250000826 0.44211040547142155 0.5945285784074255
0.2722792300000947 0.4401563263312165 0.5964826575476307
0.2724690230002125 0.44211040547142155 0.6003908158280411
0.27265850200001296 0.44894968246213973 0.5994137762579383
0.2728479630000038 0.44699560332193444 0.5915974596971176
0.27303873800019574 0.44699560332193444 0.5828041035661944
0.27322866100030296 0.4430874450415241 0.5779189057156815
0.2734182700000929 0.4430874450415241 0.5749877870053737
0.2736084520001896 0.4450415241817294 0.5632633121641426
0.27379822700004297 0.44894968246213973 0.5446995603321934
0.2739880020003511 0.45188080117244755 0.5173424523693209
0.2741774070000247 0.4479726428920372 0.5036638983878847
0.27436670099996263 0.45188080117244755 0.4909623839765511
0.27455718000010165 0.4528578407425501 0.4831460674157304
0.2747468440002194 0.4557889594528579 0.4655593551538837
0.27493660000027376 0.45188080117244755 0.44699560332193444
0.27514333800036184 0.4509037616023448 0.4303859306301905
0.27533333600013066 0.44992672203224227 0.41670737664875435
0.2755244439999842 0.4509037616023448 0.4010747435271129
0.27571383000031346 0.44992672203224227 0.38739618954567656
0.27590345699991303 0.44699560332193444 0.3678553981436248
0.27609241800018935 0.4450415241817294 0.358085002442599
0.2762825080003495 0.4430874450415241 0.36003908158280407
0.276471894000224 0.44211040547142155 0.3629702002931119
0.27666131700016194 0.44211040547142155 0.3639472398632144
0.2768509070001528 0.4401563263312165 0.37176355642403514
0.27704059000006964 0.4460185637518319 0.37957987298485585
0.2772302910002509 0.4450415241817294 0.3834880312652662
0.2774197329999879 0.44699560332193444 0.3913043478260869
0.2776085079999575 0.44406448461162684 0.38739618954567656
0.2777984680001282 0.45188080117244755 0.3756717147044455
0.27798789100006616 0.44894968246213973 0.3629702002931119
0.2781869440000264 0.44992672203224227 0.3512457254518808
0.278377164000176 0.45188080117244755 0.3502686858817783
0.2785663829999976 0.44699560332193444 0.3531998045920859
0.2787551030000941 0.44894968246213973 0.3707865168539326
0.27894478600001094 0.44894968246213973 0.3834880312652662
0.27913587600005485 0.45676599902296044 0.3961895456765998
0.27932566900017264 0.44894968246213973 0.40009770395701016
0.2795147960000577 0.4460185637518319 0.4049829018075233
0.2797045340003024 0.44992672203224227 0.39912066438690763
0.27989395800022976 0.45188080117244755 0.38935026868588185
0.2800829180000619 0.45188080117244755 0.3786028334147533
0.2802719149999575 0.45676599902296044 0.3707865168539326
0.28046195000024454 0.457743038593063 0.3639472398632144
0.2806509840002036 0.45676599902296044 0.35710796287249624
0.2808402959999512 0.4606741573033708 0.358085002442599
0.28102899800023806 0.46262823644357587 0.3561309233023937
0.28121860600003856 0.46262823644357587 0.358085002442599
0.28140827000015634 0.46262823644357587 0.35906204201270153
0.2815976189999674 0.46458231558378116 0.3629702002931119
0.28178689400010626 0.4655593551538837 0.3659013190034197
0.28197546599994894 0.4636052760136786 0.37274059599413767
0.2821644450000349 0.4684904738641915 0.38446507083536874
0.28235359000018434 0.4665363947239862 0.4010747435271129
0.28254336500003774 0.46458231558378116 0.41963849535906195
0.2827327330001026 0.467513434294089 0.4479726428920372
0.28292219400009344 0.467513434294089 0.47142159257449934
0.28312357999993765 0.4655593551538837 0.4909623839765511
0.28331292900020344 0.4684904738641915 0.4929164631167562
0.2835031110003001 0.4655593551538837 0.495847581827064
0.28369318300019586 0.4684904738641915 0.49682462139716654
0.2838826430001973 0.4587200781631655 0.4811919882755251
0.28407191800033615 0.45676599902296044 0.4528578407425501
0.28426156400018954 0.45969711773326827 0.4059599413776258
0.2844510610002544 0.45188080117244755 0.35417684416218864
0.28464072499991744 0.4479726428920372 0.3111871030776747
0.2848295930002678 0.44699560332193444 0.2857840742550073
0.28501862700022684 0.4430874450415241 0.28285295554469947
0.2852081989999533 0.4430874450415241 0.30239374694675125
0.28539734400010275 0.4401563263312165 0.3385442110405472
0.28558684200015705 0.44211040547142155 0.38251099169516367
0.28577708000011626 0.44406448461162684 0.43624816805080613
0.28596657700018113 0.44211040547142155 0.4831460674157304
0.2861558340000556 0.43917928676111373 0.5163654127992183
0.28634534999991956 0.441133365901319 0.5290669272105519
0.286534051000217 0.44406448461162684 0.5192965315095261
0.2867237330001444 0.44406448461162684 0.49193942354665365
0.28691274900029384 0.4401563263312165 0.4655593551538837
0.28711076500030686 0.441133365901319 0.44699560332193444
0.2872998920001919 0.44406448461162684 0.4352711284807034
0.2874895380000453 0.44211040547142155 0.4382022471910112
0.28767827599995144 0.43917928676111373 0.44894968246213973
0.2878672550000374 0.44406448461162684 0.46262823644357587
0.28805606700007047 0.4460185637518319 0.4782608695652173
0.28824456400025156 0.44894968246213973 0.49975574010747437
0.2884329510002317 0.4509037616023448 0.512457254518808
0.28862192900032824 0.45188080117244755 0.5349291646311676
0.2888110190001498 0.44992672203224227 0.5446995603321934
0.28899968299992906 0.44699560332193444 0.5554469956033219
0.2891892180000468 0.44699560332193444 0.5681485100146555
0.28937851199998477 0.44992672203224227 0.5779189057156815
0.289567898000314 0.44992672203224227 0.5847581827063997
0.2897572840001885 0.44894968246213973 0.5837811431362969
0.2899464850002005 0.44406448461162684 0.5876893014167073
0.2901359450002019 0.4450415241817294 0.576941866145579
0.2903244799999811 0.4460185637518319 0.5593551538837322
0.2905135880000671 0.44211040547142155 0.5368832437713726
0.2907033820001743 0.44406448461162684 0.5173424523693209
0.29089206500020737 0.44211040547142155 0.49975574010747437
0.29108332100031475 0.43722520762090866 0.48412310698583294
0.29127161499991416 0.43429408891060084 0.47728382999511476
0.2914612230001694 0.43429408891060084 0.4782608695652173
0.29165051700010736 0.4352711284807034 0.48412310698583294
0.2918416810002782 0.43624816805080613 0.495847581827064
0.29203177099998356 0.43722520762090866 0.512457254518808
0.29222143500010134 0.4333170493404983 0.5271128480703469
0.2924100990003353 0.43722520762090866 0.5388373229115779
0.2925993560002098 0.43917928676111373 0.5495847581827065
0.2927885750000314 0.4382022471910112 0.5632633121641426
0.2929777950002972 0.441133365901319 0.5720566682950659
0.2931678479999391 0.43917928676111373 0.5759648265754762
0.29335677100016255 0.4401563263312165 0.5818270639960919
0.29354656500026977 0.4401563263312165 0.578895945285784
0.2937363770001866 0.44406448461162684 0.5720566682950659
0.2939252999999553 0.4460185637518319 0.5534929164631168
0.2941144270002951 0.4460185637518319 0.540791402051783
0.29430372100023305 0.4450415241817294 0.5251587689301416
0.29449266300025556 0.4479726428920372 0.5105031753786029
0.29468199400025696 0.44699560332193444 0.49682462139716654
0.29487165799992 0.44894968246213973 0.486077186126038
0.29506187700008013 0.44699560332193444 0.4753297508549097
0.2952524120000817 0.4479726428920372 0.46262823644357587
0.2954420940000091 0.44992672203224227 0.4479726428920372
0.29563207299997885 0.44406448461162684 0.42940889106008795
0.29582179299995914 0.44699560332193444 0.40986809965803617
0.2960109380001086 0.4460185637518319 0.37957987298485585
0.29620036200003597 0.44699560332193444 0.3561309233023937
0.29639000700035467 0.4460185637518319 0.33170493404982904
0.2965786160002608 0.44992672203224227 0.32975085490962375
0.2967682430003151 0.44894968246213973 0.32975085490962375
0.2969569990000309 0.4528578407425501 0.3336590131900341
0.29714707099992665 0.45188080117244755 0.3414753297508548
0.29733664200011845 0.4557889594528579 0.34733756717147046
0.2975258430001304 0.4587200781631655 0.3453834880312652
0.29771476600035385 0.4557889594528579 0.348314606741573
0.29790322700000615 0.45969711773326827 0.3531998045920859
0.2980923170002825 0.45969711773326827 0.358085002442599
0.2982813140001781 0.4538348803126526 0.37469467513434296
0.29847031200006313 0.45969711773326827 0.3805569125549584
0.2986599569999271 0.46165119687347334 0.38446507083536874
0.2988492510003198 0.45481191988275516 0.38641914997557403
0.29904550700030086 0.4587200781631655 0.3883732291157791
0.2992358010001226 0.45676599902296044 0.3883732291157791
0.29942548400003943 0.45676599902296044 0.38153395212506114
0.2996148140000514 0.45481191988275516 0.3756717147044455
0.2998038670002643 0.45676599902296044 0.3688324377137273
0.2999931790000119 0.4587200781631655 0.36003908158280407
0.3001820290000978 0.45481191988275516 0.358085002442599
0.30037202600033197 0.457743038593063 0.358085002442599
0.30056380099995295 0.45969711773326827 0.358085002442599
0.30075337300013416 0.4636052760136786 0.35222276502198335
0.30094238800029416 0.46262823644357587 0.3502686858817783
0.30113123799992536 0.4636052760136786 0.348314606741573
0.3013206979999268 0.46165119687347334 0.3424523693209576
0.3015097689999493 0.46165119687347334 0.3307278944797265
0.3016992110001411 0.457743038593063 0.3238886174890083
0.301888819999931 0.4587200781631655 0.3180263800683927
0.30207811300033427 0.4587200781631655 0.3141182217879823
0.30226744400033567 0.4557889594528579 0.32486565705911086
0.30245731200011505 0.4557889594528579 0.3385442110405472
0.3026465500001905 0.4528578407425501 0.3512457254518808
0.3028361770002448 0.45481191988275516 0.36687835857352225
0.3030345629999829 0.45481191988275516 0.3834880312652662
0.3032251160002488 0.45481191988275516 0.3981436248168051
0.3034145020001233 0.45969711773326827 0.4137762579384465
0.30360350000000835 0.4606741573033708 0.4206155349291647
0.30379221900011544 0.45676599902296044 0.431362970200293
0.3039811240000745 0.457743038593063 0.43624816805080613
0.3041705290002028 0.457743038593063 0.4450415241817294
0.30435989700026767 0.4587200781631655 0.43917928676111373
0.3045493570002691 0.4557889594528579 0.44894968246213973
0.3047379650001858 0.45481191988275516 0.4587200781631655
0.30492731499998627 0.4509037616023448 0.46262823644357587
0.30511666400025206 0.44699560332193444 0.47239863214460187
0.3053069580000738 0.45676599902296044 0.4782608695652173
0.305496659000255 0.45481191988275516 0.486077186126038
0.3056862490002459 0.4509037616023448 0.4831460674157304
0.3058756350001204 0.44992672203224227 0.48900830483634583
0.30606492900005833 0.45481191988275516 0.4938935026868587
0.3062542780003241 0.45676599902296044 0.49877870053737183
0.30644288600024083 0.4528578407425501 0.5046409379579873
0.3066317360003268 0.45481191988275516 0.5075720566682951
0.30682058499996856 0.45481191988275516 0.512457254518808
0.3070102860001498 0.45188080117244755 0.524181729360039
0.3074515020002764 0.44406448461162684 0.5515388373229115
0.30766136900001584 0.44406448461162684 0.5564240351734244
0.3078523670001232 0.4430874450415241 0.5593551538837322
0.3080426790002093 0.44699560332193444 0.5593551538837322
0.30823265800017907 0.44699560332193444 0.5603321934538348
0.3084220630003074 0.44894968246213973 0.5574010747435272
0.308611153000129 0.44406448461162684 0.5583781143136297
0.3088007800001833 0.4479726428920372 0.5593551538837322
0.30898981400014236 0.44894968246213973 0.5495847581827065
0.3091783849999956 0.44992672203224227 0.5437225207620908
0.3093681049999759 0.4509037616023448 0.5398143624816805
0.3095574359999773 0.44894968246213973 0.5368832437713726
0.309747174000222 0.44894968246213973 0.5290669272105519
0.3099368749999485 0.4450415241817294 0.5300439667806547
0.31012548300031995 0.4460185637518319 0.5368832437713726
0.31031474000019443 0.4479726428920372 0.5476306790425012
0.3105041080002593 0.44406448461162684 0.5613092330239375
0.3106934940001338 0.44211040547142155 0.578895945285784
0.31088300999999774 0.44406448461162684 0.5925744992672204
0.311074526000084 0.44406448461162684 0.605276013678554
0.31126439400031813 0.4450415241817294 0.6170004885197851
0.3114542800003619 0.44406448461162684 0.6287249633610161
0.31164424000007784 0.44406448461162684 0.6248168050806058
0.31183503400006884 0.441133365901319 0.6257938446507083
0.3120247910001126 0.4450415241817294 0.6228627259404005
0.31221447300004 0.4450415241817294 0.6150464093795798
0.31240415599995686 0.44406448461162684 0.6033219345383487
0.3125944490002439 0.4430874450415241 0.5828041035661944
0.3127850949999811 0.44699560332193444 0.5525158768930141
0.31297561100018356 0.44699560332193444 0.5261358085002443
0.3131653489999735 0.44699560332193444 0.5046409379579873
0.3133552540002711 0.441133365901319 0.48998534440644836
0.3135452690003149 0.441133365901319 0.486077186126038
0.31373489599991444 0.4430874450415241 0.4811919882755251
0.31392470900027547 0.44699560332193444 0.4782608695652173
0.31411420600034035 0.4460185637518319 0.47923790913532005
0.31430301799991867 0.44699560332193444 0.4811919882755251
0.31449144199996226 0.44992672203224227 0.4811919882755251
0.3146795870002279 0.44894968246213973 0.47239863214460187
0.3148685660003139 0.4538348803126526 0.4636052760136786
0.31505956299997706 0.4538348803126526 0.44992672203224227
0.3152491350001583 0.44699560332193444 0.43722520762090866
0.3154386880000857 0.4509037616023448 0.42452369320957506
0.31562940699996034 0.44699560332193444 0.4157303370786516
0.31581920100006755 0.4460185637518319 0.41475329750854906
0.3160092910002277 0.44894968246213973 0.40986809965803617
0.31619799200007037 0.4450415241817294 0.4137762579384465
0.3163867120001669 0.44211040547142155 0.4303859306301905
0.3165773200003059 0.4479726428920372 0.4479726428920372
0.3167666510003073 0.4460185637518319 0.46165119687347334
0.3169556480002029 0.44699560332193444 0.47239863214460187
0.3171446090000245 0.4460185637518319 0.47728382999511476
0.3173338840001634 0.4509037616023448 0.467513434294089
0.3175232700000379 0.4528578407425501 0.44699560332193444
0.3177119710003353 0.45188080117244755 0.431362970200293
0.3179016170001887 0.4557889594528579 0.4108451392281387
0.3180905399999574 0.4557889594528579 0.38935026868588185
0.31828007400008573 0.4509037616023448 0.37176355642403514
0.31846940500008714 0.45481191988275516 0.3531998045920859
0.31865879099996164 0.45676599902296044 0.3434294088910601
0.3188484550000794 0.45676599902296044 0.33952125061064975
0.31904699000006076 0.457743038593063 0.34929164631167553
0.31923785700018925 0.45676599902296044 0.3531998045920859
0.3194276880003599 0.45481191988275516 0.35906204201270153
0.3196171110002979 0.45969711773326827 0.3356130923302394
0.31980612699999256 0.45969711773326827 0.2857840742550073
0.31999512500033234 0.45481191988275516 0.23204689789936483
0.32018501099992136 0.4606741573033708 0.1831949193942355
0.32037443400031407 0.45481191988275516 0.14899853444064481
0.32056415400029437 0.45481191988275516 0.13531998045920868
0.3207537990001583 0.4557889594528579 0.14411333659013192
0.3209432410003501 0.4557889594528579 0.17733268197361984
0.32113283100034096 0.457743038593063 0.2183683439179287
0.32132255100032125 0.457743038593063 0.26428920371275044
0.3215118260000054 0.4538348803126526 0.30727894479726436
0.32170171200004916 0.4587200781631655 0.34440644846116264
0.32189104300005056 0.45676599902296044 0.37274059599413767
0.322080724999978 0.45481191988275516 0.39423546653639474
0.32226992599998994 0.4636052760136786 0.4137762579384465
0.32245942400004424 0.457743038593063 0.42256961406936977
0.322649217000162 0.457743038593063 0.4284318514899854
0.32283851100009997 0.457743038593063 0.43624816805080613
0.32303849000027185 0.4587200781631655 0.4382022471910112
0.32322943200006193 0.4587200781631655 0.4382022471910112
0.32341918800011626 0.4587200781631655 0.43429408891060084
0.32360890800009656 0.46262823644357587 0.4333170493404983
0.32379829399997107 0.46458231558378116 0.42940889106008795
0.3239881429999514 0.46458231558378116 0.4284318514899854
0.3241772149999633 0.45969711773326827 0.4284318514899854
0.32436613800018677 0.4587200781631655 0.4323400097703958
0.3245555980001882 0.4636052760136786 0.43917928676111373
0.32474518800017904 0.4557889594528579 0.45188080117244755
0.3249341490000006 0.4528578407425501 0.46946751343429405
0.3251231829999597 0.45481191988275516 0.48216902784562765
0.32531286600033127 0.4528578407425501 0.4938935026868587
0.3255027519999203 0.4528578407425501 0.49682462139716654
0.325692712000091 0.45188080117244755 0.5026868588177822
0.3258831170001031 0.45481191988275516 0.5036638983878847
0.3260728370000834 0.45481191988275516 0.5056179775280898
0.32626479700002164 0.45969711773326827 0.5134342940889105
0.3264546089999385 0.4557889594528579 0.5056179775280898
0.3266442920003101 0.4538348803126526 0.5065950170981925
0.3268342890000895 0.4528578407425501 0.5105031753786029
0.32703126800015525 0.4528578407425501 0.5163654127992183
0.3272221730003366 0.4557889594528579 0.5280898876404494
0.32741161400008423 0.4509037616023448 0.5359062042012701
0.3276018900000963 0.4479726428920372 0.5398143624816805
0.32779142400022465 0.4450415241817294 0.5446995603321934
0.32798007000019425 0.4450415241817294 0.5476306790425012
0.3281769370000802 0.44211040547142155 0.5495847581827065
0.328370527000061 0.441133365901319 0.5632633121641426
0.32856121000031635 0.441133365901319 0.5798729848558866
0.3287502810003389 0.44406448461162684 0.5974596971177333
0.3289396300001499 0.44406448461162684 0.6082071323888618
0.3291289799999504 0.4450415241817294 0.6189545676599901
0.3293183470000258 0.44894968246213973 0.6287249633610161
0.3295080850002705 0.45188080117244755 0.6257938446507083
0.32969752700000754 0.44992672203224227 0.6140693698094772
0.3298868209999455 0.4509037616023448 0.5984367366878358
0.3300763920001373 0.44699560332193444 0.5798729848558866
0.3302661120001176 0.44894968246213973 0.5534929164631168
0.33045522000020355 0.44406448461162684 0.5202735710796287
0.3306436620000568 0.44894968246213973 0.4831460674157304
0.33083280800019566 0.44406448461162684 0.4430874450415241
0.33103987899994536 0.4450415241817294 0.4137762579384465
0.331232043 0.441133365901319 0.4040058622374205
0.3314213740000014 0.441133365901319 0.4059599413776258
0.331611408000299 0.44406448461162684 0.4284318514899854
0.33180044300024747 0.44211040547142155 0.4479726428920372
0.3319900139999845 0.44211040547142155 0.4733756717147044
0.33217978900029266 0.4401563263312165 0.49682462139716654
0.3323696010002095 0.4401563263312165 0.5192965315095261
0.33255867300022146 0.44406448461162684 0.5349291646311676
0.33274776300004305 0.4430874450415241 0.5388373229115779
0.3329377420000128 0.44894968246213973 0.5329750854909623
0.3331301279999934 0.4401563263312165 0.5261358085002443
0.3333207180003228 0.4401563263312165 0.512457254518808
0.3335108260002926 0.4460185637518319 0.4978016609672691
0.33370006399991325 0.43917928676111373 0.4938935026868587
0.33388974700028484 0.44406448461162684 0.495847581827064
0.33407905900003243 0.4450415241817294 0.49975574010747437
0.3342685750003511 0.4430874450415241 0.5026868588177822
0.3344582210002045 0.44406448461162684 0.5085490962383976
0.33464747700008957 0.44992672203224227 0.5095261358085001
0.3348373260000699 0.4509037616023448 0.5026868588177822
0.3350353420000829 0.4528578407425501 0.49682462139716654
0.33522602500033827 0.4528578407425501 0.49193942354665365
0.33541511500015986 0.4509037616023448 0.4851001465559355
0.3356041310003093 0.4528578407425501 0.4684904738641915
0.33579307200034236 0.45188080117244755 0.4538348803126526
0.33598279200032266 0.4538348803126526 0.4255007327796776
0.33617249300004914 0.4538348803126526 0.39716658524670256
0.3363622500000929 0.4538348803126526 0.3707865168539326
0.33655267299991465 0.45188080117244755 0.3512457254518808
0.33674235600028624 0.44992672203224227 0.34636052760136793
0.33693220500026655 0.44992672203224227 0.3453834880312652
0.3371216280002045 0.45481191988275516 0.35710796287249624
0.33731158799992045 0.45676599902296044 0.3531998045920859
0.3375011779999113 0.4587200781631655 0.3659013190034197
0.33769019400006073 0.45969711773326827 0.3756717147044455
0.3378808030001892 0.4636052760136786 0.3932584269662922
0.3380702080003175 0.46165119687347334 0.40693698094772834
0.33825961200000165 0.4587200781631655 0.4176844162188569
0.3384487580001405 0.4636052760136786 0.42452369320957506
0.3386379590001525 0.457743038593063 0.42452369320957506
0.33882801200024915 0.4538348803126526 0.4186614557889594
0.33901769400017656 0.45676599902296044 0.40986809965803617
0.33921787700001005 0.45188080117244755 0.40693698094772834
0.339407299999948 0.4538348803126526 0.4040058622374205
0.33959753800036196 0.4538348803126526 0.39716658524670256
0.339786758000173 0.44992672203224227 0.3961895456765998
0.3399763850002273 0.4509037616023448 0.38251099169516367
0.34016575300029217 0.45188080117244755 0.36687835857352225
0.3403549720001138 0.4538348803126526 0.3502686858817783
0.34054395100019974 0.4557889594528579 0.33268197361993157
0.340732393000053 0.4606741573033708 0.3150952613580851
0.3409221130000333 0.46165119687347334 0.29750854909623836
0.34111136899991834 0.46165119687347334 0.2857840742550073
0.3413005699999303 0.46165119687347334 0.28187591597459694
0.34148993799999516 0.4587200781631655 0.27992183683439187
0.3416787129999648 0.4606741573033708 0.28285295554469947
0.34186832200020945 0.4587200781631655 0.293600390815828
0.3420574490000945 0.45676599902296044 0.303370786516854
0.34224681600016993 0.45969711773326827 0.3160723009281876
0.3424358510001184 0.457743038593063 0.33463605276013686
0.34262506999994 0.457743038593063 0.35417684416218864
0.34281410500034326 0.457743038593063 0.3639472398632144
0.34300388000019666 0.45969711773326827 0.3659013190034197
0.34320576600021013 0.45969711773326827 0.36199316072300936
0.34339487500028554 0.46165119687347334 0.3531998045920859
0.3435841310001706 0.46458231558378116 0.34929164631167553
0.34377364700003454 0.45969711773326827 0.35222276502198335
0.3439636260000043 0.46262823644357587 0.36492427943331696
0.34415260500009026 0.4587200781631655 0.376648754274548
0.34434182399991187 0.45676599902296044 0.39423546653639474
0.34453167400033635 0.45481191988275516 0.4157303370786516
0.3447213009999359 0.45676599902296044 0.4352711284807034
0.34491107600024407 0.45481191988275516 0.4509037616023448
0.345100814000034 0.45481191988275516 0.46262823644357587
0.34528994099991905 0.4557889594528579 0.4704445530043966
0.3454796610003541 0.4587200781631655 0.47728382999511476
0.3456690279999748 0.45676599902296044 0.48216902784562765
0.3458581550003146 0.45969711773326827 0.486077186126038
0.34604794899996705 0.45969711773326827 0.4909623839765511
0.3462365760001376 0.4636052760136786 0.49877870053737183
0.346426350999991 0.4655593551538837 0.495847581827064
0.34661586700030966 0.467513434294089 0.5036638983878847
0.3468051419999938 0.46946751343429405 0.5114802149487054
0.34699439900032303 0.4655593551538837 0.5212506106497312
0.3471846000002188 0.46458231558378116 0.5388373229115779
0.34737333800012493 0.46165119687347334 0.5388373229115779
0.34756305800010523 0.4606741573033708 0.5417684416218858
0.3477524810000432 0.457743038593063 0.5417684416218858
0.34794168200005515 0.4557889594528579 0.5437225207620908
0.3481303650000882 0.4528578407425501 0.5476306790425012
0.3483195470003011 0.4538348803126526 0.5583781143136297
0.3485081000003447 0.44894968246213973 0.5720566682950659
0.34869715300010284 0.4479726428920372 0.5896433805569126
0.34888614999999845 0.4460185637518319 0.605276013678554
0.34907525900007386 0.44992672203224227 0.6257938446507083
0.3492641080001704 0.4460185637518319 0.6345872007816316
0.34945251299996016 0.4450415241817294 0.6424035173424523
0.3496419920002154 0.44894968246213973 0.6521739130434783
0.3498314710000159 0.44406448461162684 0.6570591108939912
0.3500206530002288 0.44699560332193444 0.6511968734733757
0.3502092620001349 0.4450415241817294 0.6414264777723497
0.350398296000094 0.4460185637518319 0.6257938446507083
0.35058755299996847 0.44406448461162684 0.6062530532486565
0.3507764579999275 0.44992672203224227 0.5925744992672204
0.35096623300023566 0.4460185637518319 0.5828041035661944
0.35115758200026903 0.4430874450415241 0.5710796287249633
0.35134732000005897 0.44406448461162684 0.5613092330239375
0.3515374100002191 0.44406448461162684 0.5486077186126037
0.35172707400033687 0.4450415241817294 0.5310210063507572
0.3519165900002008 0.4450415241817294 0.5134342940889105
0.3521060870002657 0.4430874450415241 0.48412310698583294
0.35229538100020363 0.4430874450415241 0.44992672203224227
0.35248537799998303 0.44211040547142155 0.4137762579384465
0.35267487600003733 0.4430874450415241 0.37957987298485585
0.3528639840001233 0.43917928676111373 0.36199316072300936
0.3530531850001353 0.43917928676111373 0.3512457254518808
0.35324262700032705 0.43624816805080613 0.3561309233023937
0.3534318100000746 0.431362970200293 0.3678553981436248
0.3536206769999808 0.431362970200293 0.38935026868588185
0.35381023000036294 0.431362970200293 0.412799218368344
0.3540000800003327 0.4352711284807034 0.44699560332193444
0.3541894290001437 0.43722520762090866 0.4811919882755251
0.3543787970002086 0.43917928676111373 0.5007327796775769
0.35456775700004073 0.441133365901319 0.5163654127992183
0.3547562730000209 0.4450415241817294 0.5183194919394236
0.35494525200010685 0.4460185637518319 0.5153883732291158
0.35513648999994984 0.44894968246213973 0.5065950170981925
0.35532600600026853 0.44406448461162684 0.5007327796775769
0.3555162070001643 0.44699560332193444 0.49877870053737183
0.3557060000002821 0.4479726428920372 0.5046409379579873
0.3558951640002306 0.44699560332193444 0.5144113336590133
0.35608442100010507 0.44699560332193444 0.5300439667806547
0.35627375200010647 0.4509037616023448 0.5417684416218858
0.356463045000055 0.44699560332193444 0.5515388373229115
0.35665265400029966 0.4460185637518319 0.5632633121641426
0.3568421140003011 0.44699560332193444 0.5603321934538348
0.3570316120003554 0.44699560332193444 0.5446995603321934
0.35722164600019823 0.4509037616023448 0.5202735710796287
0.3574112360001891 0.4509037616023448 0.48998534440644836
0.3576007149999896 0.457743038593063 0.4557889594528579
0.3577910270000757 0.4587200781631655 0.42745481191988266
0.35798011700035204 0.45969711773326827 0.4079140205178309
0.35816978100001506 0.4587200781631655 0.3834880312652662
0.35835951900025975 0.4587200781631655 0.3639472398632144
0.35854905399992276 0.4606741573033708 0.3385442110405472
0.35873799499995584 0.46165119687347334 0.31216414264777725
0.35892788199998904 0.4606741573033708 0.2887151929653151
0.35912974900020345 0.4587200781631655 0.27503663898387876
0.3593196169999828 0.4587200781631655 0.2760136785539815
0.35950891099992077 0.4587200781631655 0.2857840742550073
0.35969826000018656 0.46165119687347334 0.3014167073766487
0.35988744299993414 0.4557889594528579 0.3160723009281876
0.36007690299993556 0.457743038593063 0.32681973619931615
0.3602659930002119 0.4557889594528579 0.3307278944797265
0.3604558609999913 0.45676599902296044 0.33756717147044446
0.3606451539999398 0.457743038593063 0.33952125061064975
0.36083452200000465 0.46165119687347334 0.3434294088910601
0.36102396400019643 0.457743038593063 0.3512457254518808
0.3612132390003353 0.457743038593063 0.36003908158280407
0.3614026069999454 0.4538348803126526 0.3659013190034197
0.36159260400017956 0.4538348803126526 0.35906204201270153
0.3617818980001175 0.4538348803126526 0.3434294088910601
0.3619716360003622 0.45188080117244755 0.3277967757694187
0.3621614670000781 0.45676599902296044 0.3131411822178798
0.3623505750001641 0.4538348803126526 0.29946262823644365
0.3625395910003135 0.45188080117244755 0.29164631167562294
0.36272869899994475 0.45188080117244755 0.2838299951148022
0.36291814100013653 0.457743038593063 0.27503663898387876
0.363116416000139 0.457743038593063 0.26233512457254515
0.36330615399992894 0.45969711773326827 0.24474841231069866
0.36349572600011015 0.4636052760136786 0.2261846604787494
0.363685445000101 0.4606741573033708 0.21934538348803123
0.36387490600009187 0.4606741573033708 0.22716170004885194
0.3640713660001893 0.46165119687347334 0.255495847581827
0.36427425200008656 0.46165119687347334 0.303370786516854
0.3644799339999736 0.46262823644357587 0.36199316072300936
0.36467167299997527 0.4606741573033708 0.4235466536394723
0.36486192900019887 0.4655593551538837 0.4851001465559355
0.3650542600003064 0.4655593551538837 0.5427454811919883
0.3652444790000118 0.46458231558378116 0.5906204201270151
0.3654363660002673 0.46458231558378116 0.631656082071324
0.36562677000029 0.46458231558378116 0.6697606253053248
0.3658173600001646 0.4655593551538837 0.6990718124084025
0.36600704300008147 0.46458231558378116 0.7137274059599414
0.36619592900024145 0.4655593551538837 0.7156814851001465
0.36638540800004193 0.46946751343429405 0.7039570102589154
0.3665750909999588 0.4665363947239862 0.6785539814362482
0.3667650320003304 0.4665363947239862 0.6384953590620419
0.36695404800002507 0.4665363947239862 0.5984367366878358
0.3671520830002919 0.4587200781631655 0.5388373229115779
0.3673416910000924 0.4557889594528579 0.48705422569614076
0.3675300770000831 0.45188080117244755 0.42940889106008795
0.367719223000222 0.4460185637518319 0.38739618954567656
0.36790825700018104 0.441133365901319 0.35710796287249624
0.36809707000020353 0.4401563263312165 0.33756717147044446
0.36828628900002514 0.43917928676111373 0.33268197361993157
0.36847563800029093 0.43624816805080613 0.34440644846116264
0.3686647100003029 0.4333170493404983 0.3639472398632144
0.368853892000061 0.4323400097703958 0.3903273082559844
0.3690425940003479 0.43429408891060084 0.4206155349291647
0.36923166499991567 0.43429408891060084 0.44992672203224227
0.36942079200025546 0.4352711284807034 0.4811919882755251
0.36960958600002414 0.43624816805080613 0.5026868588177822
0.3697978610002792 0.43624816805080613 0.5202735710796287
0.36998743200001627 0.4352711284807034 0.533952125061065
0.3701768370001446 0.43917928676111373 0.5544699560332194
0.37036664900006144 0.43917928676111373 0.567171470444553
0.3705564060001052 0.4382022471910112 0.5749877870053737
0.3707452550002017 0.441133365901319 0.5876893014167073
0.370939251999971 0.4382022471910112 0.5984367366878358
0.37114082400012194 0.43722520762090866 0.5974596971177333
0.37133037700004934 0.44406448461162684 0.5915974596971176
0.3715209480001249 0.4401563263312165 0.5808500244259893
0.37171029699993596 0.43722520762090866 0.5740107474352711
0.3718995350000114 0.4401563263312165 0.567171470444553
0.3720883480000339 0.441133365901319 0.5603321934538348
0.3722777150001093 0.441133365901319 0.5525158768930141
0.37246678700012126 0.441133365901319 0.5388373229115779
0.3726561550001861 0.4401563263312165 0.5271128480703469
0.372845652000251 0.441133365901319 0.5095261358085001
0.3730352050001784 0.44406448461162684 0.4978016609672691
0.373224516999926 0.4450415241817294 0.4948705422569615
0.3734133660000225 0.44211040547142155 0.49682462139716654
0.373602308000045 0.441133365901319 0.5007327796775769
0.37379208300035316 0.43917928676111373 0.5085490962383976
0.3739815809999527 0.4430874450415241 0.5134342940889105
0.3741704480003136 0.4460185637518319 0.5153883732291158
0.37435981599992374 0.45188080117244755 0.5163654127992183
0.3745489060002001 0.44992672203224227 0.5065950170981925
0.3747386260001804 0.4538348803126526 0.4948705422569615
0.3749277530000654 0.4538348803126526 0.48216902784562765
0.37512728699994113 0.4509037616023448 0.46946751343429405
0.3753169510000589 0.457743038593063 0.45188080117244755
0.37550607799994395 0.4528578407425501 0.43917928676111373
0.37569501999996646 0.45188080117244755 0.4235466536394723
0.3758842770002957 0.45188080117244755 0.40889106008793363
0.3760728290003499 0.44992672203224227 0.3952125061064973
0.3762614750003195 0.4509037616023448 0.38446507083536874
0.3764509350003209 0.4509037616023448 0.37274059599413767
0.376640302999931 0.4509037616023448 0.3639472398632144
0.37683007800023915 0.4509037616023448 0.3610161211529066
0.37701863100028277 0.45188080117244755 0.3561309233023937
0.377207387999988 0.4557889594528579 0.35906204201270153
0.37739644100020087 0.457743038593063 0.36687835857352225
0.3775862530001177 0.45969711773326827 0.3834880312652662
0.37777547299992875 0.457743038593063 0.39912066438690763
0.37796487700006764 0.4587200781631655 0.41475329750854906
0.3781536340002276 0.45969711773326827 0.42452369320957506
0.37838402000033966 0.4587200781631655 0.42159257449926724
0.3785782019999715 0.4587200781631655 0.4186614557889594
0.3787692370001423 0.45969711773326827 0.4176844162188569
0.3789598080002179 0.457743038593063 0.412799218368344
0.379154046000167 0.46165119687347334 0.4059599413776258
0.3793445060000522 0.45969711773326827 0.40205178309721545
0.3795342260000325 0.457743038593063 0.40009770395701016
0.37972409400026663 0.457743038593063 0.39912066438690763
0.3799134430000777 0.4587200781631655 0.3981436248168051
0.38010288500026945 0.4587200781631655 0.403028822667318
0.38029258599999594 0.4587200781631655 0.4079140205178309
0.3804826390000926 0.457743038593063 0.403028822667318
0.3806729510001787 0.4655593551538837 0.3903273082559844
0.3808632260002014 0.46165119687347334 0.3688324377137273
0.3810530939999808 0.4606741573033708 0.34929164631167553
0.3812429429999611 0.46165119687347334 0.3356130923302394
0.3814323480000894 0.45969711773326827 0.3356130923302394
0.38162130799992156 0.457743038593063 0.3385442110405472
0.38181093499997587 0.4557889594528579 0.34733756717147046
0.38200145100017835 0.45676599902296044 0.3610161211529066
0.38219180000032793 0.45481191988275516 0.37957987298485585
0.38238148300024477 0.45481191988275516 0.40009770395701016
0.3825706100001298 0.45481191988275516 0.40986809965803617
0.3827604410003005 0.45481191988275516 0.4157303370786516
0.38294928999994227 0.4557889594528579 0.41963849535906195
0.3831398980000813 0.4528578407425501 0.4186614557889594
0.38332965500012506 0.457743038593063 0.40889106008793363
0.38351891199999955 0.45481191988275516 0.39912066438690763
0.38370839000026535 0.457743038593063 0.3883732291157791
0.38389742500021384 0.45481191988275516 0.3805569125549584
0.3840870700000778 0.457743038593063 0.3776257938446508
0.3842777160002697 0.4557889594528579 0.3834880312652662
0.3844671950000702 0.46165119687347334 0.3932584269662922
0.38465626600009273 0.44992672203224227 0.4010747435271129
0.384845986000073 0.4479726428920372 0.4049829018075233
0.38503550199993697 0.4460185637518319 0.40009770395701016
0.385225795000224 0.4430874450415241 0.3903273082559844
0.3854155700000774 0.4430874450415241 0.3854421104054715
0.3856051600000683 0.4430874450415241 0.3913043478260869
0.3857943990001331 0.4430874450415241 0.4108451392281387
0.38598371100033546 0.44406448461162684 0.4352711284807034
0.3861722820001887 0.44406448461162684 0.46262823644357587
0.386362317000021 0.441133365901319 0.4978016609672691
0.3865515550000964 0.4450415241817294 0.5163654127992183
0.3867402740002035 0.44992672203224227 0.5388373229115779
0.386929531000078 0.4538348803126526 0.5632633121641426
0.3871329170001445 0.44894968246213973 0.576941866145579
0.3873221180001565 0.44699560332193444 0.58866634098681
0.3875113379999675 0.44699560332193444 0.5994137762579383
0.3876999280000746 0.4450415241817294 0.6101612115290669
0.38788890700016054 0.4460185637518319 0.6170004885197851
0.38807829300003505 0.4460185637518319 0.6257938446507083
0.38826723500005755 0.44699560332193444 0.6394723986321447
0.38845736200028114 0.44992672203224227 0.6472887151929654
0.38864606300012383 0.44699560332193444 0.6590131900341964
0.38883491200022036 0.44699560332193444 0.6658524670249144
0.3890234280002005 0.45188080117244755 0.6638983878847093
0.38921194400018067 0.44992672203224227 0.6590131900341964
0.38940121900031954 0.44992672203224227 0.6551050317537861
0.3895903460002046 0.4557889594528579 0.6472887151929654
0.389780121000058 0.45188080117244755 0.6355642403517343
0.38996934100032377 0.4509037616023448 0.6160234489496825
0.39015904200005025 0.45188080117244755 0.5847581827063997
0.3903484649999882 0.45188080117244755 0.5476306790425012
0.390537685000254 0.44992672203224227 0.5202735710796287
0.3907263670002976 0.4509037616023448 0.49877870053737183
0.3909146979999605 0.44699560332193444 0.48900830483634583
0.3911227690000487 0.44992672203224227 0.4802149487054226
0.3913128960002723 0.4450415241817294 0.4636052760136786
0.39150335700014693 0.44699560332193444 0.457743038593063
0.39169335399992633 0.44699560332193444 0.43624816805080613
0.391882870000245 0.44699560332193444 0.42452369320957506
0.39207186700014063 0.44992672203224227 0.3981436248168051
0.39226108699995166 0.44894968246213973 0.3834880312652662
0.39245065800014345 0.4460185637518319 0.3688324377137273
0.39264052599992283 0.4450415241817294 0.35906204201270153
0.39282993100005115 0.441133365901319 0.3610161211529066
0.39301948399997855 0.44406448461162684 0.3737176355642404
0.3932083879999482 0.4401563263312165 0.3961895456765998
0.3933982379999179 0.44406448461162684 0.42452369320957506
0.3935873460000039 0.43624816805080613 0.4557889594528579
0.3937761770002908 0.43624816805080613 0.4851001465559355
0.39396543400016526 0.43429408891060084 0.5065950170981925
0.3941549680002936 0.43624816805080613 0.5105031753786029
0.394344299000295 0.4352711284807034 0.5065950170981925
0.39453424000021187 0.43722520762090866 0.4948705422569615
0.3947240340003191 0.4382022471910112 0.4802149487054226
0.3949134940003205 0.4382022471910112 0.47239863214460187
0.39511128799995276 0.4401563263312165 0.4636052760136786
0.3953003780002291 0.44211040547142155 0.4557889594528579
0.395490208999945 0.44406448461162684 0.4460185637518319
0.39568052100003115 0.4460185637518319 0.43429408891060084
0.3958689440000853 0.44406448461162684 0.42256961406936977
0.39605884899992816 0.44406448461162684 0.412799218368344
0.3962481610001305 0.4430874450415241 0.40693698094772834
0.3964374920001319 0.44211040547142155 0.40889106008793363
0.39662737800017567 0.45188080117244755 0.40889106008793363
0.39681663500005016 0.4450415241817294 0.4108451392281387
0.3970052620002207 0.44699560332193444 0.4059599413776258
0.3971947220002221 0.45188080117244755 0.40205178309721545
0.39738355300005423 0.4557889594528579 0.39423546653639474
0.3975728280001931 0.4587200781631655 0.38935026868588185
0.39776551100021607 0.457743038593063 0.38641914997557403
0.39795515600008 0.4606741573033708 0.38641914997557403
0.39814417200022945 0.45676599902296044 0.38446507083536874
0.39833350300023085 0.4587200781631655 0.3854421104054715
0.39852259300005244 0.4587200781631655 0.38739618954567656
0.398711127000297 0.4587200781631655 0.39912066438690763
0.3989011799999389 0.4587200781631655 0.412799218368344
0.39909219600031065 0.45969711773326827 0.43722520762090866
0.39928206400009003 0.4557889594528579 0.4665363947239862
0.3994716350002818 0.45481191988275516 0.4929164631167562
0.39966085500009285 0.45676599902296044 0.5095261358085001
0.3998511849999886 0.45969711773326827 0.5202735710796287
0.40004390500007503 0.457743038593063 0.5192965315095261
0.4002333470002668 0.4606741573033708 0.5202735710796287
0.4004226590000144 0.46458231558378116 0.5173424523693209
0.40061174900029073 0.4665363947239862 0.5173424523693209
0.40080143100021814 0.4684904738641915 0.5212506106497312
0.4009911699999975 0.4684904738641915 0.524181729360039
0.4011811850000413 0.4782608695652173 0.5212506106497312
0.40137027500031763 0.4763067904250122 0.5144113336590133
0.4015591430002132 0.47923790913532005 0.4948705422569615
0.401749029000257 0.47728382999511476 0.4636052760136786
0.4019378970001526 0.47728382999511476 0.4206155349291647
0.40212680200011164 0.47435271128480694 0.3737176355642404
0.4023163179999756 0.47239863214460187 0.3131411822178798
0.4025058520001039 0.4684904738641915 0.2584269662921348
0.40269447900027444 0.46458231558378116 0.20078163165608198
0.40288442100018074 0.45969711773326827 0.14704445530043975
0.4030774930001826 0.46165119687347334 0.09330727894479729
0.4032689529999516 0.4509037616023448 0.049340498290180834
0.40345941300029153 0.44894968246213973 0.02002931118710305
0.4036505770000076 0.44406448461162684 0.005373717635564157
0.40384003799999846 0.441133365901319 0.007327796775769446
0.4040289610002219 0.441133365901319 0.030776746458231585
0.4042182360003608 0.441133365901319 0.07181240840254022
0.4044072330002564 0.44211040547142155 0.12750366389838796
0.40459608300034233 0.4430874450415241 0.1831949193942355
0.4047856540000794 0.4430874450415241 0.23790913531998048
0.40497492900021825 0.4430874450415241 0.28480703468490476
0.40516448200014565 0.44894968246213973 0.32975085490962375
0.40535481300003084 0.4509037616023448 0.3688324377137273
0.4055441990003601 0.45188080117244755 0.4040058622374205
0.40573460399991745 0.457743038593063 0.4323400097703958
0.4059244720001516 0.4538348803126526 0.45481191988275516
0.40611467300004733 0.45676599902296044 0.4782608695652173
0.4063040030000593 0.45969711773326827 0.4978016609672691
0.40649407499995505 0.46458231558378116 0.5134342940889105
0.4066836649999459 0.46458231558378116 0.5261358085002443
0.406874198999958 0.46165119687347334 0.5388373229115779
0.40706530800025575 0.4606741573033708 0.5525158768930141
0.4072548240001197 0.45676599902296044 0.5740107474352711
0.4074437280000893 0.45481191988275516 0.58866634098681
0.4076328740002282 0.4538348803126526 0.6042989741084515
0.4078216490001978 0.4528578407425501 0.621885686370298
0.4080103690002943 0.45481191988275516 0.6384953590620419
0.4081990140002745 0.45676599902296044 0.661944308744504
0.4083912710002551 0.45969711773326827 0.6902784562774793
0.4085795460000554 0.457743038593063 0.7156814851001465
0.4087687100000039 0.4587200781631655 0.7361993160723008
0.4089575410002908 0.4587200781631655 0.7518319491939423
0.4091460009999537 0.45969711773326827 0.7625793844650708
0.40933505400016656 0.4655593551538837 0.7703957010258915
0.4095237920000727 0.46262823644357587 0.7723497801660968
0.40971269700003177 0.46262823644357587 0.7772349780166097
0.40990136100026575 0.46458231558378116 0.7850512945774304
0.4100904140000239 0.4636052760136786 0.7723497801660968
0.41027907800025787 0.46262823644357587 0.7576941866145579
0.4104683720001958 0.4587200781631655 0.7391304347826086
0.4106577020002078 0.46262823644357587 0.7117733268197362
0.4108466440002303 0.45676599902296044 0.6746458231558379
0.41104253000003155 0.457743038593063 0.6209086468001954
0.4112329720001071 0.457743038593063 0.5701025891548608
0.4114229140000134 0.44894968246213973 0.5212506106497312
0.41161283700012063 0.44699560332193444 0.4753297508549097
0.4118023159999211 0.441133365901319 0.4460185637518319
0.41199173900031383 0.4352711284807034 0.4235466536394723
0.41218079200007196 0.4333170493404983 0.4079140205178309
0.41237075300023207 0.431362970200293 0.4040058622374205
0.4125606580000749 0.431362970200293 0.39716658524670256
0.4127501180000763 0.42940889106008795 0.3961895456765998
0.41293833700001414 0.42940889106008795 0.4010747435271129
0.41312800200012134 0.4284318514899854 0.412799218368344
0.41331738799999584 0.4264777723497801 0.4235466536394723
0.4135077559999445 0.4255007327796776 0.4352711284807034
0.41369766000025265 0.42745481191988266 0.4430874450415241
0.41388708400018004 0.4303859306301905 0.45676599902296044
0.41407698800003345 0.4352711284807034 0.4655593551538837
0.41426656000021467 0.4352711284807034 0.47435271128480694
0.41445605700027954 0.4382022471910112 0.4782608695652173
0.41464553600008003 0.4401563263312165 0.4831460674157304
0.41483484800028236 0.4450415241817294 0.4851001465559355
0.4150337710002532 0.44992672203224227 0.4909623839765511
0.41522550900026545 0.44894968246213973 0.4938935026868587
0.4154155989999708 0.45481191988275516 0.5036638983878847
0.4156051340000886 0.4528578407425501 0.5056179775280898
0.415794687000016 0.4538348803126526 0.5134342940889105
0.4159843689999434 0.4528578407425501 0.5114802149487054
0.4161734780000188 0.4557889594528579 0.5026868588177822
