0 0.45969711773326827 0.4382022471910112
0.00046186400004444295 0.46165119687347334 0.42256961406936977
0.0007839519998924516 0.46262823644357587 0.4176844162188569
0.0010360960000070918 0.46165119687347334 0.4303859306301905
0.0012313530000938044 0.46165119687347334 0.4430874450415241
0.0014238869998735026 0.46165119687347334 0.4665363947239862
0.0016169959999388084 0.46262823644357587 0.4851001465559355
0.0018079750002470973 0.46458231558378116 0.512457254518808
0.001999713000259362 0.46262823644357587 0.5329750854909623
0.00219219200016596 0.4665363947239862 0.550561797752809
0.002389892999872245 0.46165119687347334 0.5622862725940401
0.002581575000021985 0.4606741573033708 0.5710796287249633
0.0027730540000447945 0.46165119687347334 0.5652173913043479
0.002963347999866528 0.45481191988275516 0.550561797752809
0.0031578819998685503 0.4528578407425501 0.5319980459208598
0.0033491760000288195 0.4538348803126526 0.5065950170981925
0.0035403030001361913 0.4528578407425501 0.4880312652662433
0.0037309670001377526 0.4430874450415241 0.46946751343429405
0.003921427000022959 0.4450415241817294 0.4538348803126526
0.004112183999950503 0.44699560332193444 0.44406448461162684
0.004302625000036642 0.44406448461162684 0.4352711284807034
0.00449280800012275 0.44406448461162684 0.4255007327796776
0.0046832500001983135 0.441133365901319 0.4157303370786516
0.0048733210001046245 0.4450415241817294 0.40889106008793363
0.005063484999936918 0.4430874450415241 0.40009770395701016
0.0052542970001923095 0.44406448461162684 0.3776257938446508
0.005444332000024588 0.4460185637518319 0.3610161211529066
0.005633976999888546 0.44211040547142155 0.3258426966292134
0.005824067000048672 0.43722520762090866 0.29457743038593054
0.006013602000166429 0.4382022471910112 0.2711284807034684
0.006216116999894439 0.43722520762090866 0.26722032242305804
0.006415373999971052 0.4333170493404983 0.2808988764044944
0.006645149000178208 0.43917928676111373 0.31216414264777725
0.006982996000260755 0.4333170493404983 0.38251099169516367
0.0073220650001530885 0.4401563263312165 0.4352711284807034
0.007696318999933283 0.4460185637518319 0.5183194919394236
0.008345477000148094 0.4479726428920372 0.5300439667806547
0.008607862000189925 0.4479726428920372 0.5134342940889105
0.008822730000247248 0.44992672203224227 0.4880312652662433
0.009030116000303678 0.4479726428920372 0.47142159257449934
0.009238113000265002 0.44894968246213973 0.4538348803126526
0.009450684000057663 0.4479726428920372 0.441133365901319
0.009658496000156447 0.4528578407425501 0.4264777723497801
0.009863345000212576 0.45188080117244755 0.4137762579384465
0.010063193999940268 0.4528578407425501 0.39912066438690763
0.010261301999889838 0.44894968246213973 0.3834880312652662
0.010510187999898335 0.45188080117244755 0.3786028334147533
0.010719666000113648 0.44894968246213973 0.3834880312652662
0.010956645000078424 0.44894968246213973 0.39228138739618945
0.011298047000309452 0.45188080117244755 0.44699560332193444
0.011838817999887397 0.45188080117244755 0.4684904738641915
0.012048962999870128 0.44894968246213973 0.4802149487054226
0.012255792999894766 0.44992672203224227 0.5192965315095261
0.012733805000152643 0.45188080117244755 0.5398143624816805
0.012951932000305533 0.45481191988275516 0.550561797752809
0.013155187999927875 0.4538348803126526 0.5554469956033219
0.013356777999888436 0.45676599902296044 0.5554469956033219
0.013560460000007879 0.457743038593063 0.5495847581827065
0.013763365000158956 0.46165119687347334 0.5388373229115779
0.01396897299991906 0.457743038593063 0.5349291646311676
0.014171932999943238 0.46165119687347334 0.5212506106497312
0.014410022999982175 0.457743038593063 0.5144113336590133
0.014610650000122405 0.46165119687347334 0.5065950170981925
0.014809072999923956 0.46165119687347334 0.49877870053737183
0.015247806999923341 0.457743038593063 0.4606741573033708
0.015615043000252626 0.4538348803126526 0.4157303370786516
0.016324311000062153 0.4528578407425501 0.4206155349291647
0.01658323299989206 0.45188080117244755 0.43429408891060084
0.01678882300029727 0.44894968246213973 0.4479726428920372
0.016992172000300343 0.4479726428920372 0.46165119687347334
0.017201114000272355 0.44894968246213973 0.4704445530043966
0.01740281499996854 0.45676599902296044 0.47728382999511476
0.01760529300008784 0.44894968246213973 0.47142159257449934
0.017813050000313524 0.44992672203224227 0.4733756717147044
0.01802504700026475 0.4509037616023448 0.4782608695652173
0.01823035899997194 0.4538348803126526 0.46458231558378116
0.018438967000292905 0.45481191988275516 0.4430874450415241
0.018652779000149167 0.45188080117244755 0.41670737664875435
0.018865072000153305 0.45676599902296044 0.37957987298485585
0.019072402999881888 0.45481191988275516 0.3502686858817783
0.019277733000308217 0.46262823644357587 0.3238886174890083
0.019487303999994765 0.4587200781631655 0.31216414264777725
0.019696876000125485 0.457743038593063 0.3111871030776747
0.01990439100018193 0.4606741573033708 0.3111871030776747
0.020108203000290814 0.45676599902296044 0.31704934049829014
0.020309367000209022 0.45969711773326827 0.3258426966292134
0.02050925300000017 0.457743038593063 0.3385442110405472
0.020715398999982426 0.45481191988275516 0.358085002442599
0.020968580000044312 0.457743038593063 0.3834880312652662
0.02117983700009063 0.4606741573033708 0.40986809965803617
0.02137781500005076 0.45481191988275516 0.44211040547142155
0.021581478999905812 0.457743038593063 0.4753297508549097
0.021780106000278465 0.45676599902296044 0.5017098192476794
0.021984140000313346 0.45481191988275516 0.5271128480703469
0.022187229999872216 0.45676599902296044 0.5476306790425012
0.022404949000247143 0.4557889594528579 0.5740107474352711
0.02260453899998538 0.45481191988275516 0.58866634098681
0.022801702999913687 0.44992672203224227 0.5915974596971176
0.023008645000118122 0.4587200781631655 0.5945285784074255
0.023214382999867667 0.4538348803126526 0.576941866145579
0.023468897999919136 0.4557889594528579 0.5642403517342451
0.023678932000166242 0.4538348803126526 0.5554469956033219
0.02387298500025281 0.45481191988275516 0.5554469956033219
0.024063888999990013 0.4587200781631655 0.5574010747435272
0.024256108999907156 0.4538348803126526 0.5583781143136297
0.02444656900024711 0.4528578407425501 0.5613092330239375
0.024637196000185213 0.4528578407425501 0.5593551538837322
0.024828267999964737 0.45481191988275516 0.5652173913043479
0.025018747000103758 0.45676599902296044 0.5622862725940401
0.025215187999947375 0.45481191988275516 0.5642403517342451
0.025407500000255823 0.4538348803126526 0.5661944308744504
0.02559868300022572 0.4557889594528579 0.5759648265754762
0.025799921000270842 0.45481191988275516 0.5828041035661944
0.026007861999914894 0.45481191988275516 0.6082071323888618
0.02621347100011917 0.4528578407425501 0.6150464093795798
0.02641878300028111 0.4538348803126526 0.6365412799218368
0.026625206000062462 0.4528578407425501 0.6492427943331704
0.02682748100005483 0.457743038593063 0.578895945285784
0.027790171000106056 0.4636052760136786 0.495847581827064
0.02810172199997396 0.4636052760136786 0.4059599413776258
0.02837533000001713 0.4636052760136786 0.3551538837322912
0.028619308000088495 0.46165119687347334 0.31998045920859797
0.02885608199994749 0.45676599902296044 0.22423058133854412
0.030119527999886486 0.42256961406936977 0.12164142647777232
0.030701963999945292 0.4186614557889594 0.25451880801172444
0.03250842099987494 0.4401563263312165 0.47923790913532005
0.03288122999992993 0.4401563263312165 0.5290669272105519
0.03317756000024019 0.44406448461162684 0.6834391792867611
0.0341719349999039 0.4587200781631655 0.7195896433805569
0.03447987500021554 0.46458231558378116 0.726428920371275
0.03470029800018892 0.467513434294089 0.7078651685393258
0.0349116470001718 0.4665363947239862 0.6844162188568637
0.03514568099990356 0.4665363947239862 0.6697606253053248
0.035430991999874095 0.46946751343429405 0.6658524670249144
0.035633266999866464 0.4665363947239862 0.6541279921836833
0.03585909699995682 0.4655593551538837 0.6248168050806058
0.03606635300002381 0.4665363947239862 0.576941866145579
0.03628360900029293 0.4665363947239862 0.5085490962383976
0.03648881000026449 0.46458231558378116 0.43429408891060084
0.03672097400021812 0.4636052760136786 0.3756717147044455
0.037283133000073576 0.46262823644357587 0.2867611138251098
0.03751168500002677 0.46262823644357587 0.28285295554469947
0.03858472599995366 0.43917928676111373 0.431362970200293
0.03915440299988404 0.44211040547142155 0.4382022471910112
0.039466917000027024 0.43917928676111373 0.4704445530043966
0.03970596899989687 0.4479726428920372 0.5017098192476794
0.03989952200026892 0.43917928676111373 0.5310210063507572
0.04008948299997428 0.44406448461162684 0.5554469956033219
0.040279258000282425 0.44211040547142155 0.5652173913043479
0.04047440300018934 0.44211040547142155 0.5603321934538348
0.040664475000085076 0.4479726428920372 0.5564240351734244
0.04085252799995942 0.44699560332193444 0.5583781143136297
0.04104076600015105 0.44699560332193444 0.5593551538837322
0.041228319000310876 0.44699560332193444 0.5583781143136297
0.04141981600014333 0.4538348803126526 0.5466536394723986
0.041607240000303136 0.4509037616023448 0.533952125061065
0.04179453300002933 0.45676599902296044 0.5085490962383976
0.04198173400027372 0.44992672203224227 0.4684904738641915
0.042168417000084446 0.44894968246213973 0.4176844162188569
0.04238832100008949 0.4479726428920372 0.38641914997557403
0.04257717100017544 0.4528578407425501 0.3707865168539326
0.042765094000060344 0.45481191988275516 0.3502686858817783
0.04295303600019906 0.4557889594528579 0.32486565705911086
0.043143200000031356 0.45676599902296044 0.2857840742550073
0.04333115999997972 0.457743038593063 0.24181729360039084
0.043519009000192455 0.4587200781631655 0.2134831460674158
0.04370685899993987 0.46165119687347334 0.1958964338055691
0.04389526300019497 0.4665363947239862 0.20175867122618474
0.044084445999942545 0.46262823644357587 0.22032242305813377
0.04427183200004947 0.4655593551538837 0.24865657059110902
0.04445884799997657 0.4636052760136786 0.28480703468490476
0.0446474750001471 0.45676599902296044 0.32486565705911086
0.04483538000022236 0.45969711773326827 0.35906204201270153
0.04502474800028722 0.45481191988275516 0.3903273082559844
0.04521261600029902 0.4557889594528579 0.42256961406936977
0.045400076000078116 0.4509037616023448 0.45676599902296044
0.045587221999994654 0.44894968246213973 0.4763067904250122
0.04577471900029195 0.45188080117244755 0.4929164631167562
0.04596128999992288 0.4528578407425501 0.5007327796775769
0.04614849200015669 0.45188080117244755 0.49682462139716654
0.04634815500003242 0.45676599902296044 0.48900830483634583
0.04654768999989756 0.457743038593063 0.4802149487054226
0.04674833500030218 0.4587200781631655 0.47142159257449934
0.046937407000314124 0.4538348803126526 0.4509037616023448
0.047125034000146115 0.45481191988275516 0.4303859306301905
0.04731195700014723 0.4528578407425501 0.4137762579384465
0.047499676999905205 0.4509037616023448 0.39912066438690763
0.04768830400007573 0.44992672203224227 0.40205178309721545
0.047876356999950076 0.44894968246213973 0.4186614557889594
0.04806383499999356 0.44992672203224227 0.431362970200293
0.04825092500004757 0.44992672203224227 0.4450415241817294
0.048440404000302806 0.44699560332193444 0.457743038593063
0.048641439000221 0.4479726428920372 0.46165119687347334
0.04890076800029419 0.44406448461162684 0.4802149487054226
0.049127728000257775 0.4460185637518319 0.5144113336590133
0.04933729899994432 0.4460185637518319 0.5486077186126037
0.04952876000015749 0.44992672203224227 0.5945285784074255
0.04971744200020112 0.44894968246213973 0.6345872007816316
0.04990471700011767 0.45188080117244755 0.6648754274548119
0.050092566999865085 0.4460185637518319 0.6678065461651197
0.0503129160001663 0.4460185637518319 0.650219833903273
0.05051485700005287 0.4430874450415241 0.6140693698094772
0.05070746599994891 0.4450415241817294 0.5730337078651686
0.050908685000194964 0.44211040547142155 0.5368832437713726
0.051114681999933964 0.44406448461162684 0.512457254518808
0.05131427200012695 0.44992672203224227 0.4782608695652173
0.05151921400010906 0.4460185637518319 0.43722520762090866
0.05171984100024929 0.4479726428920372 0.36980947728383007
0.052001947999997356 0.4460185637518319 0.3307278944797265
0.05220301899998958 0.4479726428920372 0.29750854909623836
0.05243057100005899 0.4430874450415241 0.26428920371275044
0.052707901000303536 0.44406448461162684 0.2330239374694676
0.05296802700013359 0.45188080117244755 0.22032242305813377
0.05353453799989438 0.4460185637518319 0.32681973619931615
0.05390058800003317 0.45188080117244755 0.38251099169516367
0.05416541800013874 0.46262823644357587 0.42159257449926724
0.05443976600008682 0.45969711773326827 0.43917928676111373
0.05464329999995243 0.4587200781631655 0.4538348803126526
0.0548763520000648 0.457743038593063 0.4606741573033708
0.05507123899997168 0.4606741573033708 0.46946751343429405
0.05526875400028075 0.46165119687347334 0.4880312652662433
0.055464196000230004 0.4606741573033708 0.5065950170981925
0.055702082000152586 0.46262823644357587 0.5368832437713726
0.055909227000029205 0.46165119687347334 0.5574010747435272
0.05611907599995902 0.4636052760136786 0.5828041035661944
0.05633062900005825 0.46262823644357587 0.5984367366878358
0.05654079200030537 0.46262823644357587 0.6033219345383487
0.0567384010000751 0.4606741573033708 0.6033219345383487
0.05692575000011857 0.4606741573033708 0.5984367366878358
0.05711387700011983 0.46165119687347334 0.5876893014167073
0.05730081899992001 0.45676599902296044 0.5847581827063997
0.0574890940001751 0.4538348803126526 0.5632633121641426
0.05767661000027147 0.45188080117244755 0.5486077186126037
0.05786779300024136 0.4538348803126526 0.5290669272105519
0.05805641999995714 0.44992672203224227 0.5056179775280898
0.058249806000276294 0.44699560332193444 0.4811919882755251
0.058481210000081774 0.44406448461162684 0.45969711773326827
0.05867685500015796 0.44406448461162684 0.441133365901319
0.05955149200008236 0.441133365901319 0.3952125061064973
0.059805358000176057 0.4479726428920372 0.41670737664875435
0.060161464999964664 0.4509037616023448 0.4255007327796776
0.060366517000147724 0.457743038593063 0.4352711284807034
0.06057766300000367 0.46458231558378116 0.4382022471910112
0.06084506600018358 0.4655593551538837 0.4430874450415241
0.06103819300005853 0.4684904738641915 0.43624816805080613
0.06122652400017614 0.47142159257449934 0.43429408891060084
0.061415892000241 0.4753297508549097 0.4284318514899854
0.061612481999873125 0.47239863214460187 0.43429408891060084
0.061807664000298246 0.47239863214460187 0.4450415241817294
0.06199508700001388 0.47239863214460187 0.467513434294089
0.06218288099989877 0.47142159257449934 0.49975574010747437
0.06314768299989737 0.45969711773326827 0.5486077186126037
0.06342064199998276 0.4509037616023448 0.5456765999022961
0.06366099000024406 0.44699560332193444 0.5349291646311676
0.06387815400012187 0.44406448461162684 0.5202735710796287
0.06408505800027342 0.441133365901319 0.5075720566682951
0.0647035130000404 0.4323400097703958 0.44894968246213973
0.06492721399990842 0.431362970200293 0.41670737664875435
0.06513026599986915 0.4264777723497801 0.3776257938446508
0.0653330600002846 0.42452369320957506 0.31021006350757196
0.0660769569999502 0.4157303370786516 0.3365901319003419
0.06634787900020456 0.41963849535906195 0.5632633121641426
0.06746477100023185 0.441133365901319 0.578895945285784
0.06767539800011946 0.441133365901319 0.5876893014167073
0.06787411699997392 0.4430874450415241 0.5857352222765022
0.06806292900000699 0.4450415241817294 0.5730337078651686
0.06825470500007214 0.44406448461162684 0.5495847581827065
0.06844268300028489 0.4450415241817294 0.512457254518808
0.06863127299993721 0.44894968246213973 0.4704445530043966
0.0688234930003091 0.44699560332193444 0.42452369320957506
0.0690106760002891 0.4479726428920372 0.3903273082559844
0.06919828399986727 0.44406448461162684 0.3678553981436248
0.06938602199988964 0.44894968246213973 0.36199316072300936
0.06957318600007056 0.4479726428920372 0.37176355642403514
0.06976040600011402 0.44992672203224227 0.39228138739618945
0.06994753300023149 0.4509037616023448 0.4176844162188569
0.0701346230002855 0.45188080117244755 0.4460185637518319
0.0703269350001392 0.4538348803126526 0.47239863214460187
0.07051804399998218 0.45481191988275516 0.4948705422569615
0.07070965200000501 0.457743038593063 0.5017098192476794
0.0708979089999957 0.4587200781631655 0.49877870053737183
0.07108396200010247 0.45969711773326827 0.48705422569614076
0.07127144100013538 0.45969711773326827 0.48216902784562765
0.07172273100013626 0.4606741573033708 0.49682462139716654
0.07193326500009789 0.46165119687347334 0.5095261358085001
0.0721222070001204 0.4587200781631655 0.5095261358085001
0.07231009299994184 0.45969711773326827 0.5134342940889105
0.07249810900020748 0.4538348803126526 0.5056179775280898
0.07268536600031439 0.4528578407425501 0.4929164631167562
0.07287230700012515 0.4509037616023448 0.4704445530043966
0.07305911999992531 0.44699560332193444 0.4323400097703958
0.07324585800006389 0.44699560332193444 0.3756717147044455
0.07343368900001224 0.44406448461162684 0.3150952613580851
0.07362209300026734 0.4430874450415241 0.255495847581827
0.07380985000008877 0.441133365901319 0.19882755251587692
0.0741776600002595 0.4430874450415241 0.20762090864680016
0.07438874900026349 0.4450415241817294 0.23009281875915977
0.07457689500006381 0.4430874450415241 0.26917440156326333
0.07476450400008616 0.4430874450415241 0.3082559843673669
0.07495346399991831 0.44211040547142155 0.3414753297508548
0.07652344200005246 0.4557889594528579 0.4733756717147044
0.07681949400011945 0.457743038593063 0.4665363947239862
0.07704102800016699 0.45676599902296044 0.4538348803126526
0.0772586359998968 0.4557889594528579 0.4538348803126526
0.07748733600010382 0.45676599902296044 0.45676599902296044
0.07769353699995918 0.457743038593063 0.4655593551538837
0.0778939229999196 0.45676599902296044 0.47435271128480694
0.0780961240002398 0.45969711773326827 0.4811919882755251
0.07863256100017679 0.4557889594528579 0.45969711773326827
0.07975785999997242 0.457743038593063 0.46458231558378116
0.08086708600012571 0.45188080117244755 0.5212506106497312
0.08158853900022223 0.45481191988275516 0.5652173913043479
0.0818683500001498 0.4538348803126526 0.5837811431362969
0.08210595800028386 0.45481191988275516 0.5915974596971176
0.08239730500008591 0.4538348803126526 0.5837811431362969
0.08264217200030544 0.457743038593063 0.5720566682950659
0.08283383600019079 0.45481191988275516 0.5642403517342451
0.08302364900009707 0.4557889594528579 0.5486077186126037
0.08321142400018289 0.4587200781631655 0.5300439667806547
0.08339995799997268 0.457743038593063 0.5105031753786029
0.08358782599998449 0.45969711773326827 0.4811919882755251
0.08377608299997519 0.45676599902296044 0.4509037616023448
0.08396758000026239 0.45481191988275516 0.42256961406936977
0.08415683700013687 0.4538348803126526 0.39423546653639474
0.08434457500015924 0.4587200781631655 0.36199316072300936
0.08453216499992777 0.45188080117244755 0.3356130923302394
0.0847197180000876 0.4528578407425501 0.30923302393746943
0.08490688200026852 0.4538348803126526 0.29653150952613583
0.08509339800002635 0.4557889594528579 0.29653150952613583
0.08528093199993236 0.4528578407425501 0.30434782608695654
0.08546763300000748 0.45969711773326827 0.3180263800683927
0.08565453800019895 0.4528578407425501 0.3307278944797265
0.08587331299986545 0.4509037616023448 0.3385442110405472
0.08606405099999392 0.4509037616023448 0.33952125061064975
0.08625156700009029 0.4479726428920372 0.3404982901807523
0.08647119400029624 0.4479726428920372 0.3385442110405472
0.08665919100030806 0.45188080117244755 0.35710796287249624
0.08684713299999203 0.44992672203224227 0.3854421104054715
0.08703477800008841 0.4528578407425501 0.42256961406936977
0.08722236800031169 0.45188080117244755 0.4509037616023448
0.08740921800017531 0.4528578407425501 0.47435271128480694
0.08759660400028224 0.4528578407425501 0.48900830483634583
0.08782974899986584 0.4538348803126526 0.5075720566682951
0.08802161699986755 0.4557889594528579 0.524181729360039
0.08820907700010139 0.4538348803126526 0.533952125061065
0.08839709299991227 0.4538348803126526 0.5515388373229115
0.08858618300018861 0.45481191988275516 0.5730337078651686
0.08877816199992594 0.45188080117244755 0.6023448949682462
0.08897610300027736 0.44992672203224227 0.6170004885197851
0.08917026700009956 0.4509037616023448 0.6267708842208108
0.08938048700019863 0.44992672203224227 0.6228627259404005
0.08958200200004285 0.44894968246213973 0.6091841719589643
0.08980912900005933 0.45481191988275516 0.5837811431362969
0.09001514500005214 0.44992672203224227 0.5652173913043479
0.09020379000003231 0.4509037616023448 0.5368832437713726
0.09041186100012055 0.4528578407425501 0.5163654127992183
0.09060569200028112 0.4509037616023448 0.49682462139716654
0.0910504450002918 0.45188080117244755 0.5007327796775769
0.09127207200026533 0.44992672203224227 0.5114802149487054
0.09147736500017345 0.44992672203224227 0.522227650219834
0.09166617700020652 0.44894968246213973 0.5202735710796287
0.09188647100017988 0.44894968246213973 0.5095261358085001
0.09209709700007807 0.4509037616023448 0.4978016609672691
0.09228666900025928 0.4479726428920372 0.48900830483634583
0.09247670300010213 0.44699560332193444 0.48705422569614076
0.09266403399988121 0.45188080117244755 0.4929164631167562
0.09285299400016811 0.4528578407425501 0.5134342940889105
0.09303952900017975 0.4587200781631655 0.5280898876404494
0.09322689700002229 0.4538348803126526 0.5466536394723986
0.0934142639998754 0.4528578407425501 0.5554469956033219
0.09360239099987666 0.4509037616023448 0.5603321934538348
0.09379179600000498 0.4528578407425501 0.5583781143136297
0.0939789050003128 0.45188080117244755 0.5544699560332194
0.09416560599993318 0.44992672203224227 0.5486077186126037
0.09438021400001162 0.4509037616023448 0.5495847581827065
0.09456735899993873 0.45188080117244755 0.5290669272105519
0.09475430100019366 0.4528578407425501 0.49877870053737183
0.09494198399988818 0.4528578407425501 0.45188080117244755
0.09512914800006911 0.4538348803126526 0.3981436248168051
0.09531671900003857 0.45481191988275516 0.3385442110405472
0.09550397600014549 0.45676599902296044 0.2779677576941866
0.09569080700021004 0.4538348803126526 0.2330239374694676
0.09587734100023226 0.4528578407425501 0.20762090864680016
0.09606411699996897 0.44992672203224227 0.20664386907669763
0.0962504290000652 0.45188080117244755 0.22227650219833905
0.09643631500011907 0.4509037616023448 0.2506106497313141
0.09662257199988744 0.4479726428920372 0.2711284807034684
0.09680897699990965 0.45481191988275516 0.2857840742550073
0.09699551099993187 0.44211040547142155 0.29262335124572547
0.09718191599995407 0.4450415241817294 0.2984855886663409
0.09736945000031483 0.44406448461162684 0.3053248656570591
0.09755563299995629 0.43917928676111373 0.31021006350757196
0.0977429449999363 0.43722520762090866 0.32193453834880303
0.09792977600000086 0.43722520762090866 0.3336590131900341
0.09811775500020303 0.4352711284807034 0.33952125061064975
0.09830736300000353 0.441133365901319 0.34733756717147046
0.0984957310001846 0.4352711284807034 0.3502686858817783
0.0986825800000588 0.43624816805080613 0.3531998045920859
0.09886916999994355 0.43722520762090866 0.34636052760136793
0.09905663100016682 0.4382022471910112 0.33463605276013686
0.09924377600009393 0.4450415241817294 0.3160723009281876
0.09943470000007437 0.441133365901319 0.29457743038593054
0.09962240100003328 0.44211040547142155 0.2867611138251098
0.09980908300030933 0.4460185637518319 0.29164631167562294
0.09999626600028932 0.4479726428920372 0.30434782608695654
0.10018513400018492 0.4509037616023448 0.33463605276013686
0.10037272399995345 0.4509037616023448 0.3678553981436248
0.10056011000006038 0.45188080117244755 0.4049829018075233
0.10074729300004037 0.44992672203224227 0.43917928676111373
0.10093416000017896 0.4587200781631655 0.47142159257449934
0.10112097299997913 0.4606741573033708 0.49877870053737183
0.10130924800023422 0.45676599902296044 0.5163654127992183
0.10149574500019298 0.457743038593063 0.5368832437713726
0.10168359399995097 0.457743038593063 0.5349291646311676
0.10187048099987805 0.45676599902296044 0.5359062042012701
0.10205718199995317 0.457743038593063 0.5329750854909623
0.10224510500029282 0.457743038593063 0.5232046897899365
0.10244247299988274 0.45969711773326827 0.5065950170981925
0.10263535900003262 0.4587200781631655 0.4851001465559355
0.10282670800006599 0.4587200781631655 0.4704445530043966
0.10301742799993008 0.4587200781631655 0.45481191988275516
0.10320811000019603 0.45969711773326827 0.441133365901319
0.10339955200015538 0.45676599902296044 0.43624816805080613
0.10358967899992422 0.457743038593063 0.43624816805080613
0.10377978799988341 0.4587200781631655 0.44699560332193444
0.10397045199988497 0.45676599902296044 0.46458231558378116
0.10416120800027784 0.4636052760136786 0.4909623839765511
0.10435107600005722 0.4587200781631655 0.5251587689301416
0.10454122200007987 0.4587200781631655 0.5642403517342451
0.10473110800012364 0.45969711773326827 0.6072300928187591
0.10492171600026268 0.45676599902296044 0.6482657547630679
0.1051178800003072 0.45676599902296044 0.6844162188568637
0.10530969199999163 0.457743038593063 0.7020029311187104
0.1055208190000485 0.45481191988275516 0.7088422081094283
0.10571137200031444 0.4528578407425501 0.6961406936980947
0.10590175800007273 0.45188080117244755 0.6697606253053248
0.10609227400027521 0.45481191988275516 0.6326331216414265
0.10629464200019356 0.4509037616023448 0.5964826575476307
0.10648710200030109 0.4460185637518319 0.5652173913043479
0.10667728499993245 0.44894968246213973 0.5486077186126037
0.10686704099998678 0.44699560332193444 0.5466536394723986
0.10705648300017856 0.44406448461162684 0.5534929164631168
0.10724646200014831 0.4509037616023448 0.5603321934538348
0.1074357739998959 0.44894968246213973 0.5554469956033219
0.10762543800001367 0.4479726428920372 0.522227650219834
0.10781567599997288 0.44992672203224227 0.4753297508549097
0.10800659999995332 0.4479726428920372 0.4176844162188569
0.1081959299999653 0.44894968246213973 0.3688324377137273
0.10838624300004085 0.44894968246213973 0.33952125061064975
0.10857661000000007 0.45188080117244755 0.3424523693209576
0.10876642199991693 0.45481191988275516 0.3756717147044455
0.10895595700003469 0.4538348803126526 0.431362970200293
0.10914606500000446 0.4538348803126526 0.4909623839765511
0.10933598900010111 0.4509037616023448 0.550561797752809
0.10952635600006033 0.44894968246213973 0.5964826575476307
0.10971687200026281 0.4479726428920372 0.6160234489496825
0.1099077590001798 0.44699560332193444 0.595505617977528
0.11009888600028717 0.44699560332193444 0.5398143624816805
0.11029101300027833 0.45188080117244755 0.4538348803126526
0.11048121400017408 0.4509037616023448 0.38446507083536874
0.11067324800023925 0.4528578407425501 0.3277967757694187
0.11086354200006099 0.45481191988275516 0.2867611138251098
0.1110538349998933 0.4538348803126526 0.25744992672203226
0.11124329599988414 0.4587200781631655 0.24767953102100626
0.11143342300010772 0.45676599902296044 0.24767953102100626
0.1116238270001304 0.457743038593063 0.2515876893014166
0.11181384300016362 0.45676599902296044 0.2633121641426477
0.1120035439998901 0.45676599902296044 0.27210552027357116
0.11219313399988096 0.4538348803126526 0.2838299951148022
0.11238320600023144 0.45481191988275516 0.3063019052271616
0.11257235099992613 0.45188080117244755 0.32486565705911086
0.11276249699994878 0.4479726428920372 0.3424523693209576
0.11295199400001366 0.4450415241817294 0.3512457254518808
0.11314132500001506 0.441133365901319 0.36003908158280407
0.11340698799995153 0.4382022471910112 0.3688324377137273
0.1136288739999145 0.4333170493404983 0.41182217879824123
0.11416295900016848 0.431362970200293 0.45188080117244755
0.11439345600001616 0.4333170493404983 0.48900830483634583
0.11458786100001817 0.4382022471910112 0.5290669272105519
0.11478013600026316 0.441133365901319 0.5593551538837322
0.11497229999986303 0.44211040547142155 0.5964826575476307
0.1151641300002666 0.4460185637518319 0.6170004885197851
0.11535472000014124 0.45188080117244755 0.6394723986321447
0.11554527299995243 0.4479726428920372 0.6531509526135808
0.11573589999989053 0.4509037616023448 0.6590131900341964
0.11592713800018828 0.45188080117244755 0.6570591108939912
0.11611772800006293 0.4528578407425501 0.6541279921836833
0.11630757800003266 0.4557889594528579 0.6404494382022472
0.11649746400007643 0.4557889594528579 0.621885686370298
0.11668716500025766 0.45481191988275516 0.595505617977528
0.11687799600031212 0.45676599902296044 0.5603321934538348
0.11707043700016584 0.4557889594528579 0.4978016609672691
0.11726098999997703 0.4557889594528579 0.4401563263312165
0.1174512100001266 0.45481191988275516 0.3639472398632144
0.11764087400024437 0.45481191988275516 0.31021006350757196
0.11783074200002375 0.4528578407425501 0.2535417684416219
0.11802105400010987 0.45481191988275516 0.22129946262823652
0.11821105099988927 0.45188080117244755 0.20273571079628727
0.11840149299996483 0.4557889594528579 0.19785051294577438
0.11859102700009316 0.45676599902296044 0.20175867122618474
0.11878015399997821 0.4557889594528579 0.21934538348803123
0.11897030000000086 0.4587200781631655 0.2457254518808012
0.11916116800011878 0.45969711773326827 0.2730825598436737
0.11935053500019421 0.467513434294089 0.3150952613580851
0.11954045900029087 0.46262823644357587 0.348314606741573
0.11972977100003845 0.46262823644357587 0.3786028334147533
0.11991900900011387 0.4606741573033708 0.40693698094772834
0.12010961800024234 0.45969711773326827 0.4264777723497801
0.12029913300011685 0.46165119687347334 0.44211040547142155
0.12048829800005478 0.4636052760136786 0.44894968246213973
0.12067761000025712 0.46458231558378116 0.4557889594528579
0.12086682900007872 0.4606741573033708 0.45676599902296044
0.12105653000025995 0.457743038593063 0.45481191988275516
0.12124588000006042 0.4557889594528579 0.45188080117244755
0.12143524700013586 0.45676599902296044 0.4528578407425501
0.12162539300015851 0.4557889594528579 0.44894968246213973
0.12181474199996956 0.45481191988275516 0.4450415241817294
0.12200503600024604 0.4557889594528579 0.4401563263312165
0.12221179200014376 0.4606741573033708 0.441133365901319
0.12240780799993445 0.4528578407425501 0.44211040547142155
0.12259976799987271 0.4538348803126526 0.4430874450415241
0.12279400600027657 0.457743038593063 0.4401563263312165
0.12298426300003484 0.45188080117244755 0.43624816805080613
0.12317481600030078 0.4538348803126526 0.4401563263312165
0.12336418399991089 0.4528578407425501 0.44699560332193444
0.12355370000022958 0.44992672203224227 0.457743038593063
0.12374336399989261 0.45188080117244755 0.4763067904250122
0.12393284300014784 0.4509037616023448 0.495847581827064
0.12412228399989544 0.45188080117244755 0.5105031753786029
0.12431280000009792 0.4587200781631655 0.5192965315095261
0.12450196400004643 0.4538348803126526 0.5232046897899365
0.12469186899988927 0.4557889594528579 0.5271128480703469
0.12488190300018687 0.45481191988275516 0.5329750854909623
0.12507138199998735 0.4538348803126526 0.5378602833414754
0.1252611390000311 0.4557889594528579 0.5476306790425012
0.12545008100005361 0.4557889594528579 0.5495847581827065
0.12563942999986466 0.45481191988275516 0.5564240351734244
0.1258292980000988 0.45188080117244755 0.5574010747435272
0.126019314000132 0.4528578407425501 0.5446995603321934
0.1262091630001123 0.44992672203224227 0.5261358085002443
0.12639945699993405 0.4509037616023448 0.5017098192476794
0.12658917599992492 0.44992672203224227 0.4733756717147044
0.12677863699991576 0.44894968246213973 0.4557889594528579
0.12696848599989607 0.4509037616023448 0.43917928676111373
0.1271576310000455 0.44992672203224227 0.43624816805080613
0.12734798100018452 0.4509037616023448 0.4460185637518319
0.12753760800023883 0.4509037616023448 0.4665363947239862
0.12772751200009225 0.45188080117244755 0.48900830483634583
0.1279171950000091 0.4538348803126526 0.5114802149487054
0.1281076549998943 0.45188080117244755 0.522227650219834
0.12829665300023407 0.45969711773326827 0.524181729360039
0.12848639100002401 0.45676599902296044 0.5163654127992183
0.12867538799991962 0.4587200781631655 0.4978016609672691
0.12886494100030177 0.4538348803126526 0.47435271128480694
0.12905780900018726 0.4538348803126526 0.4479726428920372
0.12924893600029463 0.44992672203224227 0.4284318514899854
0.12943934100030674 0.4479726428920372 0.41670737664875435
0.12962907900009668 0.44699560332193444 0.4137762579384465
0.12981850200003464 0.441133365901319 0.41670737664875435
0.13000875900024766 0.43917928676111373 0.4206155349291647
0.13019884899995304 0.43722520762090866 0.4264777723497801
0.13039110499994422 0.4382022471910112 0.42159257449926724
0.1305814540000938 0.43624816805080613 0.40693698094772834
0.13077145199986262 0.43624816805080613 0.3932584269662922
0.13096139400022366 0.43722520762090866 0.38251099169516367
0.13115024299986544 0.43722520762090866 0.3707865168539326
0.1313403140002265 0.4401563263312165 0.3659013190034197
0.13152979300002698 0.43917928676111373 0.37176355642403514
0.13171995700031403 0.441133365901319 0.3776257938446508
0.13190925100025197 0.44406448461162684 0.38641914997557403
0.1320985259999361 0.44699560332193444 0.4040058622374205
0.13228789400000096 0.4460185637518319 0.40693698094772834
0.13247679899996 0.44992672203224227 0.40693698094772834
0.1326668140000038 0.44992672203224227 0.41182217879824123
0.13285649699992064 0.44992672203224227 0.4108451392281387
0.13304562400026043 0.44894968246213973 0.412799218368344
0.13323510300006092 0.45481191988275516 0.41670737664875435
0.13343408199989426 0.4528578407425501 0.4235466536394723
0.13374957699988954 0.45188080117244755 0.4538348803126526
0.13398153700018156 0.4538348803126526 0.4782608695652173
0.13418449700020574 0.4557889594528579 0.5134342940889105
0.13440673500008415 0.45481191988275516 0.5456765999022961
0.13464091700006975 0.45481191988275516 0.5622862725940401
0.13486100599993733 0.45969711773326827 0.5681485100146555
0.13507007799989879 0.46262823644357587 0.5593551538837322
0.13527988900023047 0.46262823644357587 0.5534929164631168
0.13547390500025358 0.4636052760136786 0.5534929164631168
0.13566488400010712 0.4636052760136786 0.5681485100146555
0.1358570669999608 0.46458231558378116 0.5896433805569126
0.1360474900002373 0.4665363947239862 0.6091841719589643
0.13623861699988993 0.467513434294089 0.621885686370298
0.13642779900010282 0.4684904738641915 0.6365412799218368
0.1366185189999669 0.4655593551538837 0.661944308744504
0.1368124240002544 0.4655593551538837 0.659990229604299
0.13700247699989632 0.46458231558378116 0.6551050317537861
0.13719127000013032 0.46458231558378116 0.6394723986321447
0.13738165699987803 0.46262823644357587 0.6228627259404005
0.13757178400010162 0.45969711773326827 0.6042989741084515
0.13776183700019828 0.4606741573033708 0.5896433805569126
0.13795161200005168 0.46262823644357587 0.5740107474352711
0.1381416280000849 0.4587200781631655 0.5534929164631168
0.1383388100002776 0.45481191988275516 0.5036638983878847
0.13863854700002776 0.44894968246213973 0.43624816805080613
0.13885521000020162 0.44406448461162684 0.35710796287249624
0.13904789300022458 0.4401563263312165 0.2711284807034684
0.13923789000000397 0.43722520762090866 0.19491939423546656
0.139428147000217 0.431362970200293 0.13141182217879832
0.1396186070001022 0.43722520762090866 0.09233023937469476
0.13980866000019887 0.4284318514899854 0.07474352711284804
0.13999863900016862 0.4303859306301905 0.06692721055202733
0.14018750700006422 0.4323400097703958 0.07474352711284804
0.14037735600004453 0.431362970200293 0.09721543722520765
0.14056670500031032 0.431362970200293 0.14215925744992663
0.14075592500012135 0.43429408891060084 0.20078163165608198
0.14094562600030258 0.43429408891060084 0.2662432828529555
0.14113466000026165 0.4382022471910112 0.32975085490962375
0.14132510199988246 0.4382022471910112 0.3834880312652662
0.14151430299989443 0.441133365901319 0.4303859306301905
0.14170444899991708 0.4460185637518319 0.4606741573033708
0.1418949280000561 0.44894968246213973 0.4880312652662433
0.1420849440000893 0.44992672203224227 0.5095261358085001
0.14229877400020996 0.46165119687347334 0.524181729360039
0.14249095600007422 0.45969711773326827 0.533952125061065
0.14268056499986415 0.46262823644357587 0.5427454811919883
0.14287067300028866 0.45969711773326827 0.5476306790425012
0.14306093000004694 0.45969711773326827 0.5574010747435272
0.14325077900002725 0.46262823644357587 0.5603321934538348
0.14344044300014502 0.467513434294089 0.5554469956033219
0.14363131100026294 0.4606741573033708 0.5446995603321934
0.14382064200026434 0.45969711773326827 0.5144113336590133
0.14400993500021286 0.4557889594528579 0.47923790913532005
0.14419995100024607 0.4587200781631655 0.4430874450415241
0.1443895780003004 0.45188080117244755 0.42256961406936977
0.14457942800027013 0.4528578407425501 0.42159257449926724
0.14476972100010244 0.45188080117244755 0.4284318514899854
0.14495957000008275 0.45481191988275516 0.4430874450415241
0.14514912300001015 0.45676599902296044 0.4509037616023448
0.14533873200025482 0.4479726428920372 0.45969711773326827
0.14552897000021403 0.44894968246213973 0.4802149487054226
0.14571813400016254 0.44699560332193444 0.5017098192476794
0.14590766800029087 0.44699560332193444 0.5271128480703469
0.14609655499998553 0.44699560332193444 0.5456765999022961
0.14628795999988142 0.44992672203224227 0.5495847581827065
0.14647882700000991 0.4460185637518319 0.540791402051783
0.14666930600014894 0.44894968246213973 0.5192965315095261
0.14685900699987542 0.4509037616023448 0.48998534440644836
0.14704937500027881 0.4479726428920372 0.4606741573033708
0.1472390950002591 0.4509037616023448 0.43429408891060084
0.1474292590000914 0.45188080117244755 0.4137762579384465
0.14761897800008228 0.44894968246213973 0.40693698094772834
0.14780901299991456 0.44992672203224227 0.4137762579384465
0.1479985470000429 0.44894968246213973 0.412799218368344
0.14818869300006554 0.44992672203224227 0.4255007327796776
0.14837891200022568 0.4557889594528579 0.42452369320957506
0.14856872400014254 0.44992672203224227 0.4235466536394723
0.14875818500013338 0.45188080117244755 0.4108451392281387
0.14894844099990223 0.4528578407425501 0.3961895456765998
0.14913877200024217 0.4509037616023448 0.38641914997557403
0.14932875100021192 0.4509037616023448 0.38446507083536874
0.14951802599989605 0.44992672203224227 0.38935026868588185
0.1497080230001302 0.45188080117244755 0.40205178309721545
0.1498981320000894 0.4479726428920372 0.41182217879824123
0.15008772200008025 0.44894968246213973 0.42452369320957506
0.15028962599990336 0.4460185637518319 0.44211040547142155
0.15048025300029622 0.4460185637518319 0.4479726428920372
0.15066897299993798 0.44894968246213973 0.45969711773326827
0.1508582110000134 0.44699560332193444 0.46458231558378116
0.15104717200028972 0.44699560332193444 0.47239863214460187
0.1512360950000584 0.4430874450415241 0.4782608695652173
0.15142509199995402 0.44211040547142155 0.4782608695652173
0.1516139230002409 0.44211040547142155 0.4763067904250122
0.15180256800022107 0.44211040547142155 0.47142159257449934
0.15199243600000045 0.4430874450415241 0.4782608695652173
0.15218565600025613 0.44211040547142155 0.4655593551538837
0.1523755789999086 0.4509037616023448 0.4782608695652173
0.15256559499994182 0.4450415241817294 0.4811919882755251
0.15275500000007014 0.4450415241817294 0.4929164631167562
0.15294468199999756 0.4450415241817294 0.5017098192476794
0.15313388300000952 0.4460185637518319 0.5046409379579873
0.15332321400001092 0.44894968246213973 0.5065950170981925
0.15351234099989597 0.4509037616023448 0.5134342940889105
0.1537019870002041 0.44992672203224227 0.522227650219834
0.15389172499999404 0.4528578407425501 0.5456765999022961
0.15408100000013292 0.45481191988275516 0.5564240351734244
0.15428345999998783 0.457743038593063 0.5652173913043479
0.15449719800017192 0.45676599902296044 0.5701025891548608
0.15469788000018525 0.46262823644357587 0.576941866145579
0.15489065500014476 0.46165119687347334 0.5818270639960919
0.15508159699993485 0.4665363947239862 0.5915974596971176
0.15527207600007387 0.467513434294089 0.6023448949682462
0.1554619990001811 0.4636052760136786 0.6072300928187591
0.15565223800012973 0.4636052760136786 0.6130923302393747
0.15584245700028987 0.46946751343429405 0.6160234489496825
0.15603393600031268 0.46165119687347334 0.6033219345383487
0.15622391500028243 0.45969711773326827 0.5867122618466047
0.15641444900029455 0.457743038593063 0.5515388373229115
0.1566042610002114 0.45676599902296044 0.5153883732291158
0.1567951480001284 0.4538348803126526 0.47728382999511476
0.15698649700016176 0.45188080117244755 0.44211040547142155
0.15717680900024789 0.4509037616023448 0.42745481191988266
0.15736826900001688 0.4460185637518319 0.40889106008793363
0.1575591189998704 0.44406448461162684 0.3981436248168051
0.15774978299987197 0.44699560332193444 0.39912066438690763
0.15794035399994755 0.44406448461162684 0.40009770395701016
0.1581306289999702 0.4450415241817294 0.4079140205178309
0.1583241450002788 0.4479726428920372 0.41182217879824123
0.15851319800003694 0.45188080117244755 0.4206155349291647
0.15870212100026038 0.45481191988275516 0.4255007327796776
0.15889200800029357 0.457743038593063 0.4352711284807034
0.15908107899986135 0.4606741573033708 0.44992672203224227
0.15926992799995787 0.4636052760136786 0.4538348803126526
0.15945920300009675 0.4636052760136786 0.44992672203224227
0.15964955300023576 0.4636052760136786 0.4323400097703958
0.15983871700018426 0.46458231558378116 0.4176844162188569
0.16002839900011168 0.4587200781631655 0.41182217879824123
0.1602173969999967 0.45969711773326827 0.4108451392281387
0.16040661600027306 0.4538348803126526 0.40205178309721545
0.160595688000285 0.4509037616023448 0.3883732291157791
0.16078553700026532 0.4479726428920372 0.358085002442599
0.1609756450002351 0.44406448461162684 0.31900341963849543
0.16116560599994045 0.4430874450415241 0.2760136785539815
0.16135456600022735 0.441133365901319 0.2330239374694676
0.16154406300029223 0.4401563263312165 0.20175867122618474
0.16173306100017726 0.4401563263312165 0.18808011724474838
0.16192198399994595 0.43429408891060084 0.17537860283341478
0.16211116700014827 0.43429408891060084 0.1783097215437226
0.16230464599993866 0.4323400097703958 0.19785051294577438
0.16249595799990857 0.4333170493404983 0.22032242305813377
0.16268697400028032 0.4352711284807034 0.2515876893014166
0.16287660099987988 0.4333170493404983 0.2857840742550073
0.16306722800027273 0.44211040547142155 0.32486565705911086
0.16325696600006268 0.441133365901319 0.3531998045920859
0.16344720400002188 0.4352711284807034 0.37274059599413767
0.16363725700011855 0.4352711284807034 0.3805569125549584
0.16382636500020453 0.43624816805080613 0.3776257938446508
0.16401545500002612 0.4401563263312165 0.3707865168539326
0.16420593400016514 0.4401563263312165 0.36980947728383007
0.16439570900001854 0.4401563263312165 0.37957987298485585
0.16458531800026321 0.4430874450415241 0.3981436248168051
0.16477537099990514 0.4460185637518319 0.42256961406936977
0.16496507200008637 0.44699560332193444 0.44699560332193444
0.16515453200008778 0.4460185637518319 0.4655593551538837
0.1653447890003008 0.4538348803126526 0.4763067904250122
0.1655342680001013 0.45188080117244755 0.48705422569614076
0.16572400599989123 0.4509037616023448 0.495847581827064
0.1659136880002734 0.44992672203224227 0.5046409379579873
0.16610394500003167 0.4528578407425501 0.5144113336590133
0.16629525700000158 0.4538348803126526 0.5232046897899365
0.16648492100011936 0.4528578407425501 0.5329750854909623
0.16667497400021603 0.45188080117244755 0.5329750854909623
0.16686480499993195 0.4538348803126526 0.533952125061065
0.16705443199998626 0.45481191988275516 0.5300439667806547
0.1672439110002415 0.4587200781631655 0.5261358085002443
0.16743333400017946 0.45188080117244755 0.512457254518808
0.16762270200024432 0.44992672203224227 0.5026868588177822
0.1678126440001506 0.4587200781631655 0.4978016609672691
0.16800277099991945 0.4538348803126526 0.4909623839765511
0.16819271200029107 0.45188080117244755 0.4880312652662433
0.16838248700014447 0.4528578407425501 0.48998534440644836
0.16857174400001895 0.45969711773326827 0.4929164631167562
0.16876209300016853 0.4528578407425501 0.49877870053737183
0.16895464600020205 0.45481191988275516 0.4978016609672691
0.16914442100005544 0.45188080117244755 0.4851001465559355
0.16933488199993008 0.45481191988275516 0.47435271128480694
0.16952530500020657 0.4538348803126526 0.4538348803126526
0.1697149320002609 0.45481191988275516 0.441133365901319
0.16990472599991335 0.4538348803126526 0.43429408891060084
0.1700945560000946 0.4538348803126526 0.4382022471910112
0.17030042400028833 0.4528578407425501 0.4538348803126526
0.17049206899991987 0.4509037616023448 0.48216902784562765
0.17068264099998487 0.4509037616023448 0.5065950170981925
0.17087576800031457 0.45188080117244755 0.533952125061065
0.17106624699999884 0.4479726428920372 0.5456765999022961
0.17125579999992624 0.44699560332193444 0.5446995603321934
0.17144520400006513 0.4460185637518319 0.5378602833414754
0.17163566499993976 0.44699560332193444 0.5251587689301416
0.17182586600029026 0.4450415241817294 0.5192965315095261
0.17201584500026001 0.44992672203224227 0.512457254518808
0.17220550899992304 0.4450415241817294 0.5183194919394236
0.17239541400022063 0.44699560332193444 0.5290669272105519
0.1725851149999471 0.4460185637518319 0.5251587689301416
0.17277850100026626 0.44211040547142155 0.5183194919394236
0.17296851700029947 0.4430874450415241 0.5075720566682951
0.17315866199987795 0.4430874450415241 0.49975574010747437
0.17334936299994297 0.44406448461162684 0.4948705422569615
0.1735397870002089 0.4460185637518319 0.48998534440644836
0.17372967300025266 0.4479726428920372 0.47923790913532005
0.17391920699992625 0.44894968246213973 0.45676599902296044
0.17410933400014983 0.44992672203224227 0.4186614557889594
0.17430060900005628 0.4479726428920372 0.38153395212506114
0.17449093999994147 0.4509037616023448 0.358085002442599
0.17468047500005923 0.44992672203224227 0.34440644846116264
0.17487052700016648 0.4509037616023448 0.35222276502198335
0.1750603030000093 0.4509037616023448 0.3688324377137273
0.1752497070001482 0.45188080117244755 0.38251099169516367
0.1754396490000545 0.4509037616023448 0.3961895456765998
0.17562931300017226 0.4538348803126526 0.403028822667318
0.17581892199996219 0.4528578407425501 0.40986809965803617
0.17600871500007997 0.4538348803126526 0.41963849535906195
0.1761981200002083 0.45481191988275516 0.4284318514899854
0.17638758100019913 0.4587200781631655 0.4509037616023448
0.17657750400030636 0.457743038593063 0.47142159257449934
0.1767674090001492 0.46165119687347334 0.495847581827064
0.17695749900030933 0.45969711773326827 0.5105031753786029
0.17714736600009928 0.4636052760136786 0.533952125061065
0.1773373639998681 0.46165119687347334 0.5622862725940401
0.17752775000008114 0.4636052760136786 0.6042989741084515
0.17771791399991343 0.4606741573033708 0.6424035173424523
0.17790746700029558 0.4636052760136786 0.6824621397166586
0.17809705700028644 0.46458231558378116 0.7127503663898387
0.17828816500014 0.4704445530043966 0.7401074743527112
0.17847831100016265 0.46458231558378116 0.7586712261846604
0.17866903100002673 0.4684904738641915 0.7703957010258915
0.17885839800010217 0.47142159257449934 0.769418661455789
0.17904935900014607 0.4753297508549097 0.7616023448949683
0.17924339299997882 0.47728382999511476 0.7459697117733268
0.17943403800018132 0.4753297508549097 0.7234978016609672
0.17962401700015107 0.47923790913532005 0.7039570102589154
0.17981388499993045 0.4811919882755251 0.6707376648754275
0.18000406800001656 0.4802149487054226 0.6365412799218368
0.18019356500008143 0.4811919882755251 0.5759648265754762
0.18038317399987136 0.47728382999511476 0.49877870053737183
0.18057283799998913 0.4704445530043966 0.40986809965803617
0.18076229799999055 0.467513434294089 0.3131411822178798
0.1809533690002354 0.46262823644357587 0.2164142647777234
0.18114344100013113 0.45676599902296044 0.12750366389838796
0.18133428999999524 0.4460185637518319 0.06008793356130915
0.18152330600014466 0.4382022471910112 0.02002931118710305
0.18171230300004027 0.4323400097703958 0.023937469467513406
0.18190154100011569 0.42745481191988266 0.05715681485100155
0.1820905570002651 0.4235466536394723 0.1138251099169516
0.18228920299998208 0.4206155349291647 0.1812408402540302
0.18247958900019512 0.41963849535906195 0.2535417684416219
0.18266882700027054 0.41963849535906195 0.3180263800683927
0.18285804700008157 0.4206155349291647 0.3756717147044455
0.18304798899998787 0.4255007327796776 0.431362970200293
0.18323726400012674 0.4255007327796776 0.457743038593063
0.18342750200008595 0.42940889106008795 0.47728382999511476
0.18393514299987146 0.4352711284807034 0.44894968246213973
0.18415991800020493 0.43429408891060084 0.43624816805080613
0.18435782200003814 0.43624816805080613 0.441133365901319
0.18454759699989154 0.44406448461162684 0.457743038593063
0.18473607600026298 0.4450415241817294 0.4929164631167562
0.18492349999996804 0.4509037616023448 0.5261358085002443
0.1851122379998742 0.4528578407425501 0.5593551538837322
0.18529897600001277 0.4538348803126526 0.5896433805569126
0.18548623300011968 0.45481191988275516 0.5974596971177333
0.1856739340000786 0.4538348803126526 0.5691255495847583
0.18586113499986823 0.45188080117244755 0.5183194919394236
0.18604807700012316 0.4557889594528579 0.45969711773326827
0.18623559300021952 0.45188080117244755 0.4108451392281387
0.18642829400005212 0.44992672203224227 0.38446507083536874
0.1866153280002436 0.45188080117244755 0.38251099169516367
0.18680225100024472 0.45188080117244755 0.38641914997557403
0.18698930400023528 0.45188080117244755 0.3903273082559844
0.1871755980000671 0.45481191988275516 0.3834880312652662
0.1873630210002375 0.4509037616023448 0.3561309233023937
0.18754972300030204 0.44992672203224227 0.3209574987787005
0.1877368310001657 0.4509037616023448 0.28480703468490476
0.18792377299996588 0.44992672203224227 0.2535417684416219
0.18811052999990352 0.4509037616023448 0.23497801660967266
0.18830186000013782 0.457743038593063 0.22520762090864688
0.18848956100009673 0.45188080117244755 0.2310698583292623
0.18867611399991802 0.44894968246213973 0.24865657059110902
0.1888626119998662 0.4450415241817294 0.27699071812408405
0.18904892399996243 0.4460185637518319 0.3131411822178798
0.18923618100006934 0.44406448461162684 0.34929164631167553
0.18942293700001755 0.4430874450415241 0.38153395212506114
0.18961006500012445 0.441133365901319 0.40889106008793363
0.1897983399999248 0.441133365901319 0.4303859306301905
0.18999048500018034 0.4450415241817294 0.43917928676111373
0.19017890900022394 0.44406448461162684 0.4509037616023448
0.1903834980003012 0.44894968246213973 0.46458231558378116
0.19057112500013318 0.4460185637518319 0.47142159257449934
0.19075817800012373 0.44894968246213973 0.4802149487054226
0.1909449909999239 0.44894968246213973 0.4938935026868587
0.19113148799988267 0.44992672203224227 0.5026868588177822
0.1913182630000847 0.4528578407425501 0.5075720566682951
0.19150498299995888 0.4538348803126526 0.5153883732291158
0.19169257300018216 0.45481191988275516 0.522227650219834
0.19187879199989766 0.4538348803126526 0.5290669272105519
0.19206577100021605 0.4587200781631655 0.524181729360039
0.19225312100024894 0.4538348803126526 0.5212506106497312
0.19244028499997512 0.4587200781631655 0.5144113336590133
0.19262750400002915 0.4538348803126526 0.5017098192476794
0.19281439099995623 0.45481191988275516 0.4948705422569615
0.19300131399995735 0.45676599902296044 0.48998534440644836
0.19318783000016992 0.45676599902296044 0.4851001465559355
0.1933743089998643 0.4557889594528579 0.48412310698583294
0.19356108400006633 0.45676599902296044 0.4851001465559355
0.19374761800008855 0.4557889594528579 0.486077186126038
0.1939339860000473 0.4557889594528579 0.486077186126038
0.1941201499998897 0.4528578407425501 0.4851001465559355
0.1943082590000813 0.44992672203224227 0.486077186126038
0.194496737999998 0.44992672203224227 0.486077186126038
0.1946833830002106 0.44992672203224227 0.4929164631167562
0.19487027000013768 0.4509037616023448 0.49682462139716654
0.19505706300014936 0.4509037616023448 0.5075720566682951
0.19524515300008716 0.4509037616023448 0.5183194919394236
0.1954322990000037 0.4528578407425501 0.5310210063507572
0.19561998100016353 0.4538348803126526 0.5466536394723986
0.19580649699992136 0.4557889594528579 0.5495847581827065
0.19599323600004936 0.45188080117244755 0.5466536394723986
0.19618051099996592 0.4528578407425501 0.5280898876404494
0.1963674710000305 0.4538348803126526 0.5056179775280898
0.1965551170001163 0.457743038593063 0.4802149487054226
0.1967419659999905 0.457743038593063 0.46165119687347334
0.19692885199992816 0.45676599902296044 0.44406448461162684
0.1971157759999187 0.457743038593063 0.4333170493404983
0.19730292100030056 0.4587200781631655 0.4255007327796776
0.1974901960002171 0.45676599902296044 0.42159257449926724
0.19767704600008074 0.45481191988275516 0.41670737664875435
0.1978635430000395 0.45676599902296044 0.4040058622374205
0.198050577000231 0.45676599902296044 0.3932584269662922
0.1982367969999359 0.4557889594528579 0.38739618954567656
0.19842788699997982 0.4538348803126526 0.3854421104054715
0.19861766200028796 0.4528578407425501 0.39423546653639474
0.19880736300001445 0.44894968246213973 0.4059599413776258
0.1989976380000371 0.45676599902296044 0.42159257449926724
0.19918669100025 0.44992672203224227 0.4284318514899854
0.19937655900002937 0.44894968246213973 0.4352711284807034
0.19956639000020004 0.4460185637518319 0.44211040547142155
0.19975538700009565 0.44894968246213973 0.4460185637518319
0.19994560700024522 0.44992672203224227 0.44992672203224227
0.20013536300029955 0.4528578407425501 0.4528578407425501
0.20032491600022695 0.4509037616023448 0.4509037616023448
0.20051400600004854 0.45188080117244755 0.4450415241817294
0.20070305900026142 0.45188080117244755 0.4401563263312165
0.2008925380000619 0.4509037616023448 0.42745481191988266
0.20108240600029603 0.45188080117244755 0.4108451392281387
0.20127240300007543 0.45481191988275516 0.4040058622374205
0.20146236400023554 0.4538348803126526 0.403028822667318
0.20165180599997257 0.45481191988275516 0.4079140205178309
0.20184189500014327 0.4538348803126526 0.42256961406936977
0.20203144800007067 0.45481191988275516 0.431362970200293
0.20222148299990295 0.4538348803126526 0.44406448461162684
0.20241342500003157 0.4538348803126526 0.4587200781631655
0.20260323699994842 0.4538348803126526 0.46946751343429405
0.20279330800030948 0.4557889594528579 0.4782608695652173
0.20298338000020522 0.4538348803126526 0.4831460674157304
0.20317343300030188 0.4557889594528579 0.486077186126038
0.20336674500003937 0.4557889594528579 0.48216902784562765
0.20355763099996693 0.4557889594528579 0.47239863214460187
0.20374809100030689 0.4538348803126526 0.4606741573033708
0.2039379220000228 0.45969711773326827 0.44894968246213973
0.20412745600015114 0.457743038593063 0.43722520762090866
0.20431706499994107 0.4557889594528579 0.4323400097703958
0.2045071550001012 0.4538348803126526 0.4303859306301905
0.2046969299999546 0.45188080117244755 0.441133365901319
0.20488683500025218 0.44992672203224227 0.45188080117244755
0.2050764620003065 0.45188080117244755 0.47239863214460187
0.20526603300004354 0.44992672203224227 0.49682462139716654
0.2054556970001613 0.44894968246213973 0.5085490962383976
0.20564591700031087 0.44699560332193444 0.5212506106497312
0.20583554399991044 0.4479726428920372 0.522227650219834
0.2060254299999542 0.44699560332193444 0.5251587689301416
0.20621483500008253 0.4460185637518319 0.5290669272105519
0.20640598099998897 0.44406448461162684 0.5319980459208598
0.20659616300008565 0.4430874450415241 0.5368832437713726
0.2067863639999814 0.4460185637518319 0.5378602833414754
0.20697728699997242 0.4430874450415241 0.522227650219834
0.2071679700002278 0.4430874450415241 0.5085490962383976
0.20735763399989082 0.44211040547142155 0.48900830483634583
0.20754774300030476 0.4450415241817294 0.4636052760136786
0.2077370179999889 0.44699560332193444 0.43722520762090866
0.20792736700013847 0.4479726428920372 0.40986809965803617
0.2081178829998862 0.4479726428920372 0.3854421104054715
0.2083077880001838 0.44699560332193444 0.37274059599413767
0.2084973030000583 0.4479726428920372 0.358085002442599
0.20868683800017607 0.44699560332193444 0.3551538837322912
0.2088771319999978 0.4479726428920372 0.348314606741573
0.2090664810002636 0.44894968246213973 0.358085002442599
0.209255812000265 0.4460185637518319 0.358085002442599
0.20944723499997053 0.44699560332193444 0.3678553981436248
0.20963732500013066 0.44894968246213973 0.3854421104054715
0.2098270629999206 0.44992672203224227 0.4059599413776258
0.2100162269998691 0.44992672203224227 0.4284318514899854
0.21020570600012434 0.4509037616023448 0.44406448461162684
0.21039516600012576 0.4479726428920372 0.457743038593063
0.21058473800030697 0.44894968246213973 0.46458231558378116
0.21077493900020272 0.44699560332193444 0.47728382999511476
0.21096456600025704 0.45188080117244755 0.4880312652662433
0.21115663699993092 0.44992672203224227 0.5007327796775769
0.21134717199993247 0.4509037616023448 0.5114802149487054
0.21153713200010316 0.4479726428920372 0.5202735710796287
0.2117268699998931 0.44894968246213973 0.5251587689301416
0.2119166820002647 0.44992672203224227 0.5251587689301416
0.21210603100007575 0.44894968246213973 0.522227650219834
0.21229660300014075 0.44894968246213973 0.5163654127992183
0.21248693400002594 0.44699560332193444 0.5017098192476794
0.2126770419999957 0.44894968246213973 0.48705422569614076
0.21286689099997602 0.4479726428920372 0.4665363947239862
0.21305677800000922 0.4479726428920372 0.44894968246213973
0.21324681200030682 0.4479726428920372 0.43429408891060084
0.2134373459998642 0.44992672203224227 0.42745481191988266
0.21362719600028868 0.4479726428920372 0.43624816805080613
0.21381763699992007 0.45481191988275516 0.4430874450415241
0.21400741300021764 0.45188080117244755 0.4557889594528579
0.21419739100019797 0.44992672203224227 0.4655593551538837
0.21438737000016772 0.45676599902296044 0.4851001465559355
0.21457642299992585 0.4528578407425501 0.495847581827064
0.21476590200018109 0.45188080117244755 0.512457254518808
0.2149559180002143 0.45676599902296044 0.5310210063507572
0.21514526700002534 0.45676599902296044 0.5525158768930141
0.2153348020001431 0.45969711773326827 0.5691255495847583
0.2155252800002927 0.4538348803126526 0.5837811431362969
0.21571479600015664 0.4557889594528579 0.5964826575476307
0.21590407200028494 0.4528578407425501 0.5945285784074255
0.2160944020001807 0.45188080117244755 0.5925744992672204
0.21628384399991774 0.4528578407425501 0.5896433805569126
0.21647402700000384 0.4479726428920372 0.5818270639960919
0.21666433900008997 0.44699560332193444 0.5749877870053737
0.21685452100018665 0.44894968246213973 0.5652173913043479
0.2170444450002833 0.44992672203224227 0.5525158768930141
0.21723442400025306 0.4509037616023448 0.5378602833414754
0.2174245510000219 0.44992672203224227 0.512457254518808
0.2176148070002455 0.4528578407425501 0.4782608695652173
0.21781308200024796 0.4528578407425501 0.4284318514899854
0.21801570900015577 0.4528578407425501 0.3737176355642404
0.21820818800006236 0.4528578407425501 0.33170493404982904
0.2183991669999159 0.4528578407425501 0.29457743038593054
0.21858905299995968 0.45188080117244755 0.28480703468490476
0.21877962400003526 0.4538348803126526 0.29457743038593054
0.2189690850000261 0.4557889594528579 0.31998045920859797
0.21915939700011222 0.45676599902296044 0.34636052760136793
0.2193492649998916 0.4557889594528579 0.37176355642403514
0.21953872499989302 0.4557889594528579 0.39423546653639474
0.21972922200029643 0.457743038593063 0.40693698094772834
0.21991851600023438 0.46262823644357587 0.4206155349291647
0.22010855000007723 0.4538348803126526 0.4303859306301905
0.22029734400030065 0.457743038593063 0.42745481191988266
0.22048635999999533 0.45676599902296044 0.42940889106008795
0.220676635000018 0.457743038593063 0.4235466536394723
0.22086546600030488 0.45481191988275516 0.40693698094772834
0.22105472300017937 0.46165119687347334 0.3932584269662922
0.22124351599995862 0.4538348803126526 0.37469467513434296
0.22143236500005514 0.4528578407425501 0.3678553981436248
0.22162169600005655 0.4528578407425501 0.35906204201270153
0.2218109899999945 0.457743038593063 0.3531998045920859
0.22200019100000645 0.44894968246213973 0.348314606741573
0.22219420700002956 0.45188080117244755 0.3502686858817783
0.22238742600029582 0.4509037616023448 0.35710796287249624
0.22257794200004355 0.45188080117244755 0.3659013190034197
0.2227686989999711 0.44992672203224227 0.37957987298485585
0.22295847400027924 0.4528578407425501 0.4040058622374205
0.2231482860001961 0.45188080117244755 0.4264777723497801
0.22333771000012348 0.4538348803126526 0.4538348803126526
0.22352726200006146 0.4538348803126526 0.48216902784562765
0.22371687100030613 0.4538348803126526 0.5036638983878847
0.22390683100002207 0.45188080117244755 0.522227650219834
0.22409706899998127 0.4528578407425501 0.5329750854909623
0.22428695600001447 0.45188080117244755 0.5378602833414754
0.22447715699991022 0.4528578407425501 0.5329750854909623
0.22466719100020782 0.4538348803126526 0.5280898876404494
0.22485742900016703 0.45481191988275516 0.5280898876404494
0.22504759299999932 0.4557889594528579 0.5261358085002443
0.22523718299999018 0.457743038593063 0.5368832437713726
0.22542694000003394 0.45676599902296044 0.5476306790425012
0.22561686300014117 0.457743038593063 0.5515388373229115
0.22580665700024838 0.45969711773326827 0.5476306790425012
0.22599602500031324 0.4606741573033708 0.5368832437713726
0.22618472600015593 0.4587200781631655 0.5251587689301416
0.22639000100025441 0.45969711773326827 0.5173424523693209
0.22658007200016073 0.4587200781631655 0.512457254518808
0.22677019899992956 0.46262823644357587 0.5114802149487054
0.22696047399995223 0.4636052760136786 0.5065950170981925
0.2271505460003027 0.4665363947239862 0.48998534440644836
0.22734078400026192 0.46458231558378116 0.467513434294089
0.22753061499997784 0.4636052760136786 0.42256961406936977
0.2277204269998947 0.46458231558378116 0.3737176355642404
0.227910275999875 0.4606741573033708 0.3209574987787005
0.22810055099989768 0.4655593551538837 0.28187591597459694
0.22829028900014237 0.4557889594528579 0.255495847581827
0.22848008300024958 0.44992672203224227 0.24279433317049337
0.22866989500016643 0.4450415241817294 0.23497801660967266
0.22885950399995636 0.4352711284807034 0.22716170004885194
0.22904951900000015 0.4284318514899854 0.2232535417684416
0.2292413499999384 0.4255007327796776 0.2506106497313141
0.22943336600019393 0.42256961406936977 0.29457743038593054
0.22962319699990985 0.42159257449926724 0.3502686858817783
0.22981276800010164 0.42159257449926724 0.41182217879824123
0.23000248800008194 0.42256961406936977 0.4655593551538837
0.23019250400011515 0.4235466536394723 0.5173424523693209
0.23038500100028614 0.4264777723497801 0.5515388373229115
0.23057473900007608 0.42745481191988266 0.5720566682950659
0.2307648290002362 0.4303859306301905 0.5818270639960919
0.23095527100031177 0.4333170493404983 0.576941866145579
0.23114543500014406 0.4303859306301905 0.5710796287249633
0.23133489500014548 0.4382022471910112 0.5564240351734244
0.23152511500029505 0.4401563263312165 0.5378602833414754
0.23171427900024355 0.44406448461162684 0.5192965315095261
0.23190397999997003 0.44406448461162684 0.5095261358085001
0.23209362600027816 0.4479726428920372 0.4880312652662433
0.23228371599998354 0.4509037616023448 0.47239863214460187
0.23247295400005896 0.45188080117244755 0.44992672203224227
0.2326623210001344 0.4509037616023448 0.4157303370786516
0.2328523370001676 0.45188080117244755 0.38153395212506114
0.23304196400022192 0.4528578407425501 0.3434294088910601
0.23323155400021278 0.44992672203224227 0.31900341963849543
0.23342112599993925 0.4479726428920372 0.3131411822178798
0.23361038200027906 0.44699560332193444 0.31704934049829014
0.2338013429998682 0.44992672203224227 0.3356130923302394
0.2339920809999967 0.4509037616023448 0.36492427943331696
0.23418205999996644 0.4479726428920372 0.3883732291157791
0.23438370500025485 0.44894968246213973 0.412799218368344
0.23457255399989663 0.44894968246213973 0.4323400097703958
0.23476145900031042 0.4509037616023448 0.44894968246213973
0.2349500860000262 0.4509037616023448 0.4665363947239862
0.23513975000014398 0.44894968246213973 0.4802149487054226
0.23532958100031465 0.44992672203224227 0.495847581827064
0.2355186150002737 0.45188080117244755 0.5065950170981925
0.23570942700007436 0.45188080117244755 0.5105031753786029
0.23589953600003355 0.4528578407425501 0.5095261358085001
0.23608886700003495 0.4509037616023448 0.5017098192476794
0.2362783829998989 0.45676599902296044 0.495847581827064
0.23646843500000614 0.4528578407425501 0.4929164631167562
0.23665789599999698 0.4528578407425501 0.495847581827064
0.23684698600027332 0.4538348803126526 0.49682462139716654
0.23703592800029583 0.45188080117244755 0.5065950170981925
0.2372249620002549 0.4528578407425501 0.5095261358085001
0.23741503400015063 0.4538348803126526 0.5065950170981925
0.23760506799999348 0.4528578407425501 0.5065950170981925
0.23779371299997365 0.4509037616023448 0.49975574010747437
0.23798298900010195 0.4528578407425501 0.49975574010747437
0.2381716529998812 0.45188080117244755 0.5202735710796287
0.23870157100009237 0.4587200781631655 0.5310210063507572
0.23889653200012617 0.4557889594528579 0.5378602833414754
0.23908695499994792 0.4587200781631655 0.5427454811919883
0.23927709999998115 0.457743038593063 0.5378602833414754
0.23946733799994036 0.46165119687347334 0.533952125061065
0.23965900300026988 0.46262823644357587 0.524181729360039
0.23984838900014438 0.4606741573033708 0.5105031753786029
0.2400378309998814 0.45969711773326827 0.49877870053737183
0.24022716099989339 0.4655593551538837 0.48998534440644836
0.24041684400026497 0.4606741573033708 0.4753297508549097
0.2406068039999809 0.46262823644357587 0.46262823644357587
0.24079619000031016 0.4587200781631655 0.4538348803126526
0.24098566900011065 0.4587200781631655 0.4557889594528579
0.24117472199986878 0.4606741573033708 0.45676599902296044
0.24136372000020856 0.457743038593063 0.457743038593063
0.2415526800000407 0.45676599902296044 0.4557889594528579
0.241742400000021 0.457743038593063 0.44406448461162684
0.24193272999991677 0.45676599902296044 0.4284318514899854
0.242122524000024 0.4557889594528579 0.40889106008793363
0.24231533600004695 0.4557889594528579 0.39423546653639474
0.24250453700005892 0.45676599902296044 0.3903273082559844
0.24269453500028249 0.4538348803126526 0.3952125061064973
0.24288355099997716 0.45481191988275516 0.40986809965803617
0.24307310299991514 0.457743038593063 0.4284318514899854
0.2432631560000118 0.457743038593063 0.44406448461162684
0.24345256100014012 0.45676599902296044 0.45481191988275516
0.24364237300005698 0.4557889594528579 0.45969711773326827
0.24383201899991036 0.4587200781631655 0.45676599902296044
0.2440211640000598 0.457743038593063 0.4509037616023448
0.24421080999991318 0.45969711773326827 0.4450415241817294
0.24440086300000985 0.457743038593063 0.43917928676111373
0.24459004500022274 0.45676599902296044 0.4333170493404983
0.2447798389998752 0.46262823644357587 0.42452369320957506
0.24496955900031026 0.4606741573033708 0.40986809965803617
0.24515948199996274 0.4587200781631655 0.40009770395701016
0.24534835000031308 0.457743038593063 0.38935026868588185
0.24553806900030395 0.4528578407425501 0.3834880312652662
0.24572812199994587 0.4538348803126526 0.36980947728383007
0.24591771199993673 0.4528578407425501 0.3551538837322912
0.24610696900026596 0.4460185637518319 0.3453834880312652
0.2462967070000559 0.4460185637518319 0.3424523693209576
0.2464853710002899 0.4450415241817294 0.3453834880312652
0.24667468300003748 0.4430874450415241 0.34929164631167553
0.24686390300030325 0.43624816805080613 0.358085002442599
0.24705293700026232 0.441133365901319 0.3707865168539326
0.24724221299993587 0.43429408891060084 0.37957987298485585
0.24743193199992675 0.4333170493404983 0.3913043478260869
0.2476210039999387 0.4352711284807034 0.39716658524670256
0.2478097420002996 0.43429408891060084 0.3961895456765998
0.24800323899989962 0.43429408891060084 0.3932584269662922
0.24819386600029247 0.4382022471910112 0.3961895456765998
0.2483833629999026 0.43624816805080613 0.3981436248168051
0.248572250000052 0.44211040547142155 0.40693698094772834
0.24876213600009578 0.4430874450415241 0.4264777723497801
0.2489511520002452 0.44211040547142155 0.441133365901319
0.2491404090001197 0.44406448461162684 0.4538348803126526
0.2493296279999413 0.4460185637518319 0.4704445530043966
0.24951886600001671 0.4450415241817294 0.4851001465559355
0.2497086409998701 0.44699560332193444 0.5017098192476794
0.24989858300023116 0.4450415241817294 0.5192965315095261
0.2500878770001691 0.44699560332193444 0.5368832437713726
0.25029098499999236 0.4460185637518319 0.5486077186126037
0.25048189000017373 0.4460185637518319 0.5583781143136297
0.25067196100008005 0.4430874450415241 0.5603321934538348
0.2508611809998911 0.4450415241817294 0.5661944308744504
0.25105093799993483 0.44699560332193444 0.5681485100146555
0.25124025000013717 0.4460185637518319 0.5730337078651686
0.25143052500015983 0.4528578407425501 0.5642403517342451
0.2516196149999814 0.44992672203224227 0.5632633121641426
0.2518099090002579 0.4509037616023448 0.5622862725940401
0.2520001470002171 0.45188080117244755 0.5730337078651686
0.2521893110001656 0.44992672203224227 0.5701025891548608
0.2523793270001988 0.45188080117244755 0.576941866145579
0.2525686760000099 0.4509037616023448 0.58866634098681
0.2527583770001911 0.45188080117244755 0.595505617977528
0.2529472999999598 0.4538348803126526 0.6023448949682462
0.2531365760000881 0.4587200781631655 0.6111382510991694
0.25332631399987804 0.4587200781631655 0.6170004885197851
0.2535154780002813 0.46165119687347334 0.6287249633610161
0.2537055309999232 0.46165119687347334 0.6375183194919394
0.2538952130003054 0.46458231558378116 0.643380556912555
0.25408445099992605 0.4665363947239862 0.6463116756228626
0.2542833000002247 0.467513434294089 0.6384953590620419
0.25447520500028986 0.46946751343429405 0.6160234489496825
0.25466575800010105 0.4684904738641915 0.5876893014167073
0.2548558110001977 0.4684904738641915 0.5534929164631168
0.2550462710000829 0.4655593551538837 0.5105031753786029
0.25523680600008447 0.46262823644357587 0.46458231558378116
0.2554270069999802 0.4587200781631655 0.42159257449926724
0.255616893000024 0.4557889594528579 0.38935026868588185
0.2558066679998774 0.4528578407425501 0.3707865168539326
0.2559966839999106 0.44992672203224227 0.36199316072300936
0.25618627399990146 0.44699560332193444 0.3629702002931119
0.2563761970000087 0.44406448461162684 0.35710796287249624
0.25656556500007355 0.441133365901319 0.3424523693209576
0.25675528500005385 0.44211040547142155 0.31998045920859797
0.25694513400003416 0.4382022471910112 0.28187591597459694
0.25713515000006737 0.43917928676111373 0.24963361016121155
0.2573256290002064 0.4382022471910112 0.22716170004885194
0.25751571899991177 0.4352711284807034 0.20468978993649234
0.2577054940002199 0.43722520762090866 0.18710307767464585
0.25789532499993584 0.43917928676111373 0.1734245236932095
0.25808478499993726 0.4382022471910112 0.15876893014167082
0.25828274500008774 0.441133365901319 0.15486077186126046
0.2584729650002373 0.4430874450415241 0.16951636541279913
0.2586632030001965 0.44406448461162684 0.19491939423546656
0.2588527930001874 0.44992672203224227 0.23204689789936483
0.25904266099996676 0.44992672203224227 0.26917440156326333
0.259230787999968 0.44992672203224227 0.30923302393746943
0.2594199150003078 0.45188080117244755 0.3502686858817783
0.25960933800024577 0.4528578407425501 0.3883732291157791
0.2597987799999828 0.4538348803126526 0.41182217879824123
0.2599877400002697 0.457743038593063 0.431362970200293
0.2601773490000596 0.45676599902296044 0.4479726428920372
0.2603664389998812 0.4587200781631655 0.4606741573033708
0.26055643600011535 0.45969711773326827 0.47142159257449934
0.26074576700011676 0.4606741573033708 0.4831460674157304
0.2609350050001922 0.46262823644357587 0.495847581827064
0.26112420600020414 0.4606741573033708 0.5075720566682951
0.2613135179999517 0.4655593551538837 0.5163654127992183
0.2615051820002918 0.45969711773326827 0.5300439667806547
0.2616952719999972 0.4587200781631655 0.5378602833414754
0.2618840469999668 0.45481191988275516 0.540791402051783
0.2620728219999364 0.4538348803126526 0.5378602833414754
0.26227876400025707 0.4538348803126526 0.533952125061065
0.2624705759999415 0.44992672203224227 0.5261358085002443
0.26266096200015454 0.44699560332193444 0.5251587689301416
0.26285084900018774 0.44992672203224227 0.5163654127992183
0.2630409020002844 0.4509037616023448 0.5134342940889105
0.2632308990000638 0.4479726428920372 0.5065950170981925
0.2634203779998643 0.4528578407425501 0.5095261358085001
0.26361015300017243 0.4538348803126526 0.5105031753786029
0.26380044699999416 0.4538348803126526 0.512457254518808
0.26398996300031286 0.45676599902296044 0.5095261358085001
0.26417996000009225 0.4557889594528579 0.5026868588177822
0.26436997600012546 0.45676599902296044 0.48998534440644836
0.2645595100002538 0.4557889594528579 0.4733756717147044
0.26474948900022355 0.45481191988275516 0.45481191988275516
0.2649385610002355 0.45481191988275516 0.4460185637518319
0.2651282430001629 0.45481191988275516 0.44406448461162684
0.26531822200013266 0.45481191988275516 0.441133365901319
0.2655071819999648 0.4538348803126526 0.43624816805080613
0.2656961239999873 0.4528578407425501 0.42940889106008795
0.265885955000158 0.4528578407425501 0.42256961406936977
0.2660753600002863 0.4509037616023448 0.40693698094772834
0.2662735240000984 0.4479726428920372 0.3981436248168051
0.2664645019999625 0.44894968246213973 0.38251099169516367
0.2666540549998899 0.4479726428920372 0.37176355642403514
0.26684331200021916 0.44894968246213973 0.3678553981436248
0.2670329759998822 0.4450415241817294 0.3688324377137273
0.2672225480000634 0.4479726428920372 0.3737176355642404
0.26741309999988516 0.4460185637518319 0.3883732291157791
0.26760222700022496 0.4479726428920372 0.4040058622374205
0.26779142900022634 0.4479726428920372 0.42452369320957506
0.26798111100015376 0.44699560332193444 0.44406448461162684
0.2681705710001552 0.44894968246213973 0.4665363947239862
0.2683643650002523 0.44699560332193444 0.48412310698583294
0.2685549180000635 0.4479726428920372 0.4909623839765511
0.26874487800023417 0.44992672203224227 0.495847581827064
0.268934339000225 0.44992672203224227 0.4978016609672691
0.26912370600030044 0.44894968246213973 0.5046409379579873
0.2693134999999529 0.4528578407425501 0.5192965315095261
0.2695034050002505 0.44992672203224227 0.533952125061065
0.26969305000011445 0.45188080117244755 0.5583781143136297
0.2698825110001053 0.4509037616023448 0.5915974596971176
0.2700720640000327 0.4557889594528579 0.6297020029311187
0.2702617650002139 0.4509037616023448 0.6658524670249144
0.2704609470001742 0.4538348803126526 0.686370297997069
0.2706507410002814 0.4557889594528579 0.6980947728383
0.27084001599996554 0.4587200781631655 0.6971177332681973
0.27102997600013623 0.45676599902296044 0.6824621397166586
0.27121947400019053 0.4587200781631655 0.6697606253053248
0.2714088420002554 0.457743038593063 0.6492427943331704
0.271598154000003 0.45969711773326827 0.6365412799218368
0.2717882249999093 0.46262823644357587 0.6228627259404005
0.2719778710002174 0.45969711773326827 0.5974596971177333
0.2721680350000497 0.45969711773326827 0.5749877870053737
0.27235764300030496 0.45969711773326827 0.533952125061065
0.2725471590001689 0.4587200781631655 0.47728382999511476
0.27273689699995884 0.4587200781631655 0.41475329750854906
0.2729262650000237 0.45188080117244755 0.3502686858817783
0.2731156509998982 0.44894968246213973 0.2955544699560333
0.2733041490000687 0.44894968246213973 0.24865657059110902
0.2734933500000807 0.4450415241817294 0.21934538348803123
0.2736824210001032 0.45188080117244755 0.20762090864680016
0.27387180799996713 0.4460185637518319 0.20762090864680016
0.27406097199991564 0.4460185637518319 0.20957498778700545
0.2742495800002871 0.44406448461162684 0.19491939423546656
0.27444717000025776 0.4460185637518319 0.18710307767464585
0.27463694500011115 0.44406448461162684 0.19394235466536403
0.2748262390000491 0.4460185637518319 0.22423058133854412
0.27501629200014577 0.44406448461162684 0.27015144113336587
0.2752061410001261 0.4460185637518319 0.33170493404982904
0.27539636100027565 0.44992672203224227 0.3737176355642404
0.27558552500022415 0.44699560332193444 0.4049829018075233
0.27577463300031013 0.44699560332193444 0.42745481191988266
0.27596407500004716 0.44894968246213973 0.43624816805080613
0.27615373900016493 0.4528578407425501 0.4587200781631655
0.2763434399998914 0.45188080117244755 0.48900830483634583
0.27653262300009374 0.45676599902296044 0.524181729360039
0.2767225090001375 0.45481191988275516 0.5544699560332194
0.2769123950001813 0.46262823644357587 0.5710796287249633
0.27710265199993955 0.457743038593063 0.5632633121641426
0.2772929269999622 0.45481191988275516 0.5417684416218858
0.27748270200027036 0.45188080117244755 0.5144113336590133
0.27767193999989104 0.45188080117244755 0.4948705422569615
0.2778616969999348 0.4509037616023448 0.4811919882755251
0.2780520460000844 0.44894968246213973 0.47728382999511476
0.2782420620001176 0.4460185637518319 0.47239863214460187
0.2784332070000346 0.44699560332193444 0.47239863214460187
0.27862211199999365 0.44406448461162684 0.46946751343429405
0.27881055400030164 0.4450415241817294 0.467513434294089
0.27899920000027123 0.4460185637518319 0.45969711773326827
0.2791889009999977 0.44699560332193444 0.44992672203224227
0.2793821019999996 0.44699560332193444 0.4333170493404983
0.2795716179998635 0.4479726428920372 0.4186614557889594
0.2797604110000975 0.4509037616023448 0.3913043478260869
0.27994979799996145 0.44992672203224227 0.36980947728383007
0.2801392209998994 0.45188080117244755 0.35710796287249624
0.280329791999975 0.4557889594528579 0.33952125061064975
0.28051921599990237 0.4587200781631655 0.33756717147044446
0.2807084350001787 0.4557889594528579 0.34929164631167553
0.28089770999986285 0.4557889594528579 0.3737176355642404
0.281087134000245 0.46165119687347334 0.40009770395701016
0.28127653899991856 0.4557889594528579 0.4264777723497801
0.2814653509999516 0.457743038593063 0.4479726428920372
0.28165442199997415 0.4587200781631655 0.4704445530043966
0.2818441230001554 0.4636052760136786 0.486077186126038
0.2820335649998924 0.467513434294089 0.49877870053737183
0.28222354399986216 0.4655593551538837 0.5095261358085001
0.28241550400025517 0.4636052760136786 0.5183194919394236
0.28260481600000276 0.46458231558378116 0.5261358085002443
0.2827941099999407 0.46165119687347334 0.524181729360039
0.2829841450002277 0.4636052760136786 0.5183194919394236
0.2831739570001446 0.46458231558378116 0.4978016609672691
0.2833642690002307 0.4636052760136786 0.4753297508549097
0.2835537480000312 0.46262823644357587 0.4509037616023448
0.2837432270002864 0.45969711773326827 0.42452369320957506
0.2839331499999389 0.46262823644357587 0.403028822667318
0.28412331400022595 0.457743038593063 0.37957987298485585
0.2843129970001428 0.45676599902296044 0.3629702002931119
0.2845032899999751 0.45188080117244755 0.3561309233023937
0.2846930840000823 0.4509037616023448 0.34929164631167553
0.2848823409999568 0.4479726428920372 0.3531998045920859
0.28507115299998986 0.44211040547142155 0.3561309233023937
0.28526020600020274 0.441133365901319 0.36687835857352225
0.28544964799993977 0.43722520762090866 0.37957987298485585
0.2856392749999941 0.4401563263312165 0.39912066438690763
0.2858287530002599 0.4382022471910112 0.41670737664875435
0.28601843600017673 0.43624816805080613 0.43429408891060084
0.28620797000030507 0.441133365901319 0.45188080117244755
0.2863998380003068 0.441133365901319 0.4665363947239862
0.2865893540001707 0.44211040547142155 0.4753297508549097
0.28677916600008757 0.4460185637518319 0.49193942354665365
0.28696903399986695 0.4450415241817294 0.5007327796775769
0.28715945700014345 0.44699560332193444 0.5085490962383976
0.2873490289998699 0.4479726428920372 0.5144113336590133
0.2875391560000935 0.4509037616023448 0.5173424523693209
0.28772885700027473 0.4460185637518319 0.5192965315095261
0.2879191870001705 0.44699560332193444 0.5290669272105519
0.28810842600023534 0.4460185637518319 0.5456765999022961
0.2882983120002791 0.44699560332193444 0.5720566682950659
0.2884879940002065 0.4479726428920372 0.5906204201270151
0.2886779180003032 0.44699560332193444 0.6091841719589643
0.28886830400006147 0.44406448461162684 0.6101612115290669
0.28905794899992543 0.44699560332193444 0.6130923302393747
0.28924781700015956 0.44406448461162684 0.6062530532486565
0.2894373520002773 0.44699560332193444 0.6042989741084515
0.28962733100024707 0.4460185637518319 0.5915974596971176
0.28981677199999467 0.4479726428920372 0.5740107474352711
0.29000649199997497 0.44992672203224227 0.5446995603321934
0.2901970450002409 0.4509037616023448 0.5153883732291158
0.2903868940002212 0.4479726428920372 0.4811919882755251
0.29057655799988424 0.45188080117244755 0.441133365901319
0.2907663890000549 0.4479726428920372 0.39716658524670256
0.29095677500026795 0.44894968246213973 0.35222276502198335
0.2911460129998886 0.44992672203224227 0.3004396678065462
0.2913357510001333 0.44894968246213973 0.255495847581827
0.2915256189999127 0.44992672203224227 0.22813873961895448
0.291715338999893 0.44992672203224227 0.22129946262823652
0.29190731800008507 0.4479726428920372 0.23693209574987795
0.2920982410000761 0.44992672203224227 0.2613580850024426
0.2922883310002362 0.44894968246213973 0.29262335124572547
0.2924779580002905 0.4509037616023448 0.3258426966292134
0.2926676030001545 0.4509037616023448 0.3610161211529066
0.29285645300024044 0.45188080117244755 0.3756717147044455
0.2930461720002313 0.4528578407425501 0.39912066438690763
0.2932354290001058 0.45188080117244755 0.41670737664875435
0.2934249820000332 0.4528578407425501 0.4382022471910112
0.2936145349999606 0.4528578407425501 0.46165119687347334
0.2938038100000995 0.4538348803126526 0.4811919882755251
0.2939927699999316 0.4538348803126526 0.49975574010747437
0.2941824340000494 0.45481191988275516 0.524181729360039
0.29438419100006286 0.45676599902296044 0.5378602833414754
0.29457483600026535 0.45481191988275516 0.5368832437713726
0.29476461100011875 0.4538348803126526 0.5300439667806547
0.2949539609999192 0.4528578407425501 0.5212506106497312
0.29514456900005825 0.45188080117244755 0.5036638983878847
0.2953347890002078 0.4587200781631655 0.48998534440644836
0.29552463800018813 0.4538348803126526 0.4763067904250122
0.2957143020003059 0.45481191988275516 0.4665363947239862
0.29590505900023345 0.45188080117244755 0.46165119687347334
0.29609513000013976 0.45188080117244755 0.45188080117244755
0.2962852200002999 0.45481191988275516 0.4528578407425501
0.2964748280001004 0.45481191988275516 0.4509037616023448
0.29666397400023925 0.4538348803126526 0.4450415241817294
0.2968530450002618 0.4538348803126526 0.4382022471910112
0.29704267199986134 0.4528578407425501 0.4333170493404983
0.2972324289999051 0.4538348803126526 0.4264777723497801
0.2974218889999065 0.45676599902296044 0.4333170493404983
0.2976110540002992 0.4587200781631655 0.441133365901319
0.2978005690001737 0.457743038593063 0.4557889594528579
0.29798995600003764 0.45676599902296044 0.467513434294089
0.29817858300020816 0.45969711773326827 0.48705422569614076
0.2983776910000415 0.4587200781631655 0.5056179775280898
0.2985668370001804 0.457743038593063 0.5163654127992183
0.29875618599999143 0.457743038593063 0.522227650219834
0.2989458500001092 0.46165119687347334 0.5192965315095261
0.29913482900019517 0.457743038593063 0.512457254518808
0.2993248450002284 0.4587200781631655 0.5036638983878847
0.29951465700014523 0.4557889594528579 0.4938935026868587
0.29970421000007264 0.4557889594528579 0.4851001465559355
0.29989281799998935 0.46165119687347334 0.47239863214460187
0.30008207499986383 0.45481191988275516 0.467513434294089
0.3002708320000238 0.45481191988275516 0.4636052760136786
0.30046019900009924 0.4528578407425501 0.46458231558378116
0.300651992999974 0.45676599902296044 0.46458231558378116
0.30084147200022926 0.4528578407425501 0.4665363947239862
0.3010303770001883 0.45188080117244755 0.4665363947239862
0.3012200960001792 0.45188080117244755 0.457743038593063
0.3014096490001066 0.4528578407425501 0.4538348803126526
0.3015984240000762 0.4528578407425501 0.44406448461162684
0.3017875330001516 0.46165119687347334 0.4382022471910112
0.30197643800011065 0.4528578407425501 0.42745481191988266
0.3021650089999639 0.45188080117244755 0.412799218368344
0.3023738950000734 0.4509037616023448 0.4049829018075233
0.3025648180000644 0.4528578407425501 0.40205178309721545
0.30275507500027743 0.4479726428920372 0.4137762579384465
0.3029446650002683 0.4528578407425501 0.42256961406936977
0.3031339960002697 0.44992672203224227 0.43429408891060084
0.30332419700016544 0.4509037616023448 0.45188080117244755
0.3035143790002621 0.44992672203224227 0.4606741573033708
0.3037035620000097 0.45188080117244755 0.46946751343429405
0.303892967000138 0.4479726428920372 0.47239863214460187
0.30408264900006543 0.45188080117244755 0.47239863214460187
0.3042721100000563 0.44992672203224227 0.4733756717147044
0.30446188499990967 0.44894968246213973 0.4782608695652173
0.3046525120003025 0.44894968246213973 0.4636052760136786
0.3048421020002934 0.45188080117244755 0.4557889594528579
0.30503111799998806 0.44699560332193444 0.4509037616023448
0.30522085600023274 0.44894968246213973 0.4450415241817294
0.30541068599995924 0.44894968246213973 0.441133365901319
0.30560062799986554 0.45188080117244755 0.43429408891060084
0.30579010700012077 0.45188080117244755 0.4206155349291647
0.30597954900031255 0.45188080117244755 0.40693698094772834
0.30616915700011305 0.45188080117244755 0.3981436248168051
0.3063685440001791 0.45188080117244755 0.3961895456765998
0.3065572999998949 0.45188080117244755 0.403028822667318
0.3067467790001501 0.4528578407425501 0.42159257449926724
0.30693690599991896 0.4557889594528579 0.43722520762090866
0.3071269960000791 0.4509037616023448 0.4587200781631655
0.30731758599995374 0.4479726428920372 0.4851001465559355
0.30750699100008205 0.44699560332193444 0.5095261358085001
0.30769715499991435 0.4479726428920372 0.5359062042012701
0.30788650400018014 0.44699560332193444 0.550561797752809
0.3080762419999701 0.4479726428920372 0.5681485100146555
0.3082657949998975 0.4479726428920372 0.5701025891548608
0.30845568099994125 0.44699560332193444 0.5720566682950659
0.308644994000133 0.4479726428920372 0.5720566682950659
0.3088344729999335 0.4479726428920372 0.5622862725940401
0.30902452500004074 0.4479726428920372 0.5515388373229115
0.30921509700010574 0.44699560332193444 0.5417684416218858
0.30940466800029753 0.45188080117244755 0.5280898876404494
0.3095950360002462 0.44699560332193444 0.5095261358085001
0.30978495899989866 0.4460185637518319 0.48705422569614076
0.30997445699995296 0.4460185637518319 0.45676599902296044
0.31016380600021876 0.44699560332193444 0.41963849535906195
0.31036298800017903 0.4509037616023448 0.38446507083536874
0.31055376399990564 0.4460185637518319 0.3531998045920859
0.31074318700029835 0.4450415241817294 0.33170493404982904
0.31093288800002483 0.44894968246213973 0.3277967757694187
0.3111226450000686 0.45188080117244755 0.32681973619931615
0.3113122160002604 0.4479726428920372 0.32975085490962375
0.3115018430003147 0.4509037616023448 0.3336590131900341
0.31169095199993535 0.44992672203224227 0.33756717147044446
0.31187974500016935 0.45188080117244755 0.34733756717147046
0.312068760999864 0.45188080117244755 0.36003908158280407
0.3122587400002885 0.4509037616023448 0.376648754274548
0.3124479779999092 0.4509037616023448 0.39228138739618945
0.31263734599997406 0.45188080117244755 0.4108451392281387
0.31282699100029276 0.45188080117244755 0.4284318514899854
0.31301624800016725 0.4528578407425501 0.4450415241817294
0.31320535700024266 0.45188080117244755 0.4528578407425501
0.3133948170002441 0.45188080117244755 0.45969711773326827
0.3135839249998753 0.45188080117244755 0.4606741573033708
0.31377312599988727 0.45188080117244755 0.4636052760136786
0.31396205000010013 0.4528578407425501 0.4655593551538837
0.3141516949999641 0.4538348803126526 0.47142159257449934
0.3143425819998811 0.45188080117244755 0.47435271128480694
0.3145323570001892 0.45188080117244755 0.4802149487054226
0.314722243000233 0.45188080117244755 0.486077186126038
0.314911906999896 0.4538348803126526 0.4880312652662433
0.3151020340001196 0.4528578407425501 0.4929164631167562
0.31529240200006825 0.4538348803126526 0.4880312652662433
0.31548200999986875 0.4587200781631655 0.486077186126038
0.31567150799992305 0.45481191988275516 0.48216902784562765
0.3158613939999668 0.4538348803126526 0.4753297508549097
0.3160506140002326 0.4538348803126526 0.47239863214460187
0.3162402779998956 0.4538348803126526 0.4665363947239862
0.31643003399994996 0.4538348803126526 0.4655593551538837
0.3166198459998668 0.4538348803126526 0.46165119687347334
0.3168091219999951 0.45481191988275516 0.44894968246213973
0.31699782300029256 0.45481191988275516 0.44699560332193444
0.31718737600021996 0.4557889594528579 0.42452369320957506
0.31737761400017916 0.45676599902296044 0.42256961406936977
0.31756731499990565 0.45481191988275516 0.4079140205178309
0.317756627000108 0.457743038593063 0.4108451392281387
0.3179461980002998 0.45676599902296044 0.42256961406936977
0.31813645500005805 0.4538348803126526 0.43429408891060084
0.31832732300017597 0.4538348803126526 0.4509037616023448
0.3185167460001139 0.4538348803126526 0.4665363947239862
0.3187052620000941 0.4538348803126526 0.4782608695652173
0.3188939820001906 0.4538348803126526 0.4938935026868587
0.3190829230002237 0.4557889594528579 0.512457254518808
0.31927249499995014 0.45481191988275516 0.5232046897899365
0.319461548000163 0.45481191988275516 0.5378602833414754
0.31965067500004807 0.45969711773326827 0.5446995603321934
0.31984024600023986 0.4557889594528579 0.550561797752809
0.32002989200009324 0.45481191988275516 0.5486077186126037
0.32021959300027447 0.4557889594528579 0.5437225207620908
0.32040901600021243 0.45969711773326827 0.5319980459208598
0.3205980510001609 0.45481191988275516 0.5192965315095261
0.3207873629999085 0.45481191988275516 0.5056179775280898
0.3209759159999521 0.45481191988275516 0.486077186126038
0.3211641719999534 0.45481191988275516 0.4665363947239862
0.32135309600016626 0.4538348803126526 0.43917928676111373
0.3215417599999455 0.4538348803126526 0.4137762579384465
0.32173142400006327 0.45676599902296044 0.3903273082559844
0.32192053200014925 0.46458231558378116 0.3737176355642404
0.3221085850000236 0.4557889594528579 0.36199316072300936
0.32229863800012026 0.457743038593063 0.3512457254518808
0.32248758000014277 0.45676599902296044 0.3502686858817783
0.3226774290001231 0.457743038593063 0.35222276502198335
0.3228675190002832 0.45676599902296044 0.3551538837322912
0.3230571459998828 0.45481191988275516 0.35710796287249624
0.32324753300008524 0.45188080117244755 0.3629702002931119
0.32343743699993865 0.45188080117244755 0.3786028334147533
0.32362643500027843 0.45188080117244755 0.39716658524670256
0.3238163030000578 0.44699560332193444 0.41475329750854906
0.32400611499997467 0.4479726428920372 0.4382022471910112
0.324195963999955 0.4479726428920372 0.44992672203224227
0.3243854800002737 0.44894968246213973 0.45969711773326827
0.32457519900026455 0.44699560332193444 0.47435271128480694
0.32476436300021305 0.44992672203224227 0.4831460674157304
0.32495386100026735 0.4479726428920372 0.49877870053737183
0.3251437470003111 0.45188080117244755 0.5173424523693209
0.3253328189998683 0.4528578407425501 0.5378602833414754
0.3255230200002188 0.4528578407425501 0.5534929164631168
0.3257130169999982 0.45676599902296044 0.5661944308744504
0.32590286599997853 0.4538348803126526 0.5759648265754762
0.32609343800004353 0.45676599902296044 0.578895945285784
0.3262929530001202 0.45676599902296044 0.5740107474352711
0.3264835990003121 0.45969711773326827 0.5652173913043479
0.3266738560000704 0.4587200781631655 0.5486077186126037
0.3268637599999238 0.4606741573033708 0.5261358085002443
0.32705383200027427 0.4704445530043966 0.4978016609672691
0.32724355100026514 0.4636052760136786 0.46946751343429405
0.3274328450002031 0.46165119687347334 0.4382022471910112
0.3276229540001623 0.457743038593063 0.403028822667318
0.3278125810002166 0.45188080117244755 0.3561309233023937
0.3280021890000171 0.44699560332193444 0.3141182217879823
0.328192835000209 0.4401563263312165 0.2838299951148022
0.3283818320001046 0.42940889106008795 0.27015144113336587
0.3285712740002964 0.4255007327796776 0.2730825598436737
0.328761029999896 0.42256961406936977 0.2838299951148022
0.3289545090001411 0.42256961406936977 0.30727894479726436
0.3291445439999734 0.42256961406936977 0.3356130923302394
0.329333226000017 0.42745481191988266 0.3678553981436248
0.32952368699989165 0.4255007327796776 0.38641914997557403
0.3297137399999883 0.4303859306301905 0.403028822667318
0.329903385000307 0.4333170493404983 0.40889106008793363
0.3300933820000864 0.4382022471910112 0.4157303370786516
0.3302924909999092 0.4430874450415241 0.41670737664875435
0.33048209900016445 0.44211040547142155 0.4137762579384465
0.33067120800023986 0.4450415241817294 0.40889106008793363
0.3308621870000934 0.44992672203224227 0.40986809965803617
0.3310518690000208 0.45188080117244755 0.41670737664875435
0.33124166300012803 0.4509037616023448 0.42940889106008795
0.33143123399986507 0.4538348803126526 0.44699560332193444
0.33162069500031066 0.4557889594528579 0.47142159257449934
0.3318105070002275 0.45481191988275516 0.48998534440644836
0.33199978199991165 0.4557889594528579 0.512457254518808
0.33218935300010344 0.4557889594528579 0.5310210063507572
0.33237875800023176 0.45481191988275516 0.5466536394723986
0.3325683670000217 0.4557889594528579 0.567171470444553
0.3327586230002453 0.4538348803126526 0.578895945285784
0.3329500099998768 0.4538348803126526 0.5867122618466047
0.33313974800012147 0.4538348803126526 0.5867122618466047
0.3333292080001229 0.45481191988275516 0.5818270639960919
0.33351942800027246 0.457743038593063 0.5749877870053737
0.33370935099992494 0.45481191988275516 0.5632633121641426
0.3338991260002331 0.4557889594528579 0.5564240351734244
0.3340892530000019 0.45481191988275516 0.550561797752809
0.3342870100000255 0.4528578407425501 0.5525158768930141
0.3344774890001645 0.4538348803126526 0.5476306790425012
0.33466720800015537 0.45481191988275516 0.5359062042012701
0.3348571870001251 0.4557889594528579 0.5105031753786029
0.33504670299998907 0.45481191988275516 0.4782608695652173
0.33523664499989536 0.4538348803126526 0.44992672203224227
0.33542606800028807 0.4509037616023448 0.4255007327796776
0.33561560199996165 0.4509037616023448 0.41182217879824123
0.3358049700000265 0.44992672203224227 0.412799218368344
0.3359943190002923 0.44894968246213973 0.4176844162188569
0.33618470600004 0.44992672203224227 0.4255007327796776
0.3363739810001789 0.4479726428920372 0.4333170493404983
0.33656357100016976 0.44699560332193444 0.42940889106008795
0.33675266099999135 0.44699560332193444 0.4235466536394723
0.33694160300001386 0.4479726428920372 0.4079140205178309
0.33713100700015275 0.44894968246213973 0.38153395212506114
0.33732139399990047 0.4479726428920372 0.3404982901807523
0.3375111499999548 0.44699560332193444 0.29262335124572547
0.33770090699999855 0.4479726428920372 0.2506106497313141
0.3378905710001163 0.4479726428920372 0.2134831460674158
0.3380798829998639 0.44894968246213973 0.19785051294577438
0.33827812100025767 0.45481191988275516 0.19785051294577438
0.33846859999994194 0.4538348803126526 0.22423058133854412
0.3386571159999221 0.45188080117244755 0.2662432828529555
0.3388467610002408 0.4538348803126526 0.3160723009281876
0.3390355000001364 0.4528578407425501 0.3688324377137273
0.3392252749999898 0.4557889594528579 0.4206155349291647
0.3394147349999912 0.45676599902296044 0.4655593551538837
0.33960404700019353 0.4606741573033708 0.5026868588177822
0.33979276700029004 0.45676599902296044 0.5261358085002443
0.33998213499990015 0.457743038593063 0.550561797752809
0.34017153900003905 0.4606741573033708 0.5652173913043479
0.34036074100004043 0.45676599902296044 0.5818270639960919
0.3405496820000735 0.45676599902296044 0.6023448949682462
0.3407386060002864 0.45676599902296044 0.6209086468001954
0.3409279550000974 0.4587200781631655 0.6384953590620419
0.34111719300017285 0.45969711773326827 0.6463116756228626
0.3413068570002906 0.4587200781631655 0.6511968734733757
0.34149576200024967 0.46458231558378116 0.6424035173424523
0.34168479600020873 0.4587200781631655 0.6345872007816316
0.3418739230000938 0.45969711773326827 0.621885686370298
0.3420628100002432 0.457743038593063 0.6091841719589643
0.34225799200021356 0.4587200781631655 0.5818270639960919
0.3424596370000472 0.45969711773326827 0.5554469956033219
0.342649616000017 0.45969711773326827 0.5359062042012701
0.34283905800020875 0.45676599902296044 0.5075720566682951
0.34302853700000924 0.4557889594528579 0.4753297508549097
0.343218108000201 0.4538348803126526 0.4401563263312165
0.34340742099993804 0.4587200781631655 0.3981436248168051
0.34359660300015094 0.4538348803126526 0.34929164631167553
0.3437868230003005 0.45188080117244755 0.29946262823644365
0.3439763569999741 0.44699560332193444 0.2535417684416219
0.3441660399998909 0.4460185637518319 0.2232535417684416
0.34435585200026253 0.4450415241817294 0.21055202735710798
0.3445457380003063 0.44211040547142155 0.21934538348803123
0.3447358280000117 0.44406448461162684 0.2437713727405959
0.3449261959999603 0.4450415241817294 0.2760136785539815
0.34511543400003575 0.4460185637518319 0.3131411822178798
0.34530515400001605 0.44699560332193444 0.3512457254518808
0.34549492899986944 0.4460185637518319 0.3834880312652662
0.34568457400018815 0.44699560332193444 0.41182217879824123
0.34587427499991463 0.44992672203224227 0.431362970200293
0.34606390199996895 0.44699560332193444 0.44894968246213973
0.34625301100004435 0.44894968246213973 0.4704445530043966
0.3464515450000363 0.44992672203224227 0.48412310698583294
0.3466409319999002 0.45188080117244755 0.5026868588177822
0.346830410000166 0.4509037616023448 0.5192965315095261
0.34701981500029433 0.45188080117244755 0.5378602833414754
0.34720955300008427 0.45188080117244755 0.5534929164631168
0.34739875400009623 0.4528578407425501 0.5681485100146555
0.3475882150000871 0.4538348803126526 0.5818270639960919
0.3477769900000567 0.4538348803126526 0.5925744992672204
0.34796659800031193 0.4557889594528579 0.5974596971177333
0.3481569290001971 0.457743038593063 0.5994137762579383
0.34834638900019854 0.457743038593063 0.5984367366878358
0.3485356830001365 0.4606741573033708 0.5896433805569126
0.34872603200028607 0.4557889594528579 0.5847581827063997
0.3489162330001818 0.45481191988275516 0.5730337078651686
0.3491058230001727 0.44992672203224227 0.5613092330239375
0.3492961910001213 0.4509037616023448 0.540791402051783
0.34948620700015454 0.45188080117244755 0.5144113336590133
0.3496764820001772 0.44699560332193444 0.47728382999511476
0.34986599800004115 0.4479726428920372 0.44211040547142155
0.35005540300016946 0.4460185637518319 0.4137762579384465
0.3502446970001074 0.44699560332193444 0.403028822667318
0.3504354350002359 0.44894968246213973 0.403028822667318
0.3506249510000998 0.44699560332193444 0.4059599413776258
0.35081448500022816 0.4479726428920372 0.412799218368344
0.3510040559999652 0.44699560332193444 0.41670737664875435
0.3511932199999137 0.44699560332193444 0.4255007327796776
0.3513824400001795 0.4479726428920372 0.43429408891060084
0.3515721600001598 0.4479726428920372 0.43624816805080613
0.35176202699994974 0.4528578407425501 0.4401563263312165
0.35195204299998295 0.4509037616023448 0.43624816805080613
0.35214155900030164 0.44699560332193444 0.4255007327796776
0.3523306310003136 0.4479726428920372 0.4079140205178309
0.35251975800019864 0.4479726428920372 0.38935026868588185
0.35270905100014716 0.4450415241817294 0.36687835857352225
0.35289821500009566 0.4479726428920372 0.3453834880312652
0.3530879720001394 0.44699560332193444 0.3238886174890083
0.3532770810002148 0.44406448461162684 0.3131411822178798
0.35346674499987785 0.4479726428920372 0.3063019052271616
0.3536558900000273 0.44699560332193444 0.303370786516854
0.35384549900027196 0.44699560332193444 0.31216414264777725
0.3540344030002416 0.4460185637518319 0.3307278944797265
0.35422465999999986 0.4460185637518319 0.3531998045920859
0.3544149170002129 0.4479726428920372 0.3805569125549584
0.3546047660001932 0.44699560332193444 0.4059599413776258
0.35479433699993024 0.44699560332193444 0.42940889106008795
0.3549835759999951 0.4479726428920372 0.4460185637518319
0.35517329499998596 0.4479726428920372 0.4606741573033708
0.35536314399996627 0.44992672203224227 0.4782608695652173
0.35555288200021096 0.44992672203224227 0.4909623839765511
0.35574208400021234 0.45188080117244755 0.5026868588177822
0.3559316740002032 0.4509037616023448 0.5095261358085001
0.35612143000025753 0.45188080117244755 0.512457254518808
0.35631122399991 0.4509037616023448 0.5114802149487054
0.35650092500009123 0.44992672203224227 0.5095261358085001
0.3566901260001032 0.44992672203224227 0.512457254518808
0.35687949400016805 0.4538348803126526 0.5134342940889105
0.3570699360002436 0.4557889594528579 0.5134342940889105
0.35725922900019214 0.4557889594528579 0.5105031753786029
0.3574491899998975 0.4587200781631655 0.5085490962383976
0.3576397239999096 0.45676599902296044 0.49877870053737183
0.35782986999993227 0.4587200781631655 0.4851001465559355
0.3580196820003039 0.45969711773326827 0.4684904738641915
0.3582091420003053 0.46165119687347334 0.44992672203224227
0.3583990100000847 0.46165119687347334 0.4382022471910112
0.3585876739998639 0.4606741573033708 0.4264777723497801
0.35877654200021425 0.4636052760136786 0.4186614557889594
0.3589658720002262 0.46165119687347334 0.40889106008793363
0.35915479599998434 0.4587200781631655 0.3961895456765998
0.3593434970002818 0.45969711773326827 0.38251099169516367
0.3595323650001774 0.457743038593063 0.3707865168539326
0.3597213430002739 0.457743038593063 0.36199316072300936
0.3599101370000426 0.45481191988275516 0.36003908158280407
0.36009928300018146 0.45481191988275516 0.3629702002931119
0.36028800200028854 0.45481191988275516 0.36980947728383007
0.36047698099991976 0.45481191988275516 0.376648754274548
0.36066557100002683 0.45481191988275516 0.38153395212506114
0.3608541610001339 0.4528578407425501 0.3913043478260869
0.36104284400016695 0.45481191988275516 0.4040058622374205
0.36123215599991454 0.45676599902296044 0.4186614557889594
0.36142128300025433 0.4557889594528579 0.43429408891060084
0.3616096320001816 0.4557889594528579 0.4479726428920372
0.3617979999999079 0.45969711773326827 0.45969711773326827
0.36198647900027936 0.4538348803126526 0.46946751343429405
0.36218069799997465 0.4528578407425501 0.4782608695652173
0.3623808810002629 0.4528578407425501 0.4880312652662433
0.36257047100025375 0.45481191988275516 0.4929164631167562
0.3627602830001706 0.4538348803126526 0.49682462139716654
0.36295065100011925 0.4528578407425501 0.5026868588177822
0.3631406290000996 0.4538348803126526 0.5075720566682951
0.36333038600014333 0.4528578407425501 0.5095261358085001
0.3635202539999227 0.4557889594528579 0.5065950170981925
0.36371039899995594 0.4538348803126526 0.5026868588177822
0.3639002489999257 0.4528578407425501 0.495847581827064
0.36409013499996945 0.45188080117244755 0.4938935026868587
0.36427931700018235 0.4538348803126526 0.48998534440644836
0.36446859300031065 0.45188080117244755 0.49975574010747437
0.36465779399986786 0.4528578407425501 0.495847581827064
0.36484836499994344 0.4509037616023448 0.4938935026868587
0.36503817700031505 0.4509037616023448 0.49193942354665365
0.36522985999999946 0.45188080117244755 0.4909623839765511
0.3654196350003076 0.4528578407425501 0.49877870053737183
0.3656091140001081 0.4509037616023448 0.4938935026868587
0.3657984999999826 0.45188080117244755 0.49682462139716654
0.3659879050001109 0.4479726428920372 0.5036638983878847
0.36617771700002777 0.44992672203224227 0.5056179775280898
0.3663766590002524 0.44894968246213973 0.5095261358085001
0.36656724900012705 0.4479726428920372 0.5114802149487054
0.36675702399998045 0.44699560332193444 0.5153883732291158
0.3669467250001617 0.4479726428920372 0.5163654127992183
0.36713642599988816 0.44699560332193444 0.5095261358085001
0.36732609000000593 0.45188080117244755 0.5036638983878847
0.36751518000028227 0.4450415241817294 0.495847581827064
0.36770488100000875 0.4479726428920372 0.4929164631167562
0.3678947120001794 0.4450415241817294 0.4831460674157304
0.3680840800002443 0.44699560332193444 0.4811919882755251
0.3682733549999284 0.44894968246213973 0.4782608695652173
0.3684630370003106 0.44894968246213973 0.4782608695652173
0.36865244199998415 0.4509037616023448 0.4684904738641915
0.368841588000123 0.44992672203224227 0.4509037616023448
0.3690308999998706 0.45188080117244755 0.42256961406936977
0.369220230999872 0.44992672203224227 0.3913043478260869
0.3694101720002436 0.44699560332193444 0.3629702002931119
0.36960017000001244 0.44992672203224227 0.348314606741573
0.3697893150001619 0.44992672203224227 0.33756717147044446
0.3699788130002162 0.44894968246213973 0.3385442110405472
0.3701678100001118 0.45188080117244755 0.3502686858817783
0.37036678899994513 0.45481191988275516 0.3707865168539326
0.3705561750002744 0.45188080117244755 0.3913043478260869
0.3707461730000432 0.45188080117244755 0.41475329750854906
0.37093600300022445 0.4509037616023448 0.4333170493404983
0.37112585200020476 0.45188080117244755 0.4460185637518319
0.3713153130001956 0.44894968246213973 0.457743038593063
0.371504644000197 0.4557889594528579 0.4606741573033708
0.3716939370001455 0.44894968246213973 0.4636052760136786
0.3718830269999671 0.4528578407425501 0.4704445530043966
0.3720724499999051 0.44992672203224227 0.47239863214460187
0.3722619290001603 0.44992672203224227 0.46946751343429405
0.37245122300009825 0.44992672203224227 0.4733756717147044
0.3726402940001208 0.45188080117244755 0.4802149487054226
0.3728302550002809 0.4509037616023448 0.4978016609672691
0.37301943700003903 0.44992672203224227 0.5173424523693209
0.373208730999977 0.45188080117244755 0.5359062042012701
0.37339809900004184 0.44894968246213973 0.5544699560332194
0.373588096000276 0.4509037616023448 0.5710796287249633
0.3737779450002563 0.4528578407425501 0.5808500244259893
0.3739675720003106 0.4509037616023448 0.5847581827063997
0.3741572920002909 0.45188080117244755 0.578895945285784
0.37435641899992333 0.4509037616023448 0.5681485100146555
0.3745466390000729 0.45188080117244755 0.5622862725940401
0.3747368950002965 0.44894968246213973 0.5525158768930141
0.3749267440002768 0.457743038593063 0.5437225207620908
0.3751166120000562 0.45188080117244755 0.5271128480703469
0.37530636900009995 0.4509037616023448 0.5075720566682951
0.3754956810003023 0.45188080117244755 0.4811919882755251
0.3756855120000182 0.44894968246213973 0.4557889594528579
0.37587549099998796 0.45188080117244755 0.4264777723497801
0.3760657660000106 0.45188080117244755 0.4010747435271129
0.37625513300008606 0.4509037616023448 0.37469467513434296
0.37644446400008746 0.44992672203224227 0.35222276502198335
0.3766340540000783 0.4460185637518319 0.3365901319003419
0.37682336600028066 0.44699560332193444 0.3336590131900341
0.37701308600026096 0.4528578407425501 0.33756717147044446
0.37720269400006146 0.44992672203224227 0.3453834880312652
0.3773922099999254 0.45188080117244755 0.3561309233023937
0.3775816150000537 0.4528578407425501 0.3659013190034197
0.37777096399986476 0.4528578407425501 0.3805569125549584
0.37796092500002487 0.4557889594528579 0.39716658524670256
0.3781504590001532 0.45676599902296044 0.39716658524670256
0.3783403080001335 0.4538348803126526 0.3903273082559844
0.3785296760001984 0.4538348803126526 0.37176355642403514
0.3787187850002738 0.4538348803126526 0.35222276502198335
0.37890726300020106 0.4538348803126526 0.3434294088910601
0.37909729800003333 0.45188080117244755 0.34929164631167553
0.3792857950002144 0.45188080117244755 0.37176355642403514
0.3794755700000678 0.4538348803126526 0.3981436248168051
0.3796663080001963 0.45481191988275516 0.4303859306301905
0.37985571299986987 0.45676599902296044 0.4587200781631655
0.38004569200029437 0.457743038593063 0.4831460674157304
0.3802346520001265 0.4557889594528579 0.5026868588177822
0.3804235390002759 0.45676599902296044 0.5183194919394236
0.38061275800009753 0.4606741573033708 0.5319980459208598
0.380802236999898 0.46262823644357587 0.5427454811919883
0.38099186399995233 0.4655593551538837 0.5534929164631168
0.381181695000123 0.4665363947239862 0.5544699560332194
0.3813715629999024 0.46946751343429405 0.5476306790425012
0.38156144899994615 0.4704445530043966 0.5456765999022961
0.38175072400008503 0.4704445530043966 0.5271128480703469
0.38194005500008643 0.46946751343429405 0.5046409379579873
0.38212973700001385 0.46458231558378116 0.47923790913532005
0.382320976000301 0.46458231558378116 0.4460185637518319
0.38251110300006985 0.4665363947239862 0.41475329750854906
0.38270087799992325 0.45969711773326827 0.38739618954567656
0.3828902640002525 0.45188080117244755 0.3756717147044455
0.38307909500008464 0.44894968246213973 0.37957987298485585
0.38326833300016006 0.4450415241817294 0.38251099169516367
0.38345755199998166 0.441133365901319 0.40009770395701016
0.3836470310002369 0.43917928676111373 0.41963849535906195
0.3838357320000796 0.43722520762090866 0.44211040547142155
0.38402556300025026 0.4382022471910112 0.46165119687347334
0.3842149120000613 0.441133365901319 0.4929164631167562
0.38481855200006976 0.44211040547142155 0.4831460674157304
0.38502292000021043 0.44894968246213973 0.467513434294089
0.385213584000212 0.4509037616023448 0.44894968246213973
0.3854034139999385 0.4479726428920372 0.4333170493404983
0.3855912819999503 0.44894968246213973 0.42256961406936977
0.3857784830001947 0.44992672203224227 0.4157303370786516
0.3859658510000372 0.4509037616023448 0.4040058622374205
0.3861526820001018 0.4509037616023448 0.39912066438690763
0.3863429749999341 0.4509037616023448 0.39716658524670256
0.38653065800008335 0.4557889594528579 0.40009770395701016
0.38671824800030663 0.4528578407425501 0.40693698094772834
0.38690524599996934 0.4528578407425501 0.41670737664875435
0.3870929839999917 0.45188080117244755 0.4255007327796776
0.3872804070001621 0.4538348803126526 0.431362970200293
0.38746734899996227 0.45188080117244755 0.4333170493404983
0.38765447600007974 0.4528578407425501 0.4352711284807034
0.3878417700002501 0.4509037616023448 0.4352711284807034
0.3880289520002407 0.4460185637518319 0.4401563263312165
0.38821630100028415 0.4479726428920372 0.4460185637518319
0.38840837299994746 0.4479726428920372 0.44894968246213973
0.3885953700000755 0.44699560332193444 0.4479726428920372
0.3887825530000555 0.44406448461162684 0.4509037616023448
0.3889694760000566 0.44699560332193444 0.45188080117244755
0.3891554920000999 0.44699560332193444 0.4538348803126526
0.38934217499991064 0.44699560332193444 0.4655593551538837
0.38952920900010213 0.4479726428920372 0.47728382999511476
0.38971600300010323 0.44894968246213973 0.49682462139716654
0.38990264900030525 0.44699560332193444 0.5183194919394236
0.3900891829998727 0.4450415241817294 0.5446995603321934
0.39028597700007595 0.4479726428920372 0.5593551538837322
0.3904746040002465 0.4479726428920372 0.5642403517342451
0.3906620269999621 0.4460185637518319 0.5691255495847583
0.39084941300006903 0.4460185637518319 0.5720566682950659
0.3910361510002076 0.44699560332193444 0.5574010747435272
0.39122327799987033 0.4450415241817294 0.540791402051783
0.3914099610001358 0.44699560332193444 0.5192965315095261
0.3915976809998938 0.4450415241817294 0.5026868588177822
0.39178469700027563 0.4450415241817294 0.48216902784562765
0.3919715830002133 0.44699560332193444 0.4704445530043966
0.392158266000024 0.4450415241817294 0.4557889594528579
0.39234565200013094 0.4460185637518319 0.44992672203224227
0.39253303800023787 0.4460185637518319 0.4430874450415241
0.3927200910002284 0.4479726428920372 0.4382022471910112
0.3929067550002401 0.44992672203224227 0.42452369320957506
0.3930933639999239 0.4538348803126526 0.40889106008793363
0.39327975000014703 0.4557889594528579 0.3883732291157791
0.3934661359999154 0.45676599902296044 0.3737176355642404
0.39365285600024436 0.457743038593063 0.3659013190034197
0.3938395019999916 0.4606741573033708 0.3756717147044455
0.39402611000014076 0.45969711773326827 0.3932584269662922
0.3942129410002053 0.46165119687347334 0.4176844162188569
0.3944024749998789 0.4606741573033708 0.441133365901319
0.3945896210002502 0.45969711773326827 0.46262823644357587
0.3947760070000186 0.45969711773326827 0.4802149487054226
0.3949633380002524 0.45676599902296044 0.4978016609672691
0.39514992800013715 0.45676599902296044 0.512457254518808
0.39533725899991623 0.457743038593063 0.5163654127992183
0.3955239040001288 0.4557889594528579 0.522227650219834
0.3957114019999608 0.457743038593063 0.5271128480703469
0.39589869500014174 0.45481191988275516 0.5271128480703469
0.3960856190001323 0.4557889594528579 0.5192965315095261
0.39627304200030267 0.4557889594528579 0.5153883732291158
0.39645953900026143 0.45676599902296044 0.5144113336590133
0.39664633300026253 0.457743038593063 0.5114802149487054
0.39683347900017907 0.45676599902296044 0.5085490962383976
0.3970198840002013 0.4587200781631655 0.49877870053737183
0.39720628800023405 0.45969711773326827 0.47923790913532005
0.3973929520002457 0.45676599902296044 0.46165119687347334
0.39758032000008825 0.45676599902296044 0.44406448461162684
0.39777026199999455 0.4606741573033708 0.43429408891060084
0.3979580190002707 0.45969711773326827 0.4303859306301905
0.3981449610000709 0.4636052760136786 0.431362970200293
0.3983341250000194 0.46165119687347334 0.4382022471910112
0.39852471499989406 0.4606741573033708 0.4401563263312165
0.3987146380000013 0.4606741573033708 0.42745481191988266
0.3989043390001825 0.4606741573033708 0.41475329750854906
0.3990941510000994 0.4587200781631655 0.38251099169516367
0.3992832600001748 0.46262823644357587 0.35906204201270153
0.39947240499986947 0.45969711773326827 0.3434294088910601
0.3996618840001247 0.46165119687347334 0.3385442110405472
0.39985086300021067 0.45969711773326827 0.3385442110405472
0.40003989700016973 0.4587200781631655 0.3453834880312652
0.40023002399993857 0.45969711773326827 0.35417684416218864
0.4004198739999083 0.4587200781631655 0.3610161211529066
0.4006097229998886 0.45969711773326827 0.3678553981436248
0.40079879399991114 0.45969711773326827 0.36980947728383007
0.400988254999902 0.4606741573033708 0.3707865168539326
0.4011774000000514 0.4587200781631655 0.376648754274548
0.4013668980001057 0.457743038593063 0.38739618954567656
0.40155613600018114 0.45481191988275516 0.38446507083536874
0.40174544799992873 0.4479726428920372 0.38153395212506114
0.40193437100015217 0.44406448461162684 0.38153395212506114
0.4021234980000372 0.43917928676111373 0.3805569125549584
0.40231477299994367 0.4352711284807034 0.38739618954567656
0.4025045850003153 0.4323400097703958 0.3952125061064973
0.402694657000211 0.431362970200293 0.41182217879824123
0.40288463600018076 0.4303859306301905 0.4157303370786516
0.40307402200005527 0.4323400097703958 0.4235466536394723
0.4032640380000885 0.43429408891060084 0.4284318514899854
0.4034544609999102 0.4352711284807034 0.4430874450415241
0.4036443850000069 0.43722520762090866 0.44699560332193444
0.4038336779999554 0.4382022471910112 0.457743038593063
0.4040233979999357 0.44211040547142155 0.46165119687347334
0.4042141909999373 0.441133365901319 0.46165119687347334
0.4044041150000339 0.44406448461162684 0.457743038593063
0.4045937790001517 0.4450415241817294 0.4557889594528579
0.4047837759999311 0.4460185637518319 0.4528578407425501
0.40497377400015466 0.4460185637518319 0.44894968246213973
0.4051639009999235 0.44699560332193444 0.4509037616023448
0.4053542130000096 0.4450415241817294 0.457743038593063
0.4055443400002332 0.44699560332193444 0.4684904738641915
0.4057345780001924 0.44992672203224227 0.4782608695652173
0.4059242230000564 0.45188080117244755 0.48705422569614076
0.4061147580000579 0.44992672203224227 0.49193942354665365
0.4063058110000384 0.4509037616023448 0.4938935026868587
0.4064952710000398 0.44992672203224227 0.5036638983878847
0.40668571300011536 0.44894968246213973 0.5017098192476794
0.40687596999987363 0.45188080117244755 0.5026868588177822
0.40706572599992796 0.44894968246213973 0.5017098192476794
0.407255890000215 0.44992672203224227 0.4909623839765511
0.40744625800016365 0.4509037616023448 0.4831460674157304
0.4076353290001862 0.4528578407425501 0.47435271128480694
0.40782486400030393 0.44992672203224227 0.4665363947239862
0.40801432400030535 0.44699560332193444 0.46458231558378116
0.4082046180001271 0.4479726428920372 0.46262823644357587
0.40839674500011824 0.44992672203224227 0.46262823644357587
0.40858605699986583 0.4479726428920372 0.4636052760136786
0.4087747580001633 0.4479726428920372 0.4655593551538837
0.4089638670002387 0.4479726428920372 0.46946751343429405
0.4091529380002612 0.44699560332193444 0.4684904738641915
0.40934228700007225 0.44699560332193444 0.47435271128480694
0.40953191400012656 0.4479726428920372 0.4733756717147044
0.40972118900026544 0.4479726428920372 0.47239863214460187
0.4099110570000448 0.44699560332193444 0.47435271128480694
0.4101007950002895 0.44992672203224227 0.4753297508549097
0.41029086700018524 0.44894968246213973 0.47923790913532005
0.4104801230000703 0.44992672203224227 0.4782608695652173
0.4106693250000717 0.45188080117244755 0.4763067904250122
0.41085869200014713 0.45188080117244755 0.47923790913532005
0.41104854100012744 0.45188080117244755 0.47923790913532005
0.4112386130000232 0.45188080117244755 0.4811919882755251
0.4114286290000564 0.4509037616023448 0.47435271128480694
0.4116181080003116 0.45188080117244755 0.4733756717147044
0.4118073640001967 0.44894968246213973 0.47239863214460187
0.4119974360000924 0.4557889594528579 0.4665363947239862
0.4121866919999775 0.4509037616023448 0.4684904738641915
0.41237730100010594 0.4538348803126526 0.47142159257449934
0.4125680199999806 0.4528578407425501 0.4782608695652173
0.41275766600028874 0.4538348803126526 0.47923790913532005
0.41294712600029015 0.45481191988275516 0.4782608695652173
0.41313706800019645 0.4557889594528579 0.4763067904250122
0.4133265290001873 0.45676599902296044 0.47239863214460187
0.41351600699999835 0.4528578407425501 0.4655593551538837
0.41370589400003155 0.4528578407425501 0.45676599902296044
0.4138953730002868 0.45676599902296044 0.44992672203224227
0.41408461099990745 0.45188080117244755 0.4460185637518319
0.4142860520000795 0.457743038593063 0.4382022471910112
0.4144765500000176 0.4557889594528579 0.4382022471910112
0.4146659359998921 0.4528578407425501 0.43917928676111373
0.41485554400014735 0.4538348803126526 0.44211040547142155
0.4150446710000324 0.45676599902296044 0.44992672203224227
0.4152336870001818 0.4538348803126526 0.45969711773326827
0.41542246300014085 0.45481191988275516 0.4753297508549097
0.41561170100021627 0.45481191988275516 0.48412310698583294
