0 0.4323400097703958 0.4929164631167562
0.0019179359996996936 0.4186614557889594 0.4811919882755251
0.0026476670000192826 0.4264777723497801 0.4782608695652173
0.00321150999980091 0.431362970200293 0.4704445530043966
0.0037583729999823845 0.4352711284807034 0.46262823644357587
0.004279365999991569 0.4430874450415241 0.431362970200293
0.004806950999864057 0.45676599902296044 0.39228138739618945
0.0053255359998729546 0.46165119687347334 0.3639472398632144
0.0058395289997861255 0.4636052760136786 0.3502686858817783
0.006358094999995956 0.4704445530043966 0.33952125061064975
0.006874606999645039 0.4655593551538837 0.3180263800683927
0.007397709999622748 0.46946751343429405 0.31998045920859797
0.007948961999773019 0.47142159257449934 0.3365901319003419
0.008493305999763834 0.4753297508549097 0.3737176355642404
0.010790680999889446 0.47142159257449934 0.38935026868588185
0.012027922000015678 0.4587200781631655 0.48705422569614076
0.014173854999626201 0.44992672203224227 0.5446995603321934
0.015459650999673613 0.44699560332193444 0.5603321934538348
0.016084030999991228 0.44211040547142155 0.5495847581827065
0.016632652999760467 0.441133365901319 0.5319980459208598
0.017184996999731084 0.4352711284807034 0.5310210063507572
0.017730674999711482 0.42940889106008795 0.5437225207620908
0.018283444999724452 0.4264777723497801 0.5525158768930141
0.01866779099964333 0.4264777723497801 0.5544699560332194
0.01904782299970975 0.42940889106008795 0.5554469956033219
0.019422039999881235 0.4333170493404983 0.5564240351734244
0.019817700999738008 0.43722520762090866 0.5574010747435272
0.020253768999737076 0.43429408891060084 0.5661944308744504
0.020722094999655383 0.4303859306301905 0.540791402051783
0.02161289699961344 0.43722520762090866 0.5075720566682951
0.022016503000031662 0.43917928676111373 0.4733756717147044
0.022867175999635947 0.44406448461162684 0.4040058622374205
0.02333387299995593 0.4450415241817294 0.37469467513434296
0.023723033999885956 0.4450415241817294 0.3551538837322912
0.02409986199972991 0.44699560332193444 0.3365901319003419
0.024476522999975714 0.4528578407425501 0.3209574987787005
0.024846943999818905 0.45481191988275516 0.32681973619931615
0.02521660599995812 0.45969711773326827 0.3512457254518808
0.025597136999749637 0.45969711773326827 0.3610161211529066
0.025974354000027233 0.46262823644357587 0.37469467513434296
0.026386421999632148 0.45969711773326827 0.38251099169516367
0.026761991000057606 0.467513434294089 0.38641914997557403
0.027154225999765913 0.4684904738641915 0.37957987298485585
0.028219193000040832 0.47239863214460187 0.3834880312652662
0.028761073999703513 0.47239863214460187 0.3883732291157791
0.0291691979996358 0.4733756717147044 0.39423546653639474
0.029552710999723786 0.4733756717147044 0.403028822667318
0.030036406999897736 0.47239863214460187 0.41182217879824123
0.03105089299970132 0.46946751343429405 0.4157303370786516
0.03148627599966858 0.46458231558378116 0.4206155349291647
0.031893491999653634 0.46165119687347334 0.42745481191988266
0.03225715400003537 0.4587200781631655 0.4333170493404983
0.03263020399981542 0.45676599902296044 0.4255007327796776
0.03301008799962801 0.4528578407425501 0.4010747435271129
0.03339024899969445 0.4528578407425501 0.38251099169516367
0.033761095000045316 0.4509037616023448 0.38251099169516367
0.03412857199964492 0.45481191988275516 0.4010747435271129
0.03450891800002864 0.44894968246213973 0.4430874450415241
0.03488144999982978 0.44211040547142155 0.49193942354665365
0.035251870999672974 0.43917928676111373 0.533952125061065
0.03562164300001314 0.43917928676111373 0.5681485100146555
0.03599265599996215 0.4352711284807034 0.5828041035661944
0.036360521000005974 0.43722520762090866 0.5740107474352711
0.036727034999785246 0.4303859306301905 0.5593551538837322
0.03709421499979726 0.42940889106008795 0.5613092330239375
0.037464764999640465 0.4255007327796776 0.5779189057156815
0.03783085199984271 0.4303859306301905 0.5935515388373229
0.03824477299986029 0.431362970200293 0.5974596971177333
0.03862559999970472 0.431362970200293 0.5906204201270151
0.038992650999716716 0.4303859306301905 0.5808500244259893
0.03936251599998286 0.4352711284807034 0.5593551538837322
0.039726028999666596 0.43429408891060084 0.5359062042012701
0.040085653999994975 0.4352711284807034 0.5114802149487054
0.04044612999996389 0.4352711284807034 0.4948705422569615
0.04081569899972237 0.43722520762090866 0.47435271128480694
0.04124152599979425 0.43624816805080613 0.45676599902296044
0.04161607699961678 0.4382022471910112 0.43722520762090866
0.04198531199972422 0.43917928676111373 0.42256961406936977
0.04240032500001689 0.44211040547142155 0.4186614557889594
0.042768522999722336 0.4460185637518319 0.42159257449926724
0.043132332999903156 0.44211040547142155 0.431362970200293
0.043508549999842216 0.4401563263312165 0.4352711284807034
0.04391624799973215 0.44406448461162684 0.4284318514899854
0.04441359199972794 0.45188080117244755 0.3952125061064973
0.04523896999990029 0.46458231558378116 0.3854421104054715
0.04563066799983062 0.46458231558378116 0.3776257938446508
0.04607980899982067 0.4636052760136786 0.3678553981436248
0.04650217399967005 0.46165119687347334 0.3629702002931119
0.04686761299990394 0.46262823644357587 0.3531998045920859
0.04722795999987284 0.4665363947239862 0.3424523693209576
0.04759202900004311 0.4704445530043966 0.3385442110405472
0.0479903559999002 0.47142159257449934 0.3434294088910601
0.048358258999996906 0.4753297508549097 0.36199316072300936
0.048727641999903426 0.4753297508549097 0.3854421104054715
0.049088878000020486 0.4763067904250122 0.4079140205178309
0.04944831700004215 0.4763067904250122 0.42452369320957506
0.04980775700005324 0.4753297508549097 0.43429408891060084
0.05016739999973652 0.4753297508549097 0.43429408891060084
0.05057176399986929 0.4802149487054226 0.43429408891060084
0.05095473999972455 0.4763067904250122 0.43722520762090866
0.05132910499969512 0.46946751343429405 0.4284318514899854
0.05169934099967577 0.467513434294089 0.41670737664875435
0.052073835999635776 0.4606741573033708 0.4049829018075233
0.05245012599971233 0.45676599902296044 0.4010747435271129
0.05284095399974831 0.4528578407425501 0.403028822667318
0.05330991099981475 0.44894968246213973 0.4206155349291647
0.05386616199984928 0.45188080117244755 0.5232046897899365
0.05488444399998116 0.4430874450415241 0.5329750854909623
0.055522786999972595 0.441133365901319 0.5144113336590133
0.05626801699963835 0.43722520762090866 0.5398143624816805
0.056776953999815305 0.4352711284807034 0.5613092330239375
0.057179910999821004 0.43429408891060084 0.5681485100146555
0.05774821799968777 0.4323400097703958 0.5632633121641426
0.058247451999704936 0.42745481191988266 0.5515388373229115
0.05877577699993708 0.4264777723497801 0.467513434294089
0.05979054099998393 0.42940889106008795 0.4811919882755251
0.060334310999678564 0.4264777723497801 0.5466536394723986
0.06139409199977308 0.431362970200293 0.512457254518808
0.06248974299978727 0.4401563263312165 0.3238886174890083
0.06560466199971415 0.4655593551538837 0.36687835857352225
0.0668982919996779 0.4704445530043966 0.3531998045920859
0.0675049679998665 0.467513434294089 0.26722032242305804
0.06837469699985377 0.4753297508549097 0.2887151929653151
0.06883707899987712 0.47435271128480694 0.34636052760136793
0.06929390599998442 0.47435271128480694 0.39423546653639474
0.06974458499962566 0.47239863214460187 0.4176844162188569
0.07014391199982128 0.47435271128480694 0.41670737664875435
0.07054870299998584 0.47435271128480694 0.42159257449926724
0.07093408599985196 0.47239863214460187 0.4382022471910112
0.07132459900003596 0.4763067904250122 0.4587200781631655
0.07170777900000758 0.47728382999511476 0.4655593551538837
0.07208666299993638 0.4763067904250122 0.46458231558378116
0.07246941599987622 0.4763067904250122 0.45481191988275516
0.0728469480000058 0.4733756717147044 0.4606741573033708
0.07322772099996655 0.46946751343429405 0.46946751343429405
0.0736100669996631 0.4636052760136786 0.4851001465559355
0.07398993199967663 0.46165119687347334 0.5007327796775769
0.07441464799967434 0.45188080117244755 0.5183194919394236
0.07480462399962562 0.4430874450415241 0.5271128480703469
0.07516697099981684 0.43917928676111373 0.5271128480703469
0.0755226319997746 0.4333170493404983 0.5329750854909623
0.075877515999764 0.431362970200293 0.5349291646311676
0.07623517799993351 0.4303859306301905 0.5280898876404494
0.07658987700006037 0.4303859306301905 0.5280898876404494
0.07694225999966875 0.4264777723497801 0.5280898876404494
0.07729631099982726 0.4255007327796776 0.5310210063507572
0.07764987999962614 0.4255007327796776 0.5476306790425012
0.07898187999990114 0.42745481191988266 0.5427454811919883
0.0794902610000463 0.42940889106008795 0.5388373229115779
0.07989095899984022 0.4323400097703958 0.533952125061065
0.08031167599983746 0.4323400097703958 0.5075720566682951
0.08143421499971737 0.4430874450415241 0.48900830483634583
0.08183426499999769 0.4450415241817294 0.47239863214460187
0.08272627099995589 0.44894968246213973 0.41963849535906195
0.08395086499967874 0.4450415241817294 0.36687835857352225
0.08483840799999598 0.4557889594528579 0.3639472398632144
0.08530497499987177 0.45969711773326827 0.36687835857352225
0.08597094699962327 0.4665363947239862 0.38739618954567656
0.08646782899995742 0.46262823644357587 0.3932584269662922
0.08683750899990628 0.4636052760136786 0.38446507083536874
0.08719748499970592 0.46262823644357587 0.3688324377137273
0.08755514699987543 0.4655593551538837 0.3561309233023937
0.08790904899979068 0.46946751343429405 0.3434294088910601
0.08826574799968512 0.47239863214460187 0.3356130923302394
0.08862255799976992 0.47239863214460187 0.33756717147044446
0.08897494199982248 0.47435271128480694 0.34733756717147046
0.08933028799992826 0.4763067904250122 0.3610161211529066
0.08976792999965255 0.47435271128480694 0.3707865168539326
0.09012544400002298 0.47239863214460187 0.37469467513434296
0.0904894389996116 0.47142159257449934 0.38446507083536874
0.09084939599961217 0.47142159257449934 0.4049829018075233
0.09120841000003566 0.47435271128480694 0.4235466536394723
0.09156649699980335 0.46458231558378116 0.441133365901319
0.09192897399998401 0.457743038593063 0.4509037616023448
0.09228757999972004 0.45481191988275516 0.4460185637518319
0.09268824099990525 0.45676599902296044 0.44211040547142155
0.09310956799981795 0.45676599902296044 0.4460185637518319
0.09346658100002969 0.45676599902296044 0.4528578407425501
0.09413870199978192 0.44992672203224227 0.533952125061065
0.09532670299995516 0.441133365901319 0.5486077186126037
0.09568880899996657 0.4401563263312165 0.5544699560332194
0.09605026700000963 0.4352711284807034 0.5622862725940401
0.09640722499989351 0.4382022471910112 0.5642403517342451
0.09676127499960785 0.43624816805080613 0.5710796287249633
0.09711714099967139 0.43429408891060084 0.5808500244259893
0.09747206199972425 0.431362970200293 0.5896433805569126
0.09782705699990402 0.4323400097703958 0.595505617977528
0.0981776999997237 0.43722520762090866 0.5896433805569126
0.09858502699989913 0.4333170493404983 0.5837811431362969
0.09893805899992003 0.4352711284807034 0.576941866145579
0.09929027699990911 0.43722520762090866 0.5661944308744504
0.09964236399991933 0.43429408891060084 0.5515388373229115
0.09999471099990842 0.4352711284807034 0.4460185637518319
0.10262054399981935 0.44406448461162684 0.4401563263312165
0.10300696499962214 0.4460185637518319 0.4303859306301905
0.10337464499980342 0.44992672203224227 0.4157303370786516
0.10374112099998456 0.4538348803126526 0.4049829018075233
0.10412389299972347 0.4606741573033708 0.3805569125549584
0.10448755499965046 0.4684904738641915 0.3551538837322912
0.10494958499975837 0.46946751343429405 0.33170493404982904
0.10589160899962735 0.47239863214460187 0.34733756717147046
0.10630745499975092 0.46946751343429405 0.36003908158280407
0.10668185699978494 0.46946751343429405 0.36003908158280407
0.1070449999997436 0.4704445530043966 0.3561309233023937
0.10740395799984981 0.46946751343429405 0.3502686858817783
0.1077616559996386 0.467513434294089 0.34929164631167553
0.10811898499969175 0.46946751343429405 0.3531998045920859
0.10847618299976602 0.46458231558378116 0.36003908158280407
0.10884151099980954 0.4704445530043966 0.3688324377137273
0.10922235799989721 0.4684904738641915 0.37957987298485585
0.10961687099961637 0.47142159257449934 0.38935026868588185
0.10997460599992337 0.467513434294089 0.39423546653639474
0.11033997200001977 0.47142159257449934 0.39912066438690763
0.11070374399969296 0.47239863214460187 0.40693698094772834
0.11106264699992607 0.47728382999511476 0.41963849535906195
0.11141921599983107 0.46946751343429405 0.43624816805080613
0.11177569199981008 0.467513434294089 0.4557889594528579
0.1122280370000226 0.4684904738641915 0.4811919882755251
0.11319320899974628 0.46262823644357587 0.48900830483634583
0.11359411099965655 0.45481191988275516 0.48412310698583294
0.1139579569999114 0.4538348803126526 0.4851001465559355
0.1143253969999023 0.4450415241817294 0.4978016609672691
0.1146879469997657 0.4430874450415241 0.5153883732291158
0.11504470099998798 0.4430874450415241 0.5290669272105519
0.1154004739996708 0.4450415241817294 0.5437225207620908
0.11575469099989277 0.44211040547142155 0.5359062042012701
0.1161092419997658 0.4430874450415241 0.5173424523693209
0.11646353299965995 0.441133365901319 0.5114802149487054
0.11681908299988208 0.44211040547142155 0.5114802149487054
0.1171746339996389 0.441133365901319 0.522227650219834
0.11752883300005124 0.4382022471910112 0.5349291646311676
0.1178837909997128 0.4352711284807034 0.5427454811919883
0.11815413899967098 0.4323400097703958 0.5466536394723986
0.11835457999995924 0.4323400097703958 0.5515388373229115
0.11854633699977057 0.4303859306301905 0.5486077186126037
0.11873164899998301 0.4333170493404983 0.5476306790425012
0.11892884999997477 0.4303859306301905 0.5427454811919883
0.1191316059998826 0.431362970200293 0.533952125061065
0.11934865900002478 0.431362970200293 0.524181729360039
0.11953819299969837 0.431362970200293 0.512457254518808
0.11972844999991139 0.42940889106008795 0.5056179775280898
0.11991594699975394 0.431362970200293 0.5007327796775769
0.12010361099964939 0.4323400097703958 0.49975574010747437
0.12029031199972451 0.4333170493404983 0.5075720566682951
0.12047727199978908 0.4352711284807034 0.5114802149487054
0.12066419599977962 0.4333170493404983 0.5173424523693209
0.12085111899978074 0.43624816805080613 0.5212506106497312
0.12104087499983507 0.43624816805080613 0.524181729360039
0.12122868799997377 0.43917928676111373 0.5202735710796287
0.12141586999996434 0.43917928676111373 0.522227650219834
0.12160368199965887 0.4450415241817294 0.5153883732291158
0.12179053099998782 0.4509037616023448 0.5065950170981925
0.12197732499998892 0.44406448461162684 0.5007327796775769
0.12216447099990546 0.45188080117244755 0.4938935026868587
0.1223673009999402 0.45188080117244755 0.48705422569614076
0.12255648399968777 0.44992672203224227 0.4851001465559355
0.12274312899990036 0.4479726428920372 0.4782608695652173
0.12293164499988052 0.4479726428920372 0.47728382999511476
0.12311940099971252 0.4509037616023448 0.4733756717147044
0.123306305999904 0.44992672203224227 0.46458231558378116
0.12349391499992635 0.4479726428920372 0.4587200781631655
0.12368822700000237 0.4479726428920372 0.44992672203224227
0.12387692799984507 0.4479726428920372 0.431362970200293
0.12406544399982522 0.44894968246213973 0.40693698094772834
0.1242528669999956 0.45188080117244755 0.3834880312652662
0.12444127199978539 0.45481191988275516 0.36199316072300936
0.12463054699992426 0.45676599902296044 0.3502686858817783
0.12481750699998884 0.457743038593063 0.33952125061064975
0.12500550400000066 0.4587200781631655 0.3385442110405472
0.12519387199972698 0.45969711773326827 0.3414753297508548
0.1253812029999608 0.46165119687347334 0.34440644846116264
0.12557005200005733 0.4606741573033708 0.34733756717147046
0.1257584569998471 0.4636052760136786 0.35222276502198335
0.12594558399996458 0.46262823644357587 0.3551538837322912
0.12613261799970132 0.46262823644357587 0.36003908158280407
0.12632509699960792 0.4655593551538837 0.36492427943331696
0.1265215939997688 0.4636052760136786 0.36003908158280407
0.1267107759999817 0.4636052760136786 0.35906204201270153
0.12689782899997226 0.46458231558378116 0.3610161211529066
0.12708514099995227 0.46946751343429405 0.35417684416218864
0.1272726759998477 0.4684904738641915 0.3551538837322912
0.12745909899967955 0.47142159257449934 0.35417684416218864
0.12764726299974427 0.4733756717147044 0.3502686858817783
0.12783448299978772 0.47239863214460187 0.348314606741573
0.12802266499966208 0.4753297508549097 0.3434294088910601
0.12820956999985356 0.47142159257449934 0.34440644846116264
0.12849906599967653 0.4704445530043966 0.358085002442599
0.13065509099988049 0.47923790913532005 0.4284318514899854
0.1321739769996384 0.46165119687347334 0.4831460674157304
0.13379367599964098 0.45676599902296044 0.49975574010747437
0.13411891199984893 0.4538348803126526 0.5114802149487054
0.13437800099973174 0.44992672203224227 0.5310210063507572
0.13487897499999235 0.44406448461162684 0.5359062042012701
0.1350929539999015 0.4450415241817294 0.5378602833414754
0.1353040429999055 0.44211040547142155 0.5446995603321934
0.13574553699982062 0.441133365901319 0.5466536394723986
0.13594523799974922 0.4401563263312165 0.5495847581827065
0.13613808699983565 0.44211040547142155 0.5456765999022961
0.13632947299993248 0.44699560332193444 0.5446995603321934
0.1365211559996169 0.441133365901319 0.5427454811919883
0.1367140229999677 0.4401563263312165 0.5456765999022961
0.13690422399986346 0.4382022471910112 0.5476306790425012
0.1370941289997063 0.4382022471910112 0.5495847581827065
0.13728427499972895 0.4352711284807034 0.5583781143136297
0.1374791789999108 0.43917928676111373 0.5632633121641426
0.13767106499972215 0.4382022471910112 0.5593551538837322
0.13786183999991408 0.43722520762090866 0.5652173913043479
0.13805176400001073 0.431362970200293 0.5603321934538348
0.13824431600005482 0.431362970200293 0.5534929164631168
0.1384411099998033 0.43624816805080613 0.5476306790425012
0.13863294099974155 0.42940889106008795 0.5456765999022961
0.1388273269999445 0.42745481191988266 0.5427454811919883
0.13901760199996716 0.43624816805080613 0.540791402051783
0.1392075809999369 0.43624816805080613 0.5446995603321934
0.13939700399987487 0.42940889106008795 0.5368832437713726
0.13958768599968607 0.4264777723497801 0.5359062042012701
0.13977805399963472 0.4303859306301905 0.5349291646311676
0.13996875499969974 0.431362970200293 0.533952125061065
0.14015875199993388 0.431362970200293 0.5349291646311676
0.14034828700005164 0.431362970200293 0.533952125061065
0.14053735799961942 0.4323400097703958 0.5319980459208598
0.1407264109998323 0.4323400097703958 0.5290669272105519
0.14091594499996063 0.4303859306301905 0.5290669272105519
0.14110494299984566 0.43624816805080613 0.5202735710796287
0.14129506899962507 0.43624816805080613 0.5095261358085001
0.14148395599977448 0.44211040547142155 0.49877870053737183
0.1416761749997022 0.44211040547142155 0.4851001465559355
0.14186663500004215 0.4450415241817294 0.47239863214460187
0.1420581139996102 0.44406448461162684 0.45969711773326827
0.14225412999985565 0.44699560332193444 0.44699560332193444
0.14245918300002813 0.45188080117244755 0.44211040547142155
0.14266584599999987 0.44699560332193444 0.43429408891060084
0.14286375099982251 0.44894968246213973 0.4303859306301905
0.14306222999994134 0.44992672203224227 0.4352711284807034
0.14325224499998512 0.44894968246213973 0.43429408891060084
0.1434410389997538 0.44894968246213973 0.4352711284807034
0.14363212899979771 0.45188080117244755 0.431362970200293
0.14382138499968278 0.4528578407425501 0.42452369320957506
0.14401323499987484 0.4557889594528579 0.4137762579384465
0.14420274999974936 0.4587200781631655 0.3981436248168051
0.14439215499987768 0.45969711773326827 0.38153395212506114
0.14458198600004835 0.4636052760136786 0.36687835857352225
0.14477290900003936 0.45969711773326827 0.358085002442599
0.14496301700000913 0.4636052760136786 0.35417684416218864
0.14515195900003164 0.46262823644357587 0.35417684416218864
0.1453423269999803 0.4665363947239862 0.35222276502198335
0.14553349099969637 0.4636052760136786 0.3551538837322912
0.1457229699999516 0.46262823644357587 0.35710796287249624
0.14591485599976295 0.4655593551538837 0.358085002442599
0.14610724199974356 0.4636052760136786 0.35710796287249624
0.14632559099982245 0.467513434294089 0.3561309233023937
0.14651849499978198 0.467513434294089 0.34636052760136793
0.14670921499964606 0.46458231558378116 0.33952125061064975
0.14690052699961598 0.46458231558378116 0.33463605276013686
0.14709082099989246 0.4665363947239862 0.3385442110405472
0.1472808549997353 0.47435271128480694 0.3453834880312652
0.14747055599991654 0.46946751343429405 0.3531998045920859
0.14766003499971703 0.46946751343429405 0.35906204201270153
0.14784943899985592 0.47142159257449934 0.37176355642403514
0.14804397399984737 0.4704445530043966 0.38446507083536874
0.14823572999966927 0.4733756717147044 0.39228138739618945
0.1484251899996707 0.47239863214460187 0.40009770395701016
0.14861403999975664 0.4763067904250122 0.40986809965803617
0.14880320399970515 0.4753297508549097 0.41475329750854906
0.14899292299969602 0.4704445530043966 0.4206155349291647
0.14918232799982434 0.46946751343429405 0.4235466536394723
0.14937167699963538 0.46946751343429405 0.42745481191988266
0.14956067399998574 0.4655593551538837 0.42940889106008795
0.14975083799981803 0.46458231558378116 0.4323400097703958
0.1499399839999569 0.4665363947239862 0.4352711284807034
0.15013036999971519 0.4655593551538837 0.4333170493404983
0.15032910799982346 0.4665363947239862 0.43624816805080613
0.15053214199997456 0.4684904738641915 0.4352711284807034
0.15072434299963788 0.467513434294089 0.43722520762090866
0.15091378499982966 0.4684904738641915 0.4401563263312165
0.1511027080000531 0.46946751343429405 0.43917928676111373
0.15129233499965267 0.467513434294089 0.43624816805080613
0.15148231399962242 0.4665363947239862 0.4303859306301905
0.15167129299970838 0.4636052760136786 0.4206155349291647
0.15186023399974147 0.45969711773326827 0.4049829018075233
0.15205199100000755 0.46262823644357587 0.3854421104054715
0.15224080300004061 0.4587200781631655 0.3659013190034197
0.15242957800001022 0.4557889594528579 0.348314606741573
0.15262505700002293 0.4557889594528579 0.3356130923302394
0.1528258499997719 0.45481191988275516 0.33268197361993157
0.15304927299985138 0.4587200781631655 0.33952125061064975
0.15326438099964435 0.4538348803126526 0.3531998045920859
0.1539013349997731 0.4557889594528579 0.41963849535906195
0.15426523699989048 0.44894968246213973 0.4509037616023448
0.15459180699963326 0.4460185637518319 0.48900830483634583
0.15482269199992515 0.44699560332193444 0.5065950170981925
0.1550334489998022 0.44406448461162684 0.5192965315095261
0.15522827899985714 0.4382022471910112 0.5290669272105519
0.15541964699968958 0.4382022471910112 0.540791402051783
0.15561343999979727 0.43917928676111373 0.5466536394723986
0.15580560399985188 0.4401563263312165 0.5593551538837322
0.15599621299998034 0.43917928676111373 0.5749877870053737
0.15618945100004566 0.43917928676111373 0.578895945285784
0.15637922599989906 0.43917928676111373 0.5837811431362969
0.15656948199966791 0.43624816805080613 0.5915974596971176
0.15676027599965892 0.43722520762090866 0.5935515388373229
0.15695493999965038 0.43429408891060084 0.6003908158280411
0.15714532599986342 0.4333170493404983 0.6003908158280411
0.1573353229996428 0.431362970200293 0.5964826575476307
0.15752502399982404 0.431362970200293 0.5935515388373229
0.15771448499981489 0.4333170493404983 0.5896433805569126
0.15790392600001724 0.42745481191988266 0.5847581827063997
0.15809340499981772 0.42745481191988266 0.578895945285784
0.15833330899977227 0.42745481191988266 0.5691255495847583
0.1585381579998284 0.4255007327796776 0.5603321934538348
0.15875606199961112 0.42745481191988266 0.5554469956033219
0.15895815199974095 0.42940889106008795 0.5495847581827065
0.15916527899980792 0.4303859306301905 0.5476306790425012
0.1593573129998731 0.431362970200293 0.5378602833414754
0.1595483470000545 0.43917928676111373 0.5261358085002443
0.15974039999991874 0.43722520762090866 0.5144113336590133
0.1599319529996137 0.4382022471910112 0.4929164631167562
0.16012248699962583 0.43917928676111373 0.4733756717147044
0.16031313299981775 0.43624816805080613 0.46458231558378116
0.16050385199969242 0.4382022471910112 0.44699560332193444
0.1606944420000218 0.44211040547142155 0.4479726428920372
0.16088569899966387 0.43917928676111373 0.4509037616023448
0.16107628899999327 0.441133365901319 0.457743038593063
0.16126661899988903 0.44406448461162684 0.4557889594528579
0.16145663499992224 0.44894968246213973 0.45969711773326827
0.161646391999966 0.44699560332193444 0.457743038593063
0.16183581499990396 0.44699560332193444 0.4587200781631655
0.16202605299986317 0.44992672203224227 0.4528578407425501
0.16222610599970722 0.44992672203224227 0.44992672203224227
0.1624166960000366 0.44894968246213973 0.4479726428920372
0.16260650799995346 0.44992672203224227 0.44406448461162684
0.16280185699997674 0.4479726428920372 0.4352711284807034
0.1629918909998196 0.44894968246213973 0.4303859306301905
0.16318177699986336 0.4430874450415241 0.4255007327796776
0.1633720899999389 0.44211040547142155 0.4255007327796776
0.16356193899991922 0.4401563263312165 0.431362970200293
0.16375430599964602 0.43722520762090866 0.4333170493404983
0.1639456549996794 0.4382022471910112 0.431362970200293
0.16413563399964914 0.43722520762090866 0.431362970200293
0.16432574299960834 0.4382022471910112 0.42745481191988266
0.16451527699973667 0.4450415241817294 0.4206155349291647
0.16470647799997096 0.4509037616023448 0.4176844162188569
0.164896048999708 0.4509037616023448 0.40986809965803617
0.1650860099998681 0.4538348803126526 0.4049829018075233
0.16527750699970056 0.4587200781631655 0.3981436248168051
0.16546807799977614 0.46165119687347334 0.39228138739618945
0.16565748299990446 0.4655593551538837 0.38641914997557403
0.16584736899994823 0.4655593551538837 0.3883732291157791
0.16603738499998144 0.46458231558378116 0.3854421104054715
0.16622808600004646 0.4655593551538837 0.38153395212506114
0.1664196759998049 0.4665363947239862 0.37957987298485585
0.1666096919998381 0.4665363947239862 0.3786028334147533
0.16680044799977622 0.467513434294089 0.36980947728383007
0.16699261199983084 0.4684904738641915 0.36492427943331696
0.16718464699988544 0.47142159257449934 0.35417684416218864
0.16737566199981302 0.46946751343429405 0.34733756717147046
0.16756669699998383 0.4733756717147044 0.3365901319003419
0.1677604159999646 0.47142159257449934 0.32681973619931615
0.1679520429997865 0.47142159257449934 0.3180263800683927
0.16814257699979862 0.4733756717147044 0.31216414264777725
0.16833177799981058 0.47239863214460187 0.3111871030776747
0.16852105299994946 0.47239863214460187 0.3238886174890083
0.16871106899998267 0.4655593551538837 0.3356130923302394
0.1689021959996353 0.4665363947239862 0.3434294088910601
0.16909228599979542 0.4655593551538837 0.35417684416218864
0.16928141299968047 0.46458231558378116 0.3629702002931119
0.16947155899970312 0.46458231558378116 0.37469467513434296
0.16966146300001128 0.4636052760136786 0.38251099169516367
0.16985118299999158 0.46458231558378116 0.38641914997557403
0.17004069899985552 0.4665363947239862 0.3903273082559844
0.17023332500002653 0.46946751343429405 0.3903273082559844
0.1704232859997319 0.47142159257449934 0.3913043478260869
0.17061270899966985 0.47435271128480694 0.40009770395701016
0.17080235399998855 0.47239863214460187 0.40889106008793363
0.17099185200004285 0.47239863214460187 0.4157303370786516
0.17118127499998081 0.46946751343429405 0.4264777723497801
0.17137062399979186 0.467513434294089 0.43429408891060084
0.17156000999966636 0.4636052760136786 0.43624816805080613
0.1717497849999745 0.467513434294089 0.44211040547142155
0.17193885699998646 0.45969711773326827 0.4528578407425501
0.1721277429996917 0.45969711773326827 0.4528578407425501
0.17231687000003149 0.457743038593063 0.46458231558378116
0.1725058489996627 0.45481191988275516 0.46262823644357587
0.17269529099985448 0.457743038593063 0.4684904738641915
0.17288428799975009 0.46165119687347334 0.4753297508549097
0.1730728959996668 0.45676599902296044 0.4811919882755251
0.17326481899999635 0.45676599902296044 0.4851001465559355
0.1734553539999979 0.4587200781631655 0.4909623839765511
0.1736444989996926 0.4587200781631655 0.49682462139716654
0.1738332189997891 0.45969711773326827 0.5046409379579873
0.17402173499976925 0.457743038593063 0.5134342940889105
0.17422143599969786 0.45481191988275516 0.5251587689301416
0.17441209999969942 0.44992672203224227 0.533952125061065
0.1746029119999548 0.44699560332193444 0.5398143624816805
0.17479657599960774 0.44406448461162684 0.5417684416218858
0.17498675799970442 0.4430874450415241 0.5388373229115779
0.17517614400003367 0.4450415241817294 0.5349291646311676
0.17536593799968614 0.44211040547142155 0.5261358085002443
0.17555663899975116 0.4430874450415241 0.5212506106497312
0.17574622899974202 0.4450415241817294 0.5065950170981925
0.1759361149997858 0.4430874450415241 0.49877870053737183
0.176126130999819 0.4450415241817294 0.5017098192476794
0.1763156839997464 0.4450415241817294 0.5056179775280898
0.17650734799963175 0.4460185637518319 0.5153883732291158
0.17669815999988714 0.44406448461162684 0.5280898876404494
0.17688871299969833 0.44699560332193444 0.540791402051783
0.177079338999647 0.4479726428920372 0.5515388373229115
0.17727042899969092 0.4450415241817294 0.5564240351734244
0.17746000099987214 0.441133365901319 0.5613092330239375
0.17765084999973624 0.44211040547142155 0.5661944308744504
0.177840957999706 0.43917928676111373 0.567171470444553
0.17803143699984503 0.4352711284807034 0.567171470444553
0.17822260100001586 0.43722520762090866 0.567171470444553
0.17841300600002796 0.43624816805080613 0.5642403517342451
0.1786029659997439 0.43624816805080613 0.5642403517342451
0.17879309299996748 0.4352711284807034 0.5642403517342451
0.17898288699961995 0.43624816805080613 0.5574010747435272
0.1791735689998859 0.4352711284807034 0.550561797752809
0.17936313999962294 0.4323400097703958 0.540791402051783
0.17955532299993138 0.4284318514899854 0.5232046897899365
0.1797456719996262 0.42745481191988266 0.5046409379579873
0.17993655800000852 0.4323400097703958 0.4909623839765511
0.180126036999809 0.431362970200293 0.4811919882755251
0.18031566399986332 0.42256961406936977 0.46946751343429405
0.18050556899970616 0.4255007327796776 0.46165119687347334
0.1806950099999085 0.42452369320957506 0.46165119687347334
0.18088459999989936 0.42452369320957506 0.457743038593063
0.18107402299983733 0.4323400097703958 0.46458231558378116
0.18126318699978583 0.4323400097703958 0.45969711773326827
0.18145390699964992 0.43722520762090866 0.45969711773326827
0.1816440339998735 0.44699560332193444 0.45676599902296044
0.18183421599997018 0.44406448461162684 0.45481191988275516
0.1820238430000245 0.4450415241817294 0.4479726428920372
0.18221671099991 0.44406448461162684 0.4450415241817294
0.18240746799983754 0.44406448461162684 0.4460185637518319
0.1825970199997755 0.44699560332193444 0.4430874450415241
0.18278692499961835 0.45188080117244755 0.4509037616023448
0.1829769219998525 0.44992672203224227 0.4479726428920372
0.18316634599977988 0.45188080117244755 0.45188080117244755
0.1833557129998553 0.45188080117244755 0.4538348803126526
0.18354500699979326 0.4509037616023448 0.4557889594528579
0.1837353749997419 0.4509037616023448 0.45676599902296044
0.18392492699967988 0.44894968246213973 0.4430874450415241
0.18411447999960728 0.4538348803126526 0.431362970200293
0.18430453299970395 0.4606741573033708 0.41670737664875435
0.18449465999992753 0.45676599902296044 0.4049829018075233
0.18468473199982327 0.46262823644357587 0.39423546653639474
0.1848741919998247 0.46165119687347334 0.39716658524670256
0.18506483700002718 0.4606741573033708 0.3913043478260869
0.18525438999995458 0.46262823644357587 0.3883732291157791
0.18544459099985033 0.4606741573033708 0.38641914997557403
0.1856342549999681 0.4655593551538837 0.38153395212506114
0.18582495600003313 0.46262823644357587 0.37469467513434296
0.1860151389996645 0.4636052760136786 0.36687835857352225
0.18621663599969906 0.46262823644357587 0.3561309233023937
0.186408076999669 0.4606741573033708 0.3453834880312652
0.18659844499961764 0.4636052760136786 0.3356130923302394
0.18678812799998923 0.46458231558378116 0.33170493404982904
0.1869780509996417 0.46458231558378116 0.3238886174890083
0.18716889999996056 0.467513434294089 0.32486565705911086
0.1873588789999303 0.46458231558378116 0.32486565705911086
0.1875482089999423 0.46946751343429405 0.32486565705911086
0.18773829899964767 0.46946751343429405 0.3287738153395212
0.18792792599970198 0.47239863214460187 0.3356130923302394
0.18811738699969283 0.4733756717147044 0.33952125061064975
0.18830775399965205 0.47142159257449934 0.3512457254518808
0.18849812200005545 0.4704445530043966 0.35710796287249624
0.18868741500000397 0.47142159257449934 0.35710796287249624
0.18887650499982556 0.4704445530043966 0.35710796287249624
0.18906546599964713 0.47142159257449934 0.358085002442599
0.18925605599997652 0.47435271128480694 0.3531998045920859
0.18944529400005194 0.4733756717147044 0.35222276502198335
0.18963512399977844 0.4763067904250122 0.35417684416218864
0.18982445499977985 0.4733756717147044 0.36003908158280407
0.1900139709996438 0.4704445530043966 0.36492427943331696
0.19021433799980514 0.4753297508549097 0.36980947728383007
0.19040590999975393 0.4753297508549097 0.37274059599413767
0.1905952399997659 0.4733756717147044 0.37957987298485585
0.1907844039997144 0.4753297508549097 0.38739618954567656
0.190973049999684 0.47142159257449934 0.3913043478260869
0.1911617880000449 0.4684904738641915 0.39912066438690763
0.19135124800004633 0.4665363947239862 0.40986809965803617
0.19154161599999497 0.45969711773326827 0.42256961406936977
0.19173277999971106 0.457743038593063 0.4284318514899854
0.19192159199974412 0.45481191988275516 0.43917928676111373
0.19211038499997812 0.45481191988275516 0.44992672203224227
0.1923001789996306 0.45481191988275516 0.45969711773326827
0.1924887319996742 0.4528578407425501 0.46262823644357587
0.19267804399987654 0.45481191988275516 0.4665363947239862
0.19286676399997305 0.45188080117244755 0.4753297508549097
0.19305690900000627 0.4538348803126526 0.486077186126038
0.19324633199994423 0.45481191988275516 0.4851001465559355
0.1934351259997129 0.45481191988275516 0.48705422569614076
0.1936257160000423 0.457743038593063 0.49193942354665365
0.19381478699961008 0.45481191988275516 0.5036638983878847
0.19400365499996042 0.4509037616023448 0.5085490962383976
0.19421013299961487 0.44894968246213973 0.5173424523693209
0.19440240799985986 0.4479726428920372 0.5300439667806547
0.19459370200002013 0.4450415241817294 0.5349291646311676
0.19478358799960915 0.4460185637518319 0.5398143624816805
0.1949746039999809 0.4460185637518319 0.5456765999022961
0.1951680829997713 0.44406448461162684 0.5495847581827065
0.1953585619999103 0.43917928676111373 0.5525158768930141
0.19554905899985897 0.43722520762090866 0.5544699560332194
0.19573933399988164 0.44211040547142155 0.550561797752809
0.19592886800000997 0.4352711284807034 0.5515388373229115
0.19611873599978935 0.43722520762090866 0.5495847581827065
0.19630880699969566 0.4401563263312165 0.5398143624816805
0.1964989709999827 0.43624816805080613 0.5359062042012701
0.19668880199969863 0.4352711284807034 0.5271128480703469
0.19687878099966838 0.4323400097703958 0.5359062042012701
0.19706857399978617 0.431362970200293 0.5310210063507572
0.19725842299976648 0.4323400097703958 0.5349291646311676
0.19744779099983134 0.43429408891060084 0.5388373229115779
0.19763813999998092 0.42745481191988266 0.5466536394723986
0.19782748899979197 0.4264777723497801 0.5466536394723986
0.19801741299988862 0.42745481191988266 0.550561797752809
0.19821548399977473 0.4284318514899854 0.550561797752809
0.19840618499983975 0.4264777723497801 0.5525158768930141
0.19859636699993644 0.4284318514899854 0.550561797752809
0.19878636499970526 0.42745481191988266 0.5476306790425012
0.19897654699980194 0.4255007327796776 0.5456765999022961
0.19916543299996192 0.4303859306301905 0.5437225207620908
0.19935544899999513 0.431362970200293 0.5368832437713726
0.19954544699976395 0.431362970200293 0.5319980459208598
0.199735611000051 0.4333170493404983 0.524181729360039
0.19992533000004187 0.43429408891060084 0.5173424523693209
0.2001149009997789 0.4323400097703958 0.5153883732291158
0.2003045469996323 0.431362970200293 0.5056179775280898
0.20049450699980298 0.43429408891060084 0.5065950170981925
0.20068478199982565 0.431362970200293 0.5026868588177822
0.2008742049997636 0.43429408891060084 0.5007327796775769
0.2010644809997757 0.43429408891060084 0.49682462139716654
0.20125419999976657 0.4352711284807034 0.4929164631167562
0.2014442899999267 0.44406448461162684 0.4811919882755251
0.2016342869997061 0.441133365901319 0.4753297508549097
0.20182395099982386 0.4430874450415241 0.46262823644357587
0.20201379999980418 0.4479726428920372 0.4587200781631655
0.20221066799967957 0.44406448461162684 0.4538348803126526
0.20240118399988205 0.4450415241817294 0.44894968246213973
0.2025910889997249 0.44211040547142155 0.4509037616023448
0.20278045599980032 0.44992672203224227 0.4528578407425501
0.20296930499989685 0.4450415241817294 0.44992672203224227
0.2031585059999088 0.4479726428920372 0.44992672203224227
0.20334830000001602 0.4430874450415241 0.44894968246213973
0.20353820499985886 0.4479726428920372 0.44406448461162684
0.20372777600005065 0.4460185637518319 0.44406448461162684
0.2039173660000415 0.44699560332193444 0.4352711284807034
0.204107288999694 0.45188080117244755 0.42159257449926724
0.20430189799981235 0.4557889594528579 0.40889106008793363
0.20449169099993014 0.457743038593063 0.39423546653639474
0.204681280999921 0.457743038593063 0.3883732291157791
0.2048712229998273 0.46165119687347334 0.3786028334147533
0.2050609049997547 0.46262823644357587 0.37274059599413767
0.20525043999987247 0.4655593551538837 0.3688324377137273
0.20543947399983153 0.47142159257449934 0.36003908158280407
0.2056290639998224 0.4655593551538837 0.35222276502198335
0.205817838999792 0.467513434294089 0.3502686858817783
0.2060075589997723 0.46458231558378116 0.34733756717147046
0.2062068149998595 0.4655593551538837 0.348314606741573
0.20639803499989284 0.46946751343429405 0.3502686858817783
0.20658749499989426 0.47239863214460187 0.3551538837322912
0.20677747399986401 0.467513434294089 0.35710796287249624
0.2069668780000029 0.47142159257449934 0.358085002442599
0.20715661599979285 0.4782608695652173 0.3629702002931119
0.2073461319996568 0.4665363947239862 0.36687835857352225
0.20753527799979565 0.47142159257449934 0.36492427943331696
0.2077249229996596 0.4753297508549097 0.36003908158280407
0.20791479099989374 0.4704445530043966 0.3610161211529066
0.20810493599992697 0.4753297508549097 0.35222276502198335
0.20829409999987547 0.4763067904250122 0.34929164631167553
0.20848337500001435 0.4753297508549097 0.35417684416218864
0.20867255799976192 0.4763067904250122 0.358085002442599
0.20886275899965767 0.4733756717147044 0.36199316072300936
0.2090529229999447 0.4684904738641915 0.3707865168539326
0.20924288299966065 0.467513434294089 0.3834880312652662
0.20943358399972567 0.46458231558378116 0.3913043478260869
0.20962315499991746 0.46165119687347334 0.40009770395701016
0.2098126159999083 0.45969711773326827 0.403028822667318
0.21000190899985682 0.46458231558378116 0.40205178309721545
0.21020135099979598 0.4636052760136786 0.4010747435271129
0.21039366299964968 0.46458231558378116 0.4049829018075233
0.21058286399966164 0.47239863214460187 0.40693698094772834
0.21077221299992743 0.4665363947239862 0.4137762579384465
0.2109610249999605 0.467513434294089 0.42452369320957506
0.2111496709999301 0.4665363947239862 0.43429408891060084
0.2113386129999526 0.4665363947239862 0.44406448461162684
0.21152807299995402 0.4655593551538837 0.44699560332193444
0.21171782900000835 0.4636052760136786 0.45188080117244755
0.2119065669999145 0.46165119687347334 0.4557889594528579
0.21209591699971497 0.46262823644357587 0.44406448461162684
0.21228469199968458 0.4606741573033708 0.42745481191988266
0.2124735590000455 0.4606741573033708 0.4157303370786516
0.21266229699995165 0.4587200781631655 0.39912066438690763
0.2128507580000587 0.45481191988275516 0.38935026868588185
0.21303942199983794 0.45481191988275516 0.3932584269662922
0.2132278259996383 0.45481191988275516 0.39228138739618945
0.21341700899984062 0.457743038593063 0.4059599413776258
0.2136056539998208 0.457743038593063 0.4255007327796776
0.21379472599983274 0.4528578407425501 0.44894968246213973
0.2139829269999609 0.4528578407425501 0.47435271128480694
0.21417242400002579 0.45188080117244755 0.5007327796775769
0.21436582899968926 0.44992672203224227 0.5183194919394236
0.21455614099977538 0.44894968246213973 0.5368832437713726
0.21474732299975585 0.4479726428920372 0.5417684416218858
0.21493806099988433 0.4460185637518319 0.5446995603321934
0.2151277069997377 0.44211040547142155 0.5417684416218858
0.2153177410000353 0.441133365901319 0.540791402051783
0.21550803499985705 0.44406448461162684 0.5388373229115779
0.21569812500001717 0.441133365901319 0.5368832437713726
0.21588745500002915 0.44211040547142155 0.5329750854909623
0.21607693399982963 0.4382022471910112 0.5378602833414754
0.21626670899968303 0.43917928676111373 0.5290669272105519
0.21645718799982205 0.44211040547142155 0.5378602833414754
0.2166469999997389 0.441133365901319 0.5427454811919883
0.21683660899998358 0.4401563263312165 0.5466536394723986
0.21702643899971008 0.4382022471910112 0.5515388373229115
0.2172165289998702 0.4352711284807034 0.5583781143136297
0.2174066929997025 0.43624816805080613 0.5622862725940401
0.21759820899978877 0.4382022471910112 0.567171470444553
0.21778809499983254 0.43722520762090866 0.5691255495847583
0.2179778519998763 0.4352711284807034 0.5661944308744504
0.21816732999968735 0.431362970200293 0.5661944308744504
0.2183582539996678 0.4352711284807034 0.5622862725940401
0.2185475100000076 0.4303859306301905 0.5642403517342451
0.21873735899998792 0.43429408891060084 0.5613092330239375
0.21892759699994713 0.4352711284807034 0.5603321934538348
0.21911722400000144 0.431362970200293 0.5613092330239375
0.21930755499988663 0.4352711284807034 0.5603321934538348
0.21949784899970837 0.43624816805080613 0.5603321934538348
0.2196897529997841 0.43624816805080613 0.5622862725940401
0.21987982499967984 0.431362970200293 0.5681485100146555
0.22006915499969182 0.4382022471910112 0.5759648265754762
0.22025830099983068 0.4401563263312165 0.5828041035661944
0.2204483909999908 0.43917928676111373 0.5876893014167073
0.22063853600002403 0.4401563263312165 0.58866634098681
0.220827737000036 0.4430874450415241 0.576941866145579
0.22101738299988938 0.43917928676111373 0.5661944308744504
0.22120665800002826 0.44211040547142155 0.550561797752809
0.22139604399990276 0.44406448461162684 0.5280898876404494
0.22158587499961868 0.4430874450415241 0.5134342940889105
0.22177564999992683 0.44406448461162684 0.5026868588177822
0.22196579499996005 0.44699560332193444 0.48998534440644836
0.2221551630000249 0.44992672203224227 0.4948705422569615
0.22234675299978335 0.44992672203224227 0.4733756717147044
0.2225359720000597 0.44992672203224227 0.46165119687347334
0.22272567299978618 0.44699560332193444 0.4557889594528579
0.22291481899992505 0.44894968246213973 0.4401563263312165
0.22310318599966195 0.44894968246213973 0.42256961406936977
0.22329261000004408 0.44992672203224227 0.4049829018075233
0.22348218099978112 0.4460185637518319 0.38935026868588185
0.22367180799983544 0.44894968246213973 0.3707865168539326
0.22386141599963594 0.44992672203224227 0.34733756717147046
0.22405111699981717 0.44699560332193444 0.3287738153395212
0.2242401329999666 0.4479726428920372 0.31021006350757196
0.224430129999746 0.45188080117244755 0.29262335124572547
0.2246203129998321 0.4528578407425501 0.2789447972642891
0.2248096989997066 0.4479726428920372 0.27015144113336587
0.22499923399982436 0.44699560332193444 0.2613580850024426
0.22518911999986813 0.4460185637518319 0.255495847581827
0.22537841299981665 0.4460185637518319 0.25744992672203226
0.2255683369999133 0.4460185637518319 0.2613580850024426
0.22575851900000998 0.44699560332193444 0.2740595994137762
0.22594871999990573 0.4479726428920372 0.2867611138251098
0.22613780999972732 0.45188080117244755 0.30239374694675125
0.22632849199999328 0.4557889594528579 0.3277967757694187
0.22651897099967755 0.4538348803126526 0.3531998045920859
0.22670893099984823 0.457743038593063 0.37176355642403514
0.2268985209998391 0.4587200781631655 0.3913043478260869
0.2270878519998405 0.46262823644357587 0.39912066438690763
0.22727742300003229 0.4636052760136786 0.4040058622374205
0.22746814299989637 0.4636052760136786 0.4010747435271129
0.22765902899982393 0.46262823644357587 0.3903273082559844
0.2278495450000264 0.46458231558378116 0.37274059599413767
0.22803983899984814 0.47142159257449934 0.36003908158280407
0.22822929899984956 0.4665363947239862 0.3531998045920859
0.2284190000000308 0.467513434294089 0.3561309233023937
0.22860818199978894 0.467513434294089 0.3610161211529066
0.22879766100004417 0.4684904738641915 0.3737176355642404
0.2289867139998023 0.4665363947239862 0.3786028334147533
0.2291758039996239 0.4636052760136786 0.3903273082559844
0.22936509700002716 0.46946751343429405 0.39912066438690763
0.22955507599999692 0.4704445530043966 0.4059599413776258
0.2297439249996387 0.46946751343429405 0.4186614557889594
0.22993382999993628 0.47142159257449934 0.41670737664875435
0.23012334599980022 0.46946751343429405 0.4176844162188569
0.23031428800004505 0.4684904738641915 0.4206155349291647
0.2305027849997714 0.4763067904250122 0.42256961406936977
0.23069198599978336 0.46946751343429405 0.4255007327796776
0.23088070599987986 0.46946751343429405 0.4255007327796776
0.2310693879999235 0.467513434294089 0.4303859306301905
0.23125801499963927 0.4684904738641915 0.4303859306301905
0.23144660499974634 0.46262823644357587 0.4333170493404983
0.23163547299964193 0.46262823644357587 0.42745481191988266
0.23182456299991827 0.45969711773326827 0.4157303370786516
0.23201265299985607 0.46262823644357587 0.4040058622374205
0.2322009459999208 0.45676599902296044 0.39423546653639474
0.2323889619997317 0.45676599902296044 0.39716658524670256
0.23257745899991278 0.45481191988275516 0.40009770395701016
0.23276649399986127 0.457743038593063 0.41182217879824123
0.23295562099974632 0.4557889594528579 0.42745481191988266
0.23314380299962068 0.457743038593063 0.4430874450415241
0.23333229999980176 0.4606741573033708 0.46262823644357587
0.23352066799998283 0.4587200781631655 0.4782608695652173
0.23370903599970916 0.4587200781631655 0.49193942354665365
0.2338972739999008 0.46262823644357587 0.5075720566682951
0.2340856050000184 0.45481191988275516 0.5232046897899365
0.23430082400000174 0.4557889594528579 0.5359062042012701
0.23449161700000332 0.4528578407425501 0.550561797752809
0.2346808739998778 0.45188080117244755 0.5525158768930141
0.23486989000002723 0.4538348803126526 0.5593551538837322
0.23505946099976427 0.4528578407425501 0.5574010747435272
0.23524862499971277 0.44894968246213973 0.5583781143136297
0.23543773399978818 0.44992672203224227 0.5525158768930141
0.23562823099973684 0.44699560332193444 0.550561797752809
0.23581778399966424 0.44992672203224227 0.540791402051783
0.2360074660000464 0.4479726428920372 0.5319980459208598
0.23619709299964597 0.4460185637518319 0.5349291646311676
0.2363866649998272 0.44894968246213973 0.5310210063507572
0.2365761799997017 0.45188080117244755 0.5280898876404494
0.23676556700002038 0.4430874450415241 0.5310210063507572
0.23695504499983144 0.4450415241817294 0.5398143624816805
0.23714435700003378 0.44406448461162684 0.5437225207620908
0.2373340209996968 0.4352711284807034 0.5427454811919883
0.23752325899977222 0.431362970200293 0.5466536394723986
0.23771229399972071 0.42452369320957506 0.5515388373229115
0.23790192099977503 0.42256961406936977 0.5456765999022961
0.23809145499990336 0.4186614557889594 0.5446995603321934
0.23829078599965214 0.41670737664875435 0.5427454811919883
0.23848102399961135 0.4108451392281387 0.5388373229115779
0.23867096499998297 0.4137762579384465 0.5349291646311676
0.23886120299994218 0.41182217879824123 0.5368832437713726
0.23905073800005994 0.41182217879824123 0.5359062042012701
0.2392404570000508 0.4157303370786516 0.5310210063507572
0.23943050999969273 0.41670737664875435 0.5280898876404494
0.2396196559998316 0.4176844162188569 0.5261358085002443
0.2398086529997272 0.42256961406936977 0.5192965315095261
0.23999792799986608 0.4303859306301905 0.5134342940889105
0.24018788800003676 0.42452369320957506 0.512457254518808
0.24037769999995362 0.42256961406936977 0.5105031753786029
0.24056760499979646 0.4264777723497801 0.5007327796775769
0.24075741699971331 0.42940889106008795 0.5026868588177822
0.240947154999958 0.42745481191988266 0.5007327796775769
0.24113644899989595 0.4303859306301905 0.49975574010747437
0.2413260939997599 0.4333170493404983 0.49877870053737183
0.24151601799985656 0.4352711284807034 0.49877870053737183
0.24170603299990034 0.441133365901319 0.49877870053737183
0.2418947900000603 0.44992672203224227 0.4938935026868587
0.24208415799967042 0.4460185637518319 0.4909623839765511
0.2422820619999584 0.4460185637518319 0.486077186126038
0.24247163399968485 0.4479726428920372 0.47923790913532005
0.24266172399984498 0.44699560332193444 0.4684904738641915
0.24285085099973003 0.44699560332193444 0.46262823644357587
0.24304016299993236 0.45188080117244755 0.457743038593063
0.24323019699977522 0.44992672203224227 0.44894968246213973
0.2434194719999141 0.45188080117244755 0.44406448461162684
0.24360920999970403 0.45481191988275516 0.42745481191988266
0.2437998189998325 0.4538348803126526 0.41963849535906195
0.24398879699992904 0.45676599902296044 0.40889106008793363
0.2441783320000468 0.4587200781631655 0.3981436248168051
0.24436747699974148 0.46262823644357587 0.3913043478260869
0.24455754899963722 0.46458231558378116 0.38935026868588185
0.24474736100000882 0.4655593551538837 0.3883732291157791
0.24493732099972476 0.47923790913532005 0.3854421104054715
0.24512711499983197 0.46946751343429405 0.38446507083536874
0.2453165749998334 0.46946751343429405 0.37176355642403514
0.2455059609997079 0.4704445530043966 0.3551538837322912
0.24569471799986786 0.4704445530043966 0.33952125061064975
0.24588465899978473 0.46946751343429405 0.33268197361993157
0.24607461999994484 0.4684904738641915 0.3277967757694187
0.24626498699990407 0.467513434294089 0.32975085490962375
0.24646029899986388 0.467513434294089 0.3258426966292134
0.2466502969996327 0.46946751343429405 0.32486565705911086
0.24684047899972938 0.4684904738641915 0.3238886174890083
0.24702960599961443 0.4704445530043966 0.3209574987787005
0.24721852899983787 0.47239863214460187 0.31900341963849543
0.24740845299993452 0.4684904738641915 0.3258426966292134
0.24759809799979848 0.46946751343429405 0.3287738153395212
0.24778763199992682 0.4753297508549097 0.3287738153395212
0.24797709299991766 0.4763067904250122 0.33170493404982904
0.24816647899979216 0.4753297508549097 0.33952125061064975
0.24835592099998394 0.47239863214460187 0.348314606741573
0.24854491799987954 0.47239863214460187 0.35222276502198335
0.2487341189998915 0.47142159257449934 0.35906204201270153
0.24892424599966034 0.47142159257449934 0.36687835857352225
0.24911368799985212 0.4704445530043966 0.3678553981436248
0.24930316599966318 0.46946751343429405 0.37274059599413767
0.24949208999987604 0.467513434294089 0.3776257938446508
0.24968162400000438 0.4684904738641915 0.3776257938446508
0.24987154699965686 0.467513434294089 0.38739618954567656
0.25006134099976407 0.4665363947239862 0.38935026868588185
0.250252559999808 0.47142159257449934 0.38935026868588185
0.25044094699978814 0.4684904738641915 0.39716658524670256
0.2506300739996732 0.4684904738641915 0.4010747435271129
0.25081821899993884 0.46458231558378116 0.4108451392281387
0.25100641999961226 0.46458231558378116 0.4206155349291647
0.25119484299966643 0.46165119687347334 0.42452369320957506
0.25138348899963603 0.4606741573033708 0.43624816805080613
0.2515724489999229 0.457743038593063 0.4450415241817294
0.25176183499979743 0.4606741573033708 0.4557889594528579
0.2519501289998516 0.4557889594528579 0.4636052760136786
0.25213877399983176 0.4557889594528579 0.46946751343429405
0.2523270120000234 0.45676599902296044 0.47142159257449934
0.25251524999976027 0.4606741573033708 0.4763067904250122
0.25270343299962406 0.457743038593063 0.4733756717147044
0.2528922819997206 0.45481191988275516 0.4704445530043966
0.25308070499977475 0.4528578407425501 0.4733756717147044
0.25326868399997693 0.45969711773326827 0.47239863214460187
0.2534568109999782 0.4538348803126526 0.47239863214460187
0.2536451789997045 0.4557889594528579 0.4753297508549097
0.253834120999727 0.44894968246213973 0.4851001465559355
0.254022913999961 0.45481191988275516 0.5065950170981925
0.2542190969998046 0.44699560332193444 0.5114802149487054
0.25441087199988033 0.4460185637518319 0.5212506106497312
0.25460084999986066 0.45188080117244755 0.5359062042012701
0.25479088499969293 0.4460185637518319 0.5427454811919883
0.2549808639996627 0.44406448461162684 0.5466536394723986
0.25517074999970646 0.44211040547142155 0.5564240351734244
0.2553600619999088 0.43722520762090866 0.5603321934538348
0.25554957799977274 0.4401563263312165 0.5593551538837322
0.25573935299962613 0.4382022471910112 0.5583781143136297
0.2559295910000401 0.43917928676111373 0.5564240351734244
0.2561192729999675 0.43722520762090866 0.5544699560332194
0.2563087710000218 0.43722520762090866 0.5593551538837322
0.25649784200004433 0.43624816805080613 0.5574010747435272
0.2566869129996121 0.43624816805080613 0.5622862725940401
0.2568767630000366 0.4382022471910112 0.5603321934538348
0.25706666699989 0.43624816805080613 0.5691255495847583
0.25725627599967993 0.4333170493404983 0.5740107474352711
0.25744551399975535 0.4333170493404983 0.5740107474352711
0.2576345479997144 0.4323400097703958 0.5798729848558866
0.2578235269998004 0.4303859306301905 0.5779189057156815
0.25801294999973834 0.4303859306301905 0.5701025891548608
0.25821259599979385 0.42940889106008795 0.5613092330239375
0.2584030929997425 0.4352711284807034 0.5437225207620908
0.25859210899989193 0.4323400097703958 0.524181729360039
0.258780698999999 0.4352711284807034 0.5105031753786029
0.25896973299995807 0.4303859306301905 0.49975574010747437
0.25915904499970566 0.42745481191988266 0.48998534440644836
0.259348449999834 0.4323400097703958 0.4831460674157304
0.25953802100002576 0.4333170493404983 0.4782608695652173
0.25972918499974185 0.42940889106008795 0.4763067904250122
0.2599193309997645 0.431362970200293 0.47239863214460187
0.2601092349996179 0.431362970200293 0.4763067904250122
0.2602993619998415 0.4303859306301905 0.4763067904250122
0.26048919300001216 0.4323400097703958 0.4733756717147044
0.2606786349997492 0.4323400097703958 0.4753297508549097
0.2608680209996237 0.431362970200293 0.47728382999511476
0.2610571479999635 0.43429408891060084 0.4782608695652173
0.2612463860000389 0.43624816805080613 0.47435271128480694
0.2614352349996807 0.4401563263312165 0.4733756717147044
0.26162499199972444 0.441133365901319 0.47142159257449934
0.26181361899989497 0.4450415241817294 0.46946751343429405
0.2620022080000126 0.4460185637518319 0.4636052760136786
0.26220018699996217 0.45188080117244755 0.45676599902296044
0.2623918509998475 0.4528578407425501 0.4509037616023448
0.2625820149996798 0.4538348803126526 0.4450415241817294
0.2627716599999985 0.4528578407425501 0.4430874450415241
0.262961360999725 0.45188080117244755 0.4382022471910112
0.2631504139999379 0.4557889594528579 0.43429408891060084
0.2633399669998653 0.4557889594528579 0.43624816805080613
0.26352876099963396 0.4509037616023448 0.4255007327796776
0.26371881399973063 0.4479726428920372 0.42159257449926724
0.2639074779999646 0.45188080117244755 0.412799218368344
0.26409684500004005 0.4557889594528579 0.39912066438690763
0.26428552799961835 0.4557889594528579 0.38739618954567656
0.26447465499995815 0.45481191988275516 0.3786028334147533
0.2646637630000441 0.4557889594528579 0.3776257938446508
0.26485420499966494 0.45676599902296044 0.36980947728383007
0.2650435169998673 0.457743038593063 0.37176355642403514
0.2652329769998687 0.45676599902296044 0.3737176355642404
0.2654224559996692 0.45676599902296044 0.37176355642403514
0.26561228699983985 0.45969711773326827 0.36687835857352225
0.26580337699988377 0.457743038593063 0.3629702002931119
0.26599326299992754 0.4606741573033708 0.35222276502198335
0.2661829819999184 0.4587200781631655 0.3434294088910601
0.2663817200000267 0.4636052760136786 0.33268197361993157
0.2665711069998906 0.46458231558378116 0.32681973619931615
0.26676047399996605 0.46165119687347334 0.3336590131900341
0.26695010100002037 0.4636052760136786 0.348314606741573
0.2671392649999689 0.46458231558378116 0.36199316072300936
0.26732857699971646 0.4665363947239862 0.37469467513434296
0.2675183339997602 0.4665363947239862 0.38446507083536874
0.267707775999952 0.4655593551538837 0.3932584269662922
0.2678979209999852 0.4704445530043966 0.39228138739618945
0.26808749199972226 0.46946751343429405 0.3932584269662922
0.26827687900004094 0.4704445530043966 0.3932584269662922
0.2684658939997462 0.47142159257449934 0.38935026868588185
0.2686550769999485 0.47239863214460187 0.3854421104054715
0.2688450189998548 0.4733756717147044 0.37957987298485585
0.2690339050000148 0.4733756717147044 0.3854421104054715
0.269222883999646 0.47142159257449934 0.38251099169516367
0.26941188099999636 0.4753297508549097 0.3854421104054715
0.26960111899961703 0.47239863214460187 0.38641914997557403
0.26979044999961843 0.47142159257449934 0.39228138739618945
0.2699796319998313 0.4733756717147044 0.3932584269662922
0.2701695179998751 0.4763067904250122 0.3961895456765998
0.2703598489997603 0.4763067904250122 0.403028822667318
0.27054890199997317 0.4733756717147044 0.4137762579384465
0.2707374179999533 0.47142159257449934 0.42452369320957506
0.2709263779997855 0.47239863214460187 0.4323400097703958
0.27111485699970217 0.47239863214460187 0.441133365901319
0.27130390999991505 0.4704445530043966 0.45676599902296044
0.271493110999927 0.4665363947239862 0.4684904738641915
0.271682090000013 0.4636052760136786 0.4811919882755251
0.2718707539997922 0.46165119687347334 0.49193942354665365
0.27205938099996274 0.46165119687347334 0.486077186126038
0.27224806300000637 0.4655593551538837 0.48216902784562765
0.2724364489999971 0.457743038593063 0.47435271128480694
0.27262507599971286 0.4557889594528579 0.4587200781631655
0.2728137029998834 0.4538348803126526 0.4460185637518319
0.27300299699982133 0.45676599902296044 0.4264777723497801
0.2731918639997275 0.45481191988275516 0.412799218368344
0.27338004700004603 0.4538348803126526 0.40889106008793363
0.2735701550000158 0.4528578407425501 0.41182217879824123
0.27375974500000666 0.45188080117244755 0.42452369320957506
0.27394844599984935 0.4528578407425501 0.44211040547142155
0.27413740699967093 0.44992672203224227 0.45188080117244755
0.27432901499969375 0.44699560332193444 0.46262823644357587
0.27451914199991734 0.4460185637518319 0.4733756717147044
0.27470837999999276 0.43917928676111373 0.48216902784562765
0.27489791399966634 0.4401563263312165 0.4938935026868587
0.27508770799977356 0.44406448461162684 0.5036638983878847
0.2752776869997433 0.44211040547142155 0.5095261358085001
0.275467424999988 0.44211040547142155 0.5232046897899365
0.27565694099985194 0.441133365901319 0.5300439667806547
0.2758465299998534 0.44406448461162684 0.5359062042012701
0.2760370649998549 0.441133365901319 0.5378602833414754
0.2762263399999938 0.44211040547142155 0.5398143624816805
0.2764164109999001 0.4450415241817294 0.5359062042012701
0.27660540899978514 0.441133365901319 0.5388373229115779
0.27679440599968075 0.43722520762090866 0.5456765999022961
0.2769834959999571 0.4382022471910112 0.5515388373229115
0.27717301199982103 0.44211040547142155 0.5554469956033219
0.2773626759999388 0.4401563263312165 0.5613092330239375
0.2775518399998873 0.4333170493404983 0.5759648265754762
0.2777412999998887 0.4323400097703958 0.5808500244259893
0.27793014899998525 0.43624816805080613 0.5857352222765022
0.2781202389996906 0.4352711284807034 0.5896433805569126
0.27831203300002016 0.43429408891060084 0.5945285784074255
0.27850178899961975 0.4333170493404983 0.5974596971177333
0.27869097199982207 0.4333170493404983 0.6033219345383487
0.27888037599996096 0.431362970200293 0.6023448949682462
0.2790702069996769 0.4382022471910112 0.5984367366878358
0.2792596859999321 0.4352711284807034 0.5935515388373229
0.279449404999923 0.431362970200293 0.5876893014167073
0.27963869899986094 0.4352711284807034 0.5828041035661944
0.2798278440000104 0.43722520762090866 0.576941866145579
0.28001687899995886 0.43917928676111373 0.5661944308744504
0.28020602399965355 0.43429408891060084 0.5613092330239375
0.2803956699999617 0.4323400097703958 0.550561797752809
0.28058468499966693 0.43624816805080613 0.5359062042012701
0.2807748309996896 0.43429408891060084 0.5212506106497312
0.2809648469997228 0.43429408891060084 0.5144113336590133
0.28115423300005205 0.4333170493404983 0.5026868588177822
0.2813435819998631 0.4382022471910112 0.48900830483634583
0.28153331999965303 0.4401563263312165 0.4763067904250122
0.28172272499978135 0.43917928676111373 0.46262823644357587
0.28191266699968764 0.4401563263312165 0.44894968246213973
0.2821017749997736 0.44406448461162684 0.4323400097703958
0.2823009019998608 0.44406448461162684 0.4079140205178309
0.2824917699999787 0.4450415241817294 0.38641914997557403
0.2826814889999696 0.4450415241817294 0.3639472398632144
0.282870727000045 0.44211040547142155 0.34440644846116264
0.28306022399965514 0.44406448461162684 0.32193453834880303
0.2832493880000584 0.44211040547142155 0.31704934049829014
0.2834395339996263 0.4430874450415241 0.31900341963849543
0.28362953099986044 0.4479726428920372 0.32486565705911086
0.28381910300004165 0.4430874450415241 0.33170493404982904
0.28400843300005363 0.44406448461162684 0.3404982901807523
0.2841981339997801 0.44894968246213973 0.34929164631167553
0.28438783499996134 0.4509037616023448 0.3629702002931119
0.2845775729997513 0.4538348803126526 0.3756717147044455
0.2847667369996998 0.4538348803126526 0.3883732291157791
0.28495556799998667 0.4557889594528579 0.40009770395701016
0.2851447499997448 0.4557889594528579 0.40693698094772834
0.2853335810000317 0.4606741573033708 0.4206155349291647
0.28552298599970527 0.4528578407425501 0.41963849535906195
0.28571218699971723 0.4557889594528579 0.41963849535906195
0.28590120299986665 0.4636052760136786 0.41670737664875435
0.2860913299996355 0.45481191988275516 0.41182217879824123
0.28628978999995525 0.457743038593063 0.4059599413776258
0.2864798239997981 0.4587200781631655 0.4010747435271129
0.2866690619998735 0.46165119687347334 0.39423546653639474
0.2868579480000335 0.46165119687347334 0.3883732291157791
0.28704702000004545 0.4655593551538837 0.37957987298485585
0.2872364429999834 0.467513434294089 0.3756717147044455
0.28742527399981554 0.4665363947239862 0.3659013190034197
0.287614640999891 0.4665363947239862 0.34929164631167553
0.287803860999702 0.46946751343429405 0.33952125061064975
0.287992839999788 0.4733756717147044 0.32975085490962375
0.2881814479997047 0.46946751343429405 0.32681973619931615
0.2883702969998012 0.46946751343429405 0.3258426966292134
0.2885594059998766 0.4704445530043966 0.32486565705911086
0.28874918099973 0.47142159257449934 0.3238886174890083
0.2889383629999429 0.4733756717147044 0.3277967757694187
0.28912797199973284 0.47239863214460187 0.3307278944797265
0.2893166730000303 0.47142159257449934 0.3385442110405472
0.2895058919998519 0.4665363947239862 0.3414753297508548
0.28969516699999076 0.46946751343429405 0.3502686858817783
0.28988470199965377 0.47142159257449934 0.35906204201270153
0.29007473599995137 0.4733756717147044 0.36492427943331696
0.2902647519999846 0.4753297508549097 0.37176355642403514
0.2904535079997004 0.4831460674157304 0.3805569125549584
0.2906419129999449 0.4753297508549097 0.39228138739618945
0.29083059599997796 0.47142159257449934 0.403028822667318
0.2910192599997572 0.47239863214460187 0.4108451392281387
0.2912079419998008 0.46458231558378116 0.42256961406936977
0.2913969950000137 0.4606741573033708 0.4382022471910112
0.29158582599984584 0.45676599902296044 0.4557889594528579
0.29177498999979434 0.4538348803126526 0.4655593551538837
0.2919655419996161 0.45481191988275516 0.4763067904250122
0.29215509499999825 0.45481191988275516 0.4802149487054226
0.29234386999996786 0.4509037616023448 0.4802149487054226
0.29253303399991637 0.4450415241817294 0.4802149487054226
0.2927210869997907 0.4479726428920372 0.4802149487054226
0.292909213999792 0.44699560332193444 0.48705422569614076
0.2930974339997192 0.44699560332193444 0.4948705422569615
0.2932856349998474 0.45188080117244755 0.49975574010747437
0.29347359499979575 0.4606741573033708 0.5075720566682951
0.2936622039997019 0.457743038593063 0.5134342940889105
0.2938500899999781 0.457743038593063 0.524181729360039
0.2940393649996622 0.44894968246213973 0.5319980459208598
0.29422930700002325 0.44406448461162684 0.5437225207620908
0.29441982199978156 0.44894968246213973 0.5456765999022961
0.2946091720000368 0.44211040547142155 0.5466536394723986
0.2947987429997738 0.441133365901319 0.5456765999022961
0.2949882399998387 0.441133365901319 0.5329750854909623
0.29517777499995645 0.44406448461162684 0.5310210063507572
0.29536679099965113 0.43917928676111373 0.5300439667806547
0.2955567509998218 0.4352711284807034 0.5290669272105519
0.29574606300002415 0.43624816805080613 0.5290669272105519
0.2959345049998774 0.43429408891060084 0.5261358085002443
0.2961240579998048 0.4333170493404983 0.5261358085002443
0.29631309199976386 0.4303859306301905 0.522227650219834
0.29650181099987094 0.431362970200293 0.5212506106497312
0.2966915679999147 0.4303859306301905 0.5163654127992183
0.2968808059999901 0.4323400097703958 0.5232046897899365
0.29707037699972716 0.42745481191988266 0.522227650219834
0.2972600230000353 0.42940889106008795 0.5280898876404494
0.2974492979997194 0.431362970200293 0.5271128480703469
0.2976391099996363 0.42940889106008795 0.5417684416218858
0.297828533000029 0.4352711284807034 0.550561797752809
0.29801777099964966 0.42745481191988266 0.5564240351734244
0.2982155459999376 0.4303859306301905 0.5691255495847583
0.29840561799983334 0.4284318514899854 0.5720566682950659
0.2985947629999828 0.43624816805080613 0.5749877870053737
0.29878385299980437 0.42940889106008795 0.5701025891548608
0.29897359100004905 0.431362970200293 0.5642403517342451
0.29916331100002935 0.4333170493404983 0.5554469956033219
0.2993542709996291 0.4284318514899854 0.5417684416218858
0.29954402799967283 0.4284318514899854 0.5388373229115779
0.29973309899969536 0.4303859306301905 0.533952125061065
0.2999225589996968 0.4352711284807034 0.5280898876404494
0.30011207500001547 0.42940889106008795 0.5300439667806547
0.30030184999986886 0.4255007327796776 0.5271128480703469
0.3004913659997328 0.4284318514899854 0.524181729360039
0.3006811969999035 0.4323400097703958 0.5144113336590133
0.30087060100004237 0.431362970200293 0.5026868588177822
0.3010597649999909 0.4333170493404983 0.48705422569614076
0.3012484289997701 0.4333170493404983 0.4665363947239862
0.301437481999983 0.43917928676111373 0.4509037616023448
0.3016260719996353 0.4401563263312165 0.431362970200293
0.3018151809997107 0.4401563263312165 0.4206155349291647
0.30200502999969103 0.43917928676111373 0.42159257449926724
0.3022026379999261 0.44406448461162684 0.4255007327796776
0.3023944499996105 0.4401563263312165 0.4382022471910112
0.3025834289996965 0.4479726428920372 0.45188080117244755
0.3027731849997508 0.44699560332193444 0.457743038593063
0.30296270099961475 0.44406448461162684 0.46946751343429405
0.30315229100006036 0.4430874450415241 0.47239863214460187
0.3033419739999772 0.4460185637518319 0.4733756717147044
0.3035315269999046 0.44699560332193444 0.4763067904250122
0.30372072799991656 0.4528578407425501 0.467513434294089
0.30390965099968525 0.44894968246213973 0.45676599902296044
0.30409927799973957 0.4538348803126526 0.44992672203224227
0.3042881819997092 0.4636052760136786 0.441133365901319
0.30447901299976365 0.46165119687347334 0.4303859306301905
0.3046686210000189 0.46165119687347334 0.41963849535906195
0.3048587109997243 0.4636052760136786 0.40986809965803617
0.30504883799994786 0.46165119687347334 0.39228138739618945
0.3052394469996216 0.4606741573033708 0.37274059599413767
0.30543849900004716 0.46262823644357587 0.34733756717147046
0.3056377739999334 0.4655593551538837 0.3229115779189058
0.30583032699996693 0.4655593551538837 0.303370786516854
0.30602067599966176 0.4684904738641915 0.29164631167562294
0.30622493299961207 0.46946751343429405 0.2887151929653151
0.30641644899969833 0.4655593551538837 0.29457743038593054
0.30660676099978446 0.4684904738641915 0.3053248656570591
0.3067963509997753 0.4704445530043966 0.3111871030776747
0.3069861439998931 0.4733756717147044 0.31998045920859797
0.30717543799983105 0.4704445530043966 0.3229115779189058
0.3073660089999066 0.4733756717147044 0.32193453834880303
0.30755613599967546 0.47142159257449934 0.3180263800683927
0.30774642999995194 0.4753297508549097 0.3160723009281876
0.3079360199999428 0.4831460674157304 0.3150952613580851
0.3081257019998702 0.4811919882755251 0.32193453834880303
0.30831540300005145 0.4763067904250122 0.3258426966292134
0.3085047519998625 0.48412310698583294 0.33170493404982904
0.3086953980000544 0.47435271128480694 0.3434294088910601
0.30888504299991837 0.4733756717147044 0.34929164631167553
0.3090737999996236 0.46946751343429405 0.35906204201270153
0.3092628340000374 0.4684904738641915 0.36199316072300936
0.30945205399984843 0.4665363947239862 0.36687835857352225
0.30964068100001896 0.46458231558378116 0.3707865168539326
0.30982967799991457 0.45969711773326827 0.3707865168539326
0.3100191009998525 0.46262823644357587 0.37274059599413767
0.31021554299968557 0.4655593551538837 0.3756717147044455
0.3104053919996659 0.46262823644357587 0.38153395212506114
0.31059422299995276 0.46262823644357587 0.3883732291157791
0.310783108999658 0.46165119687347334 0.3952125061064973
0.3109718470000189 0.4636052760136786 0.403028822667318
0.31116095499965013 0.4606741573033708 0.4108451392281387
0.31134935999989466 0.45969711773326827 0.42256961406936977
0.3115380429999277 0.46458231558378116 0.4352711284807034
0.3117262809996646 0.45969711773326827 0.4479726428920372
0.31191511099996205 0.45676599902296044 0.457743038593063
0.31210334899969894 0.4557889594528579 0.467513434294089
0.3122910319998482 0.4557889594528579 0.47728382999511476
0.31247932499991293 0.45481191988275516 0.4811919882755251
0.3126681929998085 0.45676599902296044 0.4831460674157304
0.3128567280000425 0.457743038593063 0.4851001465559355
0.3130453169997054 0.457743038593063 0.48900830483634583
0.31323440699998173 0.4606741573033708 0.4909623839765511
0.31342362699979276 0.46165119687347334 0.4948705422569615
0.3136120869999104 0.4587200781631655 0.5007327796775769
0.3138013439997849 0.45969711773326827 0.512457254518808
0.31399037799974394 0.457743038593063 0.5271128480703469
0.3141851349996614 0.4538348803126526 0.5368832437713726
0.3143872979999287 0.4528578407425501 0.550561797752809
0.31457810999972935 0.44992672203224227 0.5613092330239375
0.3147676999997202 0.44894968246213973 0.5603321934538348
0.31495830899984867 0.44894968246213973 0.5652173913043479
0.31514780599991354 0.44699560332193444 0.5642403517342451
0.31533763699962947 0.44992672203224227 0.5613092330239375
0.3155275789999905 0.44699560332193444 0.5603321934538348
0.3157178909996219 0.4479726428920372 0.5574010747435272
0.3159073689998877 0.44894968246213973 0.5486077186126037
0.3160963850000371 0.44992672203224227 0.5456765999022961
0.3162864939999963 0.4460185637518319 0.540791402051783
0.31647608399998717 0.44406448461162684 0.5359062042012701
0.3166659879998406 0.43917928676111373 0.5271128480703469
0.3168556890000218 0.4382022471910112 0.522227650219834
0.31704496399970594 0.4352711284807034 0.5183194919394236
0.3172342769998977 0.4333170493404983 0.5144113336590133
0.31742471799998384 0.4333170493404983 0.512457254518808
0.31761434500003816 0.431362970200293 0.5114802149487054
0.3178039169997646 0.4323400097703958 0.512457254518808
0.31799382099961804 0.4333170493404983 0.5085490962383976
0.31818261499984146 0.431362970200293 0.5095261358085001
0.31838168599961136 0.4323400097703958 0.5065950170981925
0.3185712209997291 0.4352711284807034 0.5036638983878847
0.31876099600003727 0.4323400097703958 0.5046409379579873
0.31895082599976377 0.431362970200293 0.5075720566682951
0.31914037899969117 0.431362970200293 0.5095261358085001
0.31933028399998875 0.4333170493404983 0.5183194919394236
0.3195199479996518 0.431362970200293 0.524181729360039
0.3197093529997801 0.4401563263312165 0.5280898876404494
0.31989868299979207 0.4323400097703958 0.533952125061065
0.3200883839999733 0.4264777723497801 0.5427454811919883
0.3202780849996998 0.4323400097703958 0.5437225207620908
0.3204674159997012 0.4323400097703958 0.5437225207620908
0.32065685799989296 0.42940889106008795 0.5378602833414754
0.32084652200001074 0.42940889106008795 0.5329750854909623
0.3210362410000016 0.4284318514899854 0.5271128480703469
0.3212258489998021 0.42940889106008795 0.5163654127992183
0.3214161249998142 0.431362970200293 0.5085490962383976
0.32160645499970997 0.4333170493404983 0.49193942354665365
0.32179672999973263 0.43429408891060084 0.4831460674157304
0.3219863939998504 0.431362970200293 0.4763067904250122
0.3221769659999154 0.43429408891060084 0.467513434294089
0.32237538899971696 0.431362970200293 0.4587200781631655
0.3225649789997078 0.43429408891060084 0.45188080117244755
0.32275497599994196 0.43722520762090866 0.4430874450415241
0.32294428799968955 0.43624816805080613 0.44211040547142155
0.3231339339999977 0.4430874450415241 0.4401563263312165
0.323323690000052 0.44406448461162684 0.43624816805080613
0.3235133359999054 0.4460185637518319 0.42940889106008795
0.3237031109997588 0.4479726428920372 0.4235466536394723
0.3238925709997602 0.45188080117244755 0.4137762579384465
0.32408249399986744 0.4538348803126526 0.40205178309721545
0.3242746769997211 0.45676599902296044 0.38935026868588185
0.3244645629997649 0.457743038593063 0.3805569125549584
0.32465446799960773 0.457743038593063 0.37176355642403514
0.32484418700005335 0.4587200781631655 0.3639472398632144
0.32503351800005476 0.4636052760136786 0.35710796287249624
0.325222625999686 0.46946751343429405 0.3531998045920859
0.32541177199982485 0.4636052760136786 0.3531998045920859
0.3256008429998474 0.46165119687347334 0.358085002442599
0.3257900809999228 0.4606741573033708 0.3610161211529066
0.3259802449997551 0.467513434294089 0.3659013190034197
0.32617007599992576 0.46262823644357587 0.3707865168539326
0.3263612769997053 0.46262823644357587 0.37274059599413767
0.3265512919997491 0.4655593551538837 0.37176355642403514
0.3267407899998034 0.46458231558378116 0.37176355642403514
0.3269301020000057 0.4665363947239862 0.3707865168539326
0.3271194879998802 0.4655593551538837 0.3688324377137273
0.3273085219998393 0.47142159257449934 0.3688324377137273
0.3274982230000205 0.4704445530043966 0.35906204201270153
0.3276882390000537 0.47142159257449934 0.358085002442599
0.32787775499991767 0.47239863214460187 0.3561309233023937
0.32806667799968636 0.47435271128480694 0.35222276502198335
0.32825623099961376 0.4733756717147044 0.35906204201270153
0.32844572899966806 0.4753297508549097 0.3629702002931119
0.3286363369998071 0.4763067904250122 0.3610161211529066
0.328825611999946 0.4763067904250122 0.358085002442599
0.32901501699961955 0.4704445530043966 0.35222276502198335
0.32920466199993825 0.467513434294089 0.3453834880312652
0.32939430799979164 0.47142159257449934 0.33463605276013686
0.32958454599975084 0.4733756717147044 0.32193453834880303
0.3297740429998157 0.46946751343429405 0.31216414264777725
0.3299634289996902 0.47142159257449934 0.30434782608695654
0.330152648999956 0.47728382999511476 0.3063019052271616
0.3303418679997776 0.4753297508549097 0.3131411822178798
0.3305306799998107 0.47239863214460187 0.32975085490962375
0.33071982599994953 0.4704445530043966 0.35417684416218864
0.3309087859997817 0.4704445530043966 0.37274059599413767
0.33109776499986765 0.46946751343429405 0.39716658524670256
0.3312878179999643 0.4665363947239862 0.4176844162188569
0.33147716699977536 0.4655593551538837 0.43917928676111373
0.3316659609999988 0.46262823644357587 0.457743038593063
0.3318554579996089 0.46165119687347334 0.4684904738641915
0.3320451219997267 0.4606741573033708 0.47435271128480694
0.3322343039999396 0.45969711773326827 0.4831460674157304
0.3324234679998881 0.4538348803126526 0.4909623839765511
0.3326120950000586 0.4509037616023448 0.5007327796775769
0.3328011849998802 0.45481191988275516 0.4978016609672691
0.3329901459997018 0.4538348803126526 0.5056179775280898
0.3331794020000416 0.45676599902296044 0.5095261358085001
0.3333679919996939 0.4557889594528579 0.5163654127992183
0.333556581999801 0.4538348803126526 0.5192965315095261
0.33374530099990807 0.4528578407425501 0.5290669272105519
0.3339354469999307 0.44894968246213973 0.5388373229115779
0.3341312590000598 0.4479726428920372 0.5456765999022961
0.3343235529996491 0.4450415241817294 0.5525158768930141
0.33451349400002073 0.44406448461162684 0.5544699560332194
0.33470300999988467 0.44406448461162684 0.5574010747435272
0.33489278499973807 0.44211040547142155 0.5593551538837322
0.3350827079998453 0.441133365901319 0.5574010747435272
0.3352719279996563 0.441133365901319 0.5554469956033219
0.33546135100004904 0.4401563263312165 0.5554469956033219
0.33565073699992354 0.4401563263312165 0.5534929164631168
0.33584043799965 0.43917928676111373 0.5466536394723986
0.3360299729997678 0.44211040547142155 0.5476306790425012
0.33621922899965284 0.44406448461162684 0.5427454811919883
0.3364083749997917 0.441133365901319 0.5398143624816805
0.3365976499999306 0.4382022471910112 0.5368832437713726
0.3367874059999849 0.4401563263312165 0.5378602833414754
0.33697699599997577 0.4382022471910112 0.540791402051783
0.33716640099964934 0.43624816805080613 0.5437225207620908
0.33735604699995747 0.4382022471910112 0.550561797752809
0.337545432999832 0.4352711284807034 0.5564240351734244
0.33773463399984394 0.431362970200293 0.5681485100146555
0.33792487199980314 0.43624816805080613 0.5730337078651686
0.33811503599963544 0.4352711284807034 0.578895945285784
0.3383203109997339 0.4333170493404983 0.5798729848558866
0.3385107340000104 0.4333170493404983 0.5828041035661944
0.33870036099961 0.4333170493404983 0.5818270639960919
0.3388900619997912 0.43429408891060084 0.5828041035661944
0.3390806889997293 0.4352711284807034 0.5798729848558866
0.3392704819998471 0.43429408891060084 0.5837811431362969
0.3394602569997005 0.4382022471910112 0.5857352222765022
0.3396496440000192 0.4352711284807034 0.5847581827063997
0.3398393819998091 0.43624816805080613 0.5867122618466047
0.3400291009998 0.4352711284807034 0.5896433805569126
0.34021876499991777 0.4333170493404983 0.5798729848558866
0.34040824399971825 0.43624816805080613 0.5652173913043479
0.34059831499962456 0.4333170493404983 0.5368832437713726
0.3407880899999327 0.4323400097703958 0.5046409379579873
0.34097755099992355 0.4352711284807034 0.45969711773326827
0.34116676999974516 0.4352711284807034 0.4137762579384465
0.3413559529999475 0.43429408891060084 0.37469467513434296
0.34154470899966327 0.431362970200293 0.34929164631167553
0.34173398399980215 0.4333170493404983 0.33463605276013686
0.34192414799963444 0.43429408891060084 0.31998045920859797
0.3421138119997522 0.43624816805080613 0.3258426966292134
0.34231030999990253 0.43429408891060084 0.3424523693209576
0.34250130700002046 0.4401563263312165 0.3561309233023937
0.34269154499997967 0.43722520762090866 0.3786028334147533
0.34288096799991763 0.4382022471910112 0.3952125061064973
0.34307103999981337 0.441133365901319 0.4059599413776258
0.3432603520000157 0.441133365901319 0.41182217879824123
0.343450644999848 0.441133365901319 0.41670737664875435
0.34364103100006105 0.44406448461162684 0.40693698094772834
0.3438312139996924 0.44699560332193444 0.3961895456765998
0.3440206559998842 0.45188080117244755 0.37957987298485585
0.34421032000000196 0.45676599902296044 0.35710796287249624
0.34440003899999283 0.457743038593063 0.3414753297508548
0.3445897399997193 0.4636052760136786 0.3229115779189058
0.3447789409997313 0.46165119687347334 0.31216414264777725
0.3449682719997327 0.4636052760136786 0.31021006350757196
0.3451581949998399 0.4636052760136786 0.3111871030776747
0.34534822899968276 0.46165119687347334 0.31900341963849543
0.3455394669999805 0.467513434294089 0.3209574987787005
0.3457293349997599 0.46458231558378116 0.3307278944797265
0.34591892499975074 0.4636052760136786 0.3356130923302394
0.34610923699983687 0.4655593551538837 0.3414753297508548
0.34630751199983933 0.46458231558378116 0.348314606741573
0.34649750899961873 0.4655593551538837 0.35222276502198335
0.34668732199997976 0.467513434294089 0.3561309233023937
0.3468764479998754 0.4665363947239862 0.36199316072300936
0.3470660749999297 0.467513434294089 0.36687835857352225
0.34725622099995235 0.4704445530043966 0.3629702002931119
0.3474457180000172 0.4704445530043966 0.36492427943331696
0.34763584499978606 0.47239863214460187 0.3659013190034197
0.34782630499967127 0.4763067904250122 0.3639472398632144
0.3480165619998843 0.4811919882755251 0.3610161211529066
0.34820622600000206 0.4763067904250122 0.3659013190034197
0.3483956860000035 0.4763067904250122 0.36492427943331696
0.3485855169997194 0.4763067904250122 0.3678553981436248
0.3487753659996997 0.47435271128480694 0.376648754274548
0.34896499299975403 0.47728382999511476 0.376648754274548
0.3491545829997449 0.4763067904250122 0.38153395212506114
0.3493435249997674 0.47435271128480694 0.3834880312652662
0.34953570699963166 0.4733756717147044 0.38446507083536874
0.34972714900004576 0.4733756717147044 0.3834880312652662
0.34991729399962423 0.47142159257449934 0.3776257938446508
0.3501075689996469 0.48216902784562765 0.3786028334147533
0.35030804799998805 0.47435271128480694 0.38446507083536874
0.3504968600000211 0.4733756717147044 0.3903273082559844
0.3506852089999484 0.4733756717147044 0.4010747435271129
0.35087439199969594 0.46946751343429405 0.4108451392281387
0.35106316699966555 0.47142159257449934 0.42159257449926724
0.3512515349998466 0.4655593551538837 0.431362970200293
0.3514404949996788 0.46262823644357587 0.44211040547142155
0.3516290659999868 0.4636052760136786 0.44992672203224227
0.3518174519999775 0.45969711773326827 0.457743038593063
0.35200572799976726 0.4636052760136786 0.4655593551538837
0.3521941689996311 0.45676599902296044 0.46946751343429405
0.35238277799999196 0.45676599902296044 0.4763067904250122
0.35257260799971846 0.4509037616023448 0.4782608695652173
0.35276249499975165 0.4557889594528579 0.4811919882755251
0.35295167699996455 0.45481191988275516 0.4831460674157304
0.35314093399983904 0.4528578407425501 0.486077186126038
0.3533299119999356 0.45481191988275516 0.48998534440644836
0.353519242999937 0.4557889594528579 0.49682462139716654
0.3537083520000124 0.4509037616023448 0.5056179775280898
0.3538973299996542 0.45188080117244755 0.512457254518808
0.35408625399986704 0.45188080117244755 0.540791402051783
0.3542927509997753 0.4509037616023448 0.5378602833414754
0.35448567399998865 0.4430874450415241 0.5466536394723986
0.3546753379996517 0.44211040547142155 0.5554469956033219
0.3548648910000338 0.441133365901319 0.5564240351734244
0.3550541469999189 0.4430874450415241 0.5622862725940401
0.35524351499998374 0.44211040547142155 0.5632633121641426
0.35543306799991115 0.44211040547142155 0.5652173913043479
0.3556230279996271 0.441133365901319 0.5632633121641426
0.3558126549996814 0.441133365901319 0.5554469956033219
0.3560024489997886 0.44406448461162684 0.5554469956033219
0.3561921870000333 0.441133365901319 0.550561797752809
0.3563809620000029 0.4401563263312165 0.5427454811919883
0.3565731260000575 0.43429408891060084 0.5437225207620908
0.3567627709999215 0.4352711284807034 0.5329750854909623
0.35695189799980653 0.441133365901319 0.5319980459208598
0.35714108100000885 0.42940889106008795 0.5271128480703469
0.357330262999767 0.42745481191988266 0.5300439667806547
0.3575194269997155 0.431362970200293 0.5310210063507572
0.35770833199967456 0.4303859306301905 0.5368832437713726
0.3578975509999509 0.4303859306301905 0.540791402051783
0.3580870299997514 0.42940889106008795 0.5476306790425012
0.35828673099968 0.4303859306301905 0.5437225207620908
0.3584761729998718 0.4382022471910112 0.5446995603321934
0.3586651149998943 0.4323400097703958 0.5417684416218858
0.35885512999993807 0.4303859306301905 0.5388373229115779
0.35904470199966454 0.431362970200293 0.5378602833414754
0.35923338399970817 0.4333170493404983 0.5349291646311676
0.35942243699992105 0.43722520762090866 0.5290669272105519
0.3596123049997004 0.4352711284807034 0.5290669272105519
0.3598010979999344 0.43429408891060084 0.5319980459208598
0.359990502999608 0.4323400097703958 0.533952125061065
0.36017970399961996 0.4323400097703958 0.5359062042012701
0.36036921999993865 0.4352711284807034 0.5349291646311676
0.36055875399961224 0.43429408891060084 0.5398143624816805
0.36074801099994147 0.43624816805080613 0.5359062042012701
0.3609379340000487 0.441133365901319 0.533952125061065
0.3611275799999021 0.43917928676111373 0.5232046897899365
0.3613161139996919 0.441133365901319 0.5085490962383976
0.36150462999967203 0.4430874450415241 0.4938935026868587
0.3616939049998109 0.44211040547142155 0.48216902784562765
0.3618831059998229 0.44406448461162684 0.4636052760136786
0.3620728999999301 0.4430874450415241 0.45188080117244755
0.3622630259997095 0.44406448461162684 0.4430874450415241
0.3624525239997638 0.44406448461162684 0.43624816805080613
0.36264155799972286 0.4450415241817294 0.42940889106008795
0.36282992599990394 0.44894968246213973 0.42452369320957506
0.3630192379996515 0.4460185637518319 0.42452369320957506
0.3632092169996213 0.4450415241817294 0.42452369320957506
0.36339910299966505 0.4450415241817294 0.4284318514899854
0.36358856299966646 0.44992672203224227 0.4264777723497801
0.3637779309997313 0.45188080117244755 0.41963849535906195
0.3639669099998173 0.4557889594528579 0.4108451392281387
0.3641560920000302 0.4587200781631655 0.40205178309721545
0.3643458120000105 0.4587200781631655 0.39228138739618945
0.36453493899989553 0.46165119687347334 0.38446507083536874
0.3647247320000133 0.4606741573033708 0.376648754274548
0.36491395199982435 0.4636052760136786 0.3737176355642404
0.3651033749997623 0.46262823644357587 0.3688324377137273
0.3652927609996368 0.4636052760136786 0.3610161211529066
0.36548223999989204 0.467513434294089 0.35222276502198335
0.3656712929996502 0.4665363947239862 0.33463605276013686
0.3658613269999478 0.467513434294089 0.3141182217879823
0.3660508619996108 0.47142159257449934 0.28969223253541765
0.3662414699997498 0.4665363947239862 0.2711284807034684
0.3664303379996454 0.46946751343429405 0.2603810454323401
0.36662066799999593 0.4665363947239862 0.25744992672203226
0.36681016600005023 0.47142159257449934 0.265266243282853
0.366999014999692 0.46946751343429405 0.28285295554469947
0.3671882710000318 0.47239863214460187 0.3053248656570591
0.3673780279996208 0.47435271128480694 0.32681973619931615
0.3675671549999606 0.4802149487054226 0.3434294088910601
0.3677562630000466 0.47923790913532005 0.35710796287249624
0.3679450199997518 0.47923790913532005 0.36980947728383007
0.3681343690000176 0.4782608695652173 0.3707865168539326
0.3683243109999239 0.4753297508549097 0.3678553981436248
0.3685143269999571 0.47239863214460187 0.358085002442599
0.3687035829998422 0.4733756717147044 0.3414753297508548
0.36889322899969557 0.47142159257449934 0.33463605276013686
0.3690824479999719 0.4665363947239862 0.33170493404982904
0.36927250099961384 0.46946751343429405 0.3287738153395212
0.36946196099961526 0.4655593551538837 0.3424523693209576
0.3696511619996272 0.46262823644357587 0.34636052760136793
0.369840288999967 0.46165119687347334 0.3561309233023937
0.3700304720000531 0.46458231558378116 0.3678553981436248
0.37022098799980085 0.4636052760136786 0.37274059599413767
0.3704090589999396 0.4636052760136786 0.3834880312652662
0.37059727899986683 0.46165119687347334 0.3981436248168051
0.37078566499985754 0.46165119687347334 0.4040058622374205
0.37097451399995407 0.45969711773326827 0.4157303370786516
0.3711637889996382 0.4557889594528579 0.4284318514899854
0.37135237899974527 0.4538348803126526 0.4382022471910112
0.3715405240000109 0.4538348803126526 0.44894968246213973
0.3717295589999594 0.44894968246213973 0.45969711773326827
0.3719179449999501 0.4528578407425501 0.467513434294089
0.37210621999975046 0.4557889594528579 0.4763067904250122
0.37229505100003735 0.4538348803126526 0.4811919882755251
0.37248358499982714 0.4538348803126526 0.4880312652662433
0.3726731009996911 0.4557889594528579 0.48998534440644836
0.37286152399974526 0.457743038593063 0.4938935026868587
0.37305055899969375 0.4557889594528579 0.49682462139716654
0.37323894499968446 0.4557889594528579 0.49682462139716654
0.3734280899998339 0.4557889594528579 0.49877870053737183
0.3736166249996131 0.4509037616023448 0.5065950170981925
0.37380608499961454 0.4528578407425501 0.5144113336590133
0.37399454499973217 0.4509037616023448 0.5202735710796287
0.37419130199987194 0.4479726428920372 0.5280898876404494
0.3743907799998851 0.4430874450415241 0.5349291646311676
0.3745803329998125 0.4401563263312165 0.5417684416218858
0.3747700899998563 0.441133365901319 0.5495847581827065
0.37495975399997405 0.441133365901319 0.5544699560332194
0.3751484179997533 0.4430874450415241 0.5603321934538348
0.3753377299999556 0.44211040547142155 0.5730337078651686
0.375527282999883 0.44406448461162684 0.58866634098681
0.3757172239997999 0.4430874450415241 0.5984367366878358
0.3759071659997062 0.4450415241817294 0.605276013678554
0.37609642300003543 0.4430874450415241 0.6150464093795798
0.3762854389997301 0.4450415241817294 0.6248168050806058
0.3764742139996997 0.44992672203224227 0.631656082071324
0.37666328499972224 0.4450415241817294 0.6375183194919394
0.3768528010000409 0.44699560332193444 0.6414264777723497
0.3770420020000529 0.4450415241817294 0.6424035173424523
0.3772312209998745 0.4460185637518319 0.6453346360527601
0.37742073699973844 0.441133365901319 0.6424035173424523
0.3776105120000466 0.4401563263312165 0.6345872007816316
0.37779976899992107 0.441133365901319 0.6365412799218368
0.3779896920000283 0.43917928676111373 0.6248168050806058
0.37817911499996626 0.441133365901319 0.6140693698094772
0.3783772609999687 0.43917928676111373 0.605276013678554
0.37856672099997013 0.44211040547142155 0.5818270639960919
0.3787553479996859 0.4401563263312165 0.5632633121641426
0.3789453079998566 0.43722520762090866 0.5427454811919883
0.37913508299971 0.43429408891060084 0.5212506106497312
0.3793245990000287 0.43429408891060084 0.5056179775280898
0.37951341100006175 0.4333170493404983 0.5026868588177822
0.3797030010000526 0.431362970200293 0.5017098192476794
0.37989234999986365 0.4303859306301905 0.5017098192476794
0.38008199599971704 0.4303859306301905 0.5046409379579873
0.3802713820000463 0.4255007327796776 0.495847581827064
0.3804604349998044 0.42452369320957506 0.46946751343429405
0.3806526909997956 0.42452369320957506 0.4333170493404983
0.3808430219996808 0.42452369320957506 0.38739618954567656
0.38103277899972454 0.4264777723497801 0.3336590131900341
0.38122270199983177 0.42452369320957506 0.2877381533952126
0.381413161999717 0.4303859306301905 0.25744992672203226
0.38160289999996166 0.431362970200293 0.24474841231069866
0.38179335999984687 0.431362970200293 0.2613580850024426
0.38198424699976385 0.431362970200293 0.27503663898387876
0.3821761509998396 0.4333170493404983 0.30727894479726436
0.3823750739998104 0.4333170493404983 0.3434294088910601
0.3825651089996427 0.43429408891060084 0.376648754274548
0.38275471699989794 0.43624816805080613 0.3981436248168051
0.38294456599987825 0.43917928676111373 0.4157303370786516
0.3831342489997951 0.44211040547142155 0.42256961406936977
0.3833232459996907 0.4479726428920372 0.42452369320957506
0.3835131139999248 0.44406448461162684 0.4157303370786516
0.38370218499994735 0.4460185637518319 0.40986809965803617
0.3838919229997373 0.44894968246213973 0.403028822667318
0.3840810869996858 0.44894968246213973 0.38641914997557403
0.384270787999867 0.4538348803126526 0.3776257938446508
0.3844603409997944 0.45676599902296044 0.37274059599413767
0.3846498939997218 0.46262823644357587 0.3629702002931119
0.3848393359999136 0.457743038593063 0.36199316072300936
0.38502846299979865 0.45676599902296044 0.3639472398632144
0.38521833000004335 0.4587200781631655 0.3629702002931119
0.3854077349997169 0.4655593551538837 0.3707865168539326
0.3855967879999298 0.45969711773326827 0.3805569125549584
0.3857863409998572 0.45676599902296044 0.38935026868588185
0.38597656000001734 0.457743038593063 0.39423546653639474
0.38616609499968035 0.4606741573033708 0.40009770395701016
0.38635735099978774 0.4606741573033708 0.4010747435271129
0.3865467749997151 0.4636052760136786 0.3981436248168051
0.3867361239999809 0.46458231558378116 0.3932584269662922
0.38692500999968615 0.4655593551538837 0.3883732291157791
0.38711463699974047 0.467513434294089 0.3854421104054715
0.38730352299990045 0.4684904738641915 0.3776257938446508
0.3874927429997115 0.4704445530043966 0.36687835857352225
0.3876814440000089 0.47435271128480694 0.35710796287249624
0.38787079299981997 0.47142159257449934 0.36003908158280407
0.3880602529998214 0.4763067904250122 0.36199316072300936
0.38825000999986514 0.47435271128480694 0.3629702002931119
0.38843946999986656 0.4753297508549097 0.3688324377137273
0.3886280409997198 0.47239863214460187 0.37274059599413767
0.38881942699981664 0.4763067904250122 0.3776257938446508
0.3890094619996489 0.47728382999511476 0.3805569125549584
0.38919894099990415 0.4753297508549097 0.38739618954567656
0.38938788199993724 0.4753297508549097 0.3913043478260869
0.38957621300005485 0.4782608695652173 0.3952125061064973
0.3897654509996755 0.47923790913532005 0.39423546653639474
0.38995424499989895 0.4811919882755251 0.38935026868588185
0.3901442789997418 0.47923790913532005 0.3932584269662922
0.3903332759996374 0.47239863214460187 0.39716658524670256
0.39052192200006175 0.47435271128480694 0.3952125061064973
0.39070984499994665 0.4753297508549097 0.39716658524670256
0.39089837899973645 0.47239863214460187 0.403028822667318
0.3910869879996426 0.47239863214460187 0.4108451392281387
0.39127546700001403 0.4684904738641915 0.4186614557889594
0.39146402000005764 0.4684904738641915 0.4264777723497801
0.3916531089998898 0.467513434294089 0.4323400097703958
0.39184149599986995 0.4636052760136786 0.43917928676111373
0.3920296779997443 0.46165119687347334 0.4450415241817294
0.3922185639999043 0.4587200781631655 0.4528578407425501
0.3924076729999797 0.457743038593063 0.45969711773326827
0.39259668899967437 0.45188080117244755 0.47239863214460187
0.3927855189999718 0.45188080117244755 0.4811919882755251
0.3929743129997405 0.44992672203224227 0.4909623839765511
0.39316329199982647 0.45188080117244755 0.49877870053737183
0.39335199299966916 0.4509037616023448 0.5007327796775769
0.3935412309997446 0.4430874450415241 0.5075720566682951
0.3937300799998411 0.44211040547142155 0.5183194919394236
0.39391876299987416 0.441133365901319 0.5300439667806547
0.39411270399978093 0.43917928676111373 0.5456765999022961
0.39431064599966703 0.4401563263312165 0.5554469956033219
0.39449980999961554 0.4382022471910112 0.5603321934538348
0.3946893629999977 0.43722520762090866 0.5701025891548608
0.3948785079996924 0.4352711284807034 0.578895945285784
0.39506785699995817 0.4382022471910112 0.5837811431362969
0.395257539999875 0.4401563263312165 0.5847581827063997
0.3954470929998024 0.4352711284807034 0.5818270639960919
0.39563616399982493 0.43429408891060084 0.578895945285784
0.39582625399998506 0.43722520762090866 0.5730337078651686
0.396015547999923 0.4352711284807034 0.5652173913043479
0.3962043229998926 0.4382022471910112 0.5622862725940401
0.39639356099996803 0.43722520762090866 0.5613092330239375
0.39658261399972616 0.4333170493404983 0.5613092330239375
0.39677196299999196 0.4352711284807034 0.5642403517342451
0.39696159000004627 0.43429408891060084 0.5642403517342451
0.39715095699966696 0.4333170493404983 0.5661944308744504
0.3973403069999222 0.42745481191988266 0.5583781143136297
0.39752934099988124 0.4303859306301905 0.5515388373229115
0.3977193749997241 0.431362970200293 0.5388373229115779
0.39790913199976785 0.43429408891060084 0.5134342940889105
0.3980990179998116 0.4333170493404983 0.4909623839765511
0.39829732999987755 0.43429408891060084 0.4704445530043966
0.39848719799965693 0.4333170493404983 0.4606741573033708
0.3986763249999967 0.4303859306301905 0.4528578407425501
0.39886611799965976 0.4323400097703958 0.45676599902296044
0.39905572699990444 0.4323400097703958 0.4587200781631655
0.3992451499998424 0.4323400097703958 0.4655593551538837
0.39943498100001307 0.431362970200293 0.46946751343429405
0.39962406999984523 0.431362970200293 0.4665363947239862
0.3998131230000581 0.4303859306301905 0.4733756717147044
0.40000239799974224 0.4303859306301905 0.46458231558378116
0.4001922109996485 0.4235466536394723 0.46458231558378116
0.40038152299985086 0.4264777723497801 0.4665363947239862
0.4005708719996619 0.4284318514899854 0.4733756717147044
0.4007601649996104 0.4303859306301905 0.47435271128480694
0.40095025499977055 0.4323400097703958 0.4763067904250122
0.4011395299999094 0.43917928676111373 0.47923790913532005
0.40132845399966754 0.43722520762090866 0.4753297508549097
0.40151746999981697 0.4430874450415241 0.47239863214460187
0.40170650399977603 0.44406448461162684 0.4655593551538837
0.40189581599997837 0.4479726428920372 0.467513434294089
0.40208568399975775 0.44699560332193444 0.467513434294089
0.40228279199982353 0.44699560332193444 0.46262823644357587
0.40247293699985676 0.44894968246213973 0.4665363947239862
0.4026619899996149 0.44894968246213973 0.47142159257449934
0.4028510799998912 0.4479726428920372 0.47142159257449934
0.40304117000005135 0.45188080117244755 0.4733756717147044
0.4032301119996191 0.45676599902296044 0.4763067904250122
0.4034194609998849 0.44894968246213973 0.4782608695652173
0.40360819899979106 0.4509037616023448 0.4763067904250122
0.40379667799970775 0.4587200781631655 0.4733756717147044
0.40398585999992065 0.457743038593063 0.467513434294089
0.40417472799981624 0.46262823644357587 0.45969711773326827
0.40436372499971185 0.4684904738641915 0.4528578407425501
0.40455422299964994 0.4684904738641915 0.44894968246213973
0.4047439609998946 0.4733756717147044 0.4430874450415241
0.4049327539996739 0.4811919882755251 0.4382022471910112
0.40512226999999257 0.4753297508549097 0.42940889106008795
0.4053108230000362 0.4753297508549097 0.42452369320957506
0.4054995980000058 0.4704445530043966 0.4176844162188569
0.4056889659996159 0.4684904738641915 0.4040058622374205
0.40587825900001917 0.467513434294089 0.3903273082559844
0.40606820099992547 0.4684904738641915 0.3678553981436248
0.4062580499999058 0.4606741573033708 0.34636052760136793
0.4064479919998121 0.4684904738641915 0.31998045920859797
0.4066371189996971 0.46458231558378116 0.3004396678065462
0.40682641299963507 0.4636052760136786 0.2867611138251098
0.40701631699994323 0.46262823644357587 0.27699071812408405
0.4072062779996486 0.46262823644357587 0.26722032242305804
0.4073957939999673 0.4655593551538837 0.2584269662921348
0.4075853089998418 0.4684904738641915 0.2525647288715194
0.4077748069998961 0.4665363947239862 0.2613580850024426
0.4079648219999399 0.47142159257449934 0.27210552027357116
0.40815433799980383 0.4704445530043966 0.28480703468490476
0.40834424299964667 0.47142159257449934 0.3014167073766487
0.40853392600001825 0.4704445530043966 0.31900341963849543
0.40872360799994567 0.46946751343429405 0.3336590131900341
0.40891319799993653 0.47239863214460187 0.34733756717147046
0.409102898999663 0.47239863214460187 0.36003908158280407
0.40929237799991824 0.4733756717147044 0.37274059599413767
0.4094820789996447 0.47142159257449934 0.38153395212506114
0.4096723170000587 0.47142159257449934 0.38446507083536874
0.40986194399965825 0.4733756717147044 0.38739618954567656
0.4100513849998606 0.4763067904250122 0.3932584269662922
0.41024091999997836 0.47435271128480694 0.3981436248168051
0.4104294909998316 0.47435271128480694 0.4079140205178309
0.4106178959996214 0.47435271128480694 0.412799218368344
0.41080618999967555 0.47435271128480694 0.4157303370786516
0.41099490899978264 0.46946751343429405 0.42745481191988266
0.4111833509996359 0.46946751343429405 0.4382022471910112
0.4113717369996266 0.4655593551538837 0.44894968246213973
0.41156010499980766 0.4655593551538837 0.45969711773326827
0.4117483429999993 0.46262823644357587 0.4684904738641915
0.41193715500003236 0.457743038593063 0.4782608695652173
0.4121260409997376 0.4587200781631655 0.48216902784562765
0.41231424199986577 0.457743038593063 0.4880312652662433
0.4125032949996239 0.457743038593063 0.4938935026868587
0.41269194100004825 0.45676599902296044 0.5026868588177822
0.41288038199991206 0.45969711773326827 0.5144113336590133
0.413069990999702 0.4587200781631655 0.5134342940889105
0.4132591549996505 0.45969711773326827 0.5212506106497312
0.4134478930000114 0.457743038593063 0.5300439667806547
0.413636982999833 0.45676599902296044 0.5359062042012701
0.41382555399968624 0.45481191988275516 0.5476306790425012
0.4140148289998251 0.4528578407425501 0.5554469956033219
0.4142178629999762 0.45188080117244755 0.5613092330239375
0.41440832399985084 0.44894968246213973 0.5661944308744504
0.41459807999990517 0.4479726428920372 0.5749877870053737
0.41478724399985367 0.4479726428920372 0.5749877870053737
0.4149761859998762 0.4479726428920372 0.5740107474352711
0.41516516499996214 0.4450415241817294 0.578895945285784
0.41535423599998467 0.4460185637518319 0.5720566682950659
0.41554302999975334 0.4460185637518319 0.5749877870053737
0.41573248999975476 0.4430874450415241 0.5691255495847583
0.41592137599991474 0.4430874450415241 0.5564240351734244
0.4161103919996094 0.4450415241817294 0.5368832437713726
0.4162998889996743 0.44406448461162684 0.5202735710796287
0.41648910899994007 0.441133365901319 0.49975574010747437
0.4166794769998887 0.43429408891060084 0.47923790913532005
0.4168685849999747 0.4323400097703958 0.46165119687347334
0.4170579709998492 0.4303859306301905 0.4528578407425501
0.4172469869999986 0.4303859306301905 0.4528578407425501
0.41743644700000004 0.4255007327796776 0.46946751343429405
0.41762548199994853 0.4255007327796776 0.4811919882755251
0.4178145900000345 0.4235466536394723 0.4929164631167562
0.418003846999909 0.4255007327796776 0.5105031753786029
0.41820043600000645 0.4264777723497801 0.5085490962383976
0.41839150799978597 0.42745481191988266 0.5183194919394236
0.4185808939996605 0.42745481191988266 0.5134342940889105
0.41877072499983115 0.4284318514899854 0.512457254518808
0.4189598329999171 0.42940889106008795 0.5114802149487054
0.41914912699985507 0.4303859306301905 0.5144113336590133
0.4193384759996661 0.431362970200293 0.5173424523693209
0.4195278069996675 0.4323400097703958 0.5153883732291158
0.41971704499974294 0.4323400097703958 0.522227650219834
0.41990655999961746 0.43429408891060084 0.5280898876404494
0.4200964839997141 0.43917928676111373 0.5329750854909623
0.420285665999927 0.43722520762090866 0.5300439667806547
0.4204752929999813 0.43624816805080613 0.5300439667806547
0.4206662899996445 0.4401563263312165 0.5251587689301416
0.4208613619998687 0.4401563263312165 0.5153883732291158
0.42105332199980694 0.4450415241817294 0.5036638983878847
0.42124365299969213 0.4460185637518319 0.495847581827064
0.42143274199997904 0.45188080117244755 0.47923790913532005
0.42162266599962095 0.4528578407425501 0.4733756717147044
0.4218124219996753 0.4509037616023448 0.46165119687347334
0.42200271599995176 0.4538348803126526 0.45481191988275516
0.4221998979996897 0.4538348803126526 0.44699560332193444
0.4223915809998289 0.4538348803126526 0.441133365901319
0.42258085599996775 0.45188080117244755 0.43722520762090866
0.4227702609996413 0.4538348803126526 0.43722520762090866
0.4229592579999917 0.4538348803126526 0.4333170493404983
0.42314827399968635 0.4557889594528579 0.44406448461162684
0.4233373079996454 0.4538348803126526 0.4333170493404983
0.4235262130000592 0.45188080117244755 0.4284318514899854
0.4237162289996377 0.4528578407425501 0.42745481191988266
0.4239050219998717 0.4538348803126526 0.4186614557889594
0.4240943159998096 0.4538348803126526 0.40889106008793363
0.42428399799973704 0.4557889594528579 0.39912066438690763
0.42447384699971735 0.4509037616023448 0.39228138739618945
0.42466356699969765 0.4479726428920372 0.38446507083536874
0.42485313799988944 0.4450415241817294 0.38153395212506114
0.4250427099996159 0.4430874450415241 0.3756717147044455
0.4252322259999346 0.44406448461162684 0.3707865168539326
0.4254213340000206 0.4450415241817294 0.37176355642403514
0.42561064599976817 0.44699560332193444 0.37176355642403514
0.4258001250000234 0.4460185637518319 0.37176355642403514
0.42598917799978153 0.4479726428920372 0.3737176355642404
0.42617832299993097 0.44894968246213973 0.3707865168539326
0.4263762279997536 0.44894968246213973 0.37176355642403514
0.42656507699985013 0.4587200781631655 0.3678553981436248
0.42675353699996776 0.4557889594528579 0.3639472398632144
0.4269427750000432 0.46165119687347334 0.3639472398632144
0.42713171699961094 0.4606741573033708 0.3629702002931119
0.4273212139996758 0.4655593551538837 0.36199316072300936
0.42751000799989924 0.4665363947239862 0.3610161211529066
0.4276988019996679 0.467513434294089 0.36003908158280407
0.42788765099976445 0.4704445530043966 0.3610161211529066
0.4280768519997764 0.47142159257449934 0.3610161211529066
0.42826649699964037 0.47239863214460187 0.3610161211529066
0.4284556799998427 0.4733756717147044 0.3610161211529066
0.42864471399980175 0.48216902784562765 0.3629702002931119
0.4288343039997926 0.47142159257449934 0.36492427943331696
0.4290237089999209 0.47142159257449934 0.3678553981436248
0.4292136509998272 0.46946751343429405 0.3688324377137273
0.42940272199984975 0.4704445530043966 0.3707865168539326
0.42959220099965023 0.467513434294089 0.36980947728383007
0.42978151299985257 0.46946751343429405 0.36980947728383007
0.4299709359997905 0.4684904738641915 0.3688324377137273
0.4301608779996968 0.4684904738641915 0.37274059599413767
0.4303500789997088 0.4684904738641915 0.37957987298485585
0.43053944699977365 0.4684904738641915 0.3883732291157791
0.43072851799979617 0.467513434294089 0.39716658524670256
0.4309170339997763 0.4704445530043966 0.40693698094772834
0.43110604999992574 0.47142159257449934 0.4176844162188569
0.4312947879998319 0.4665363947239862 0.42940889106008795
0.43148421099976986 0.46262823644357587 0.44211040547142155
0.4316733010000462 0.4636052760136786 0.45188080117244755
0.43186203899995235 0.45969711773326827 0.46165119687347334
0.43205059199999596 0.45969711773326827 0.467513434294089
0.4322392740000396 0.457743038593063 0.4753297508549097
0.43242914199981897 0.4587200781631655 0.4782608695652173
0.4326183250000213 0.4557889594528579 0.4802149487054226
0.4328069879998111 0.457743038593063 0.48216902784562765
0.43299574499997107 0.45969711773326827 0.48412310698583294
0.43318522399977155 0.45969711773326827 0.4831460674157304
0.4333737399997517 0.46165119687347334 0.4811919882755251
0.43356286699963675 0.45969711773326827 0.4851001465559355
0.4337519379996593 0.457743038593063 0.4831460674157304
0.4339407129996289 0.4538348803126526 0.48705422569614076
0.43413085899965154 0.44894968246213973 0.48998534440644836
0.43432133699980113 0.44699560332193444 0.4938935026868587
0.4345118349997392 0.441133365901319 0.49682462139716654
0.4347015729999839 0.43917928676111373 0.4978016609672691
0.4348914959996364 0.43917928676111373 0.5056179775280898
0.43508143799999743 0.4352711284807034 0.5163654127992183
0.4352717130000201 0.4352711284807034 0.5232046897899365
0.43546167299973604 0.4323400097703958 0.5319980459208598
0.43565185599982215 0.43429408891060084 0.5368832437713726
0.4358415009996861 0.4323400097703958 0.540791402051783
0.4360311279997404 0.4333170493404983 0.5446995603321934
0.4362205699999322 0.4323400097703958 0.5476306790425012
0.4364098080000076 0.43429408891060084 0.5515388373229115
0.4365995639996072 0.43429408891060084 0.5593551538837322
0.4367893019998519 0.431362970200293 0.5622862725940401
0.436978132999684 0.4323400097703958 0.5642403517342451
0.43716814899971723 0.4323400097703958 0.5661944308744504
0.43735807199982446 0.4255007327796776 0.5730337078651686
0.4375479949999317 0.4264777723497801 0.5701025891548608
0.43773745599992253 0.42745481191988266 0.5661944308744504
0.4379276749996279 0.4255007327796776 0.5701025891548608
0.43811867199974586 0.42940889106008795 0.5613092330239375
0.4383105029996841 0.42745481191988266 0.5574010747435272
0.43850037099991823 0.42745481191988266 0.5486077186126037
0.4386900719996447 0.4284318514899854 0.5398143624816805
0.4388795879999634 0.4284318514899854 0.5280898876404494
0.4390694740000072 0.4303859306301905 0.522227650219834
0.4392591010000615 0.431362970200293 0.5095261358085001
0.4394494499997563 0.4303859306301905 0.49877870053737183
0.4396393359998001 0.4303859306301905 0.49682462139716654
0.43982885199966404 0.4352711284807034 0.48998534440644836
0.44001842299985583 0.4303859306301905 0.4938935026868587
0.4402078459997938 0.4284318514899854 0.4880312652662433
0.4403974919996472 0.4333170493404983 0.49193942354665365
0.4405868229996486 0.4323400097703958 0.4909623839765511
0.44077650500003074 0.4333170493404983 0.4851001465559355
0.44096589099990524 0.4382022471910112 0.48216902784562765
0.4411551849998432 0.4323400097703958 0.47239863214460187
0.44134470099970713 0.43429408891060084 0.4684904738641915
0.441534512999624 0.43624816805080613 0.4606741573033708
0.4417237509996994 0.441133365901319 0.45481191988275516
0.4419130259998383 0.441133365901319 0.4538348803126526
0.4421024859998397 0.4401563263312165 0.44699560332193444
0.44230724299995927 0.44211040547142155 0.4479726428920372
0.4424973319996752 0.4401563263312165 0.4587200781631655
0.44268719999990935 0.4430874450415241 0.44894968246213973
0.4428767899999002 0.44406448461162684 0.4479726428920372
0.4430660469997747 0.4430874450415241 0.4479726428920372
0.4432549879998078 0.44699560332193444 0.44894968246213973
0.4434437639997668 0.44699560332193444 0.4450415241817294
0.44363285300005373 0.44699560332193444 0.4430874450415241
0.44382153599963203 0.44894968246213973 0.4323400097703958
0.44401106999976037 0.4557889594528579 0.42452369320957506
0.4442006969998147 0.4587200781631655 0.42159257449926724
0.44439036099993245 0.46262823644357587 0.41182217879824123
0.4445794879998175 0.4636052760136786 0.412799218368344
0.44476855999982945 0.4636052760136786 0.4108451392281387
0.44495785299977797 0.467513434294089 0.4059599413776258
0.4451467949998005 0.46946751343429405 0.3981436248168051
0.4453364959999817 0.46946751343429405 0.3952125061064973
0.44552654899962363 0.467513434294089 0.38935026868588185
0.44571641599986833 0.4665363947239862 0.3903273082559844
0.4459063949998381 0.4636052760136786 0.38641914997557403
0.44609554099997695 0.4606741573033708 0.3786028334147533
0.44629600099960953 0.46262823644357587 0.37176355642403514
0.44648653499962165 0.4655593551538837 0.36199316072300936
0.44667673599997215 0.4665363947239862 0.35710796287249624
0.44686660399975153 0.4665363947239862 0.3551538837322912
0.4470562679998693 0.4684904738641915 0.3502686858817783
0.4472461539999131 0.4733756717147044 0.34440644846116264
0.4474356880000414 0.47435271128480694 0.34733756717147046
0.447625092999715 0.4763067904250122 0.3453834880312652
0.4478149609999491 0.4753297508549097 0.34440644846116264
0.4480035879996649 0.47728382999511476 0.3531998045920859
0.4481937890000154 0.47239863214460187 0.3610161211529066
0.44838319299969953 0.47239863214460187 0.3707865168539326
0.44857254299995475 0.4753297508549097 0.37469467513434296
0.44876168799964944 0.47923790913532005 0.38153395212506114
0.44895161099975667 0.4782608695652173 0.38739618954567656
0.449141459999737 0.47435271128480694 0.39228138739618945
0.44933097600005567 0.4753297508549097 0.3903273082559844
0.4495206589999725 0.47728382999511476 0.38935026868588185
0.44971084099961445 0.4733756717147044 0.38153395212506114
0.4499001159997533 0.4733756717147044 0.38739618954567656
0.4500900210000509 0.47435271128480694 0.3903273082559844
0.45028853699977844 0.47435271128480694 0.3961895456765998
0.4504780339998433 0.4733756717147044 0.4010747435271129
0.45066734600004565 0.47142159257449934 0.40986809965803617
0.4508564549996663 0.4684904738641915 0.4176844162188569
0.45104552599968883 0.4655593551538837 0.4264777723497801
0.45123409699999684 0.46262823644357587 0.43917928676111373
0.4514232799997444 0.45969711773326827 0.44894968246213973
0.4516123879998304 0.4606741573033708 0.4606741573033708
0.4518015519997789 0.46165119687347334 0.47239863214460187
0.45199077200004467 0.45969711773326827 0.4753297508549097
0.45218002799992973 0.4587200781631655 0.47728382999511476
0.45236935899993114 0.46165119687347334 0.4763067904250122
0.4525579859996469 0.457743038593063 0.467513434294089
0.4527469459999338 0.45676599902296044 0.4528578407425501
0.4529355729996496 0.457743038593063 0.42940889106008795
0.4531242369998836 0.457743038593063 0.41475329750854906
0.4533149379999486 0.457743038593063 0.39716658524670256
0.4535046019996116 0.45481191988275516 0.39228138739618945
0.45369367399962357 0.44992672203224227 0.3932584269662922
0.453883040999699 0.44699560332193444 0.4040058622374205
0.45407166799986953 0.4450415241817294 0.42159257449926724
0.45426212899974416 0.4450415241817294 0.4430874450415241
0.45445199599998887 0.4430874450415241 0.45969711773326827
0.4546422159996837 0.4401563263312165 0.4665363947239862
0.45483226899978035 0.4401563263312165 0.48412310698583294
0.45502213600002506 0.43722520762090866 0.495847581827064
0.4552121149999948 0.43624816805080613 0.5114802149487054
0.45540138999967894 0.43722520762090866 0.5192965315095261
0.4555912949999765 0.44211040547142155 0.5319980459208598
0.45578027399960774 0.441133365901319 0.5349291646311676
0.45596930800002156 0.4382022471910112 0.5417684416218858
0.45615915700000187 0.4382022471910112 0.5476306790425012
0.45634854299987637 0.43722520762090866 0.5486077186126037
0.45653841099965575 0.43624816805080613 0.5583781143136297
0.4567274449996148 0.43429408891060084 0.5622862725940401
0.45691709099992295 0.43624816805080613 0.5642403517342451
0.4571057359999031 0.4352711284807034 0.5720566682950659
0.4572952149997036 0.441133365901319 0.5759648265754762
0.45748413799992704 0.4333170493404983 0.5730337078651686
0.45767445000001317 0.43429408891060084 0.5740107474352711
0.45786416999999346 0.43624816805080613 0.5710796287249633
0.45805340799961414 0.43722520762090866 0.5642403517342451
0.4582434609997108 0.4382022471910112 0.5622862725940401
0.45843267999998716 0.4352711284807034 0.5486077186126037
0.45862232599984054 0.43917928676111373 0.540791402051783
0.45881232299961994 0.43722520762090866 0.5368832437713726
0.45900180199987517 0.43722520762090866 0.5319980459208598
0.45919098499962274 0.43917928676111373 0.5290669272105519
0.4593807409996771 0.4401563263312165 0.5271128480703469
0.4595705349997843 0.43722520762090866 0.5319980459208598
0.459760402000029 0.43624816805080613 0.5359062042012701
0.4599492329998611 0.4352711284807034 0.5349291646311676
0.4601389529998414 0.4333170493404983 0.533952125061065
0.46032800499961013 0.431362970200293 0.5368832437713726
0.4605178550000346 0.43722520762090866 0.5290669272105519
0.4607068519999302 0.43624816805080613 0.5232046897899365
0.46089708999988943 0.43722520762090866 0.5144113336590133
0.46108732799984864 0.43917928676111373 0.5105031753786029
0.4612775099999453 0.44406448461162684 0.49877870053737183
0.46146782300002087 0.44406448461162684 0.4909623839765511
0.4616576720000012 0.4430874450415241 0.4811919882755251
0.46184770599984404 0.44894968246213973 0.47239863214460187
0.46203779600000416 0.44406448461162684 0.46262823644357587
0.46222849699961444 0.4430874450415241 0.4509037616023448
0.4624176979996264 0.44894968246213973 0.4450415241817294
0.46260728799961726 0.45188080117244755 0.43624816805080613
0.4627967479996187 0.44699560332193444 0.43429408891060084
0.4629867270000432 0.44699560332193444 0.4382022471910112
0.4631758349996744 0.44992672203224227 0.4333170493404983
0.46336498099981327 0.45188080117244755 0.43722520762090866
0.4635539409996454 0.45188080117244755 0.4401563263312165
0.4637433089997103 0.4557889594528579 0.43722520762090866
0.4639335279998704 0.45969711773326827 0.43624816805080613
0.4641238029998931 0.4636052760136786 0.4284318514899854
0.46431346700001086 0.4655593551538837 0.42452369320957506
0.4645033169999806 0.4665363947239862 0.4235466536394723
0.46469320300002437 0.4665363947239862 0.41963849535906195
0.4648826630000258 0.467513434294089 0.4176844162188569
0.46507223399976283 0.47142159257449934 0.41670737664875435
0.4652623609999864 0.467513434294089 0.41475329750854906
0.46577514999989944 0.4655593551538837 0.40009770395701016
0.4660134619998644 0.4655593551538837 0.3805569125549584
0.4662216809997517 0.4665363947239862 0.3659013190034197
0.4664339369996924 0.4655593551538837 0.33952125061064975
0.46666563799999494 0.46458231558378116 0.3141182217879823
0.46688061599979847 0.46458231558378116 0.3004396678065462
0.4670862240000133 0.467513434294089 0.2887151929653151
0.46742107099998975 0.4665363947239862 0.28285295554469947
0.4676707720000195 0.467513434294089 0.29262335124572547
0.4678630099997463 0.46946751343429405 0.29946262823644365
0.4680543219997162 0.46946751343429405 0.30239374694675125
0.46824363399991853 0.47435271128480694 0.3053248656570591
0.4684338529996239 0.467513434294089 0.3053248656570591
0.46862355399980515 0.47142159257449934 0.3082559843673669
0.4688125329998911 0.46946751343429405 0.3141182217879823
0.46900125299998763 0.46946751343429405 0.32486565705911086
0.46918969499984087 0.467513434294089 0.3365901319003419
0.46937850699987393 0.4704445530043966 0.35417684416218864
0.46956648499963194 0.4733756717147044 0.3786028334147533
0.46987173999968945 0.47142159257449934 0.3932584269662922
0.4701335699996889 0.47239863214460187 0.40986809965803617
0.470340751999629 0.47239863214460187 0.431362970200293
0.4705315090000113 0.4763067904250122 0.43429408891060084
0.47072261699986484 0.4704445530043966 0.4430874450415241
0.47091194799986624 0.46946751343429405 0.45188080117244755
0.47110072299983585 0.467513434294089 0.4538348803126526
0.47128981299965744 0.4655593551538837 0.46165119687347334
0.47147943999971176 0.46458231558378116 0.4509037616023448
0.47166843699960737 0.46165119687347334 0.44211040547142155
0.47185724899964043 0.46262823644357587 0.431362970200293
0.4720458389997475 0.45969711773326827 0.42452369320957506
0.4722348549998969 0.4587200781631655 0.4235466536394723
0.4724237410000569 0.467513434294089 0.42745481191988266
0.47261196099998415 0.45676599902296044 0.43624816805080613
0.47280095799987976 0.4538348803126526 0.44406448461162684
0.47299023300001863 0.45676599902296044 0.4538348803126526
0.4731780079996497 0.45676599902296044 0.4684904738641915
0.4733664499999577 0.4528578407425501 0.4733756717147044
