0 0.457743038593063 0.45481191988275516
0.000478787999782071 0.4528578407425501 0.47239863214460187
0.0012301089996071823 0.43917928676111373 0.48998534440644836
0.0014376429999174434 0.441133365901319 0.4948705422569615
0.001628491999781545 0.44211040547142155 0.5036638983878847
0.0018186559996138385 0.4401563263312165 0.5105031753786029
0.002006800999879488 0.4401563263312165 0.5114802149487054
0.0021938899999440764 0.43917928676111373 0.5144113336590133
0.002380960999744275 0.4352711284807034 0.5163654127992183
0.0025692729996080743 0.4352711284807034 0.5173424523693209
0.0027562329996726476 0.4333170493404983 0.5163654127992183
0.0029430259996843233 0.4333170493404983 0.5114802149487054
0.003128856999865093 0.431362970200293 0.5114802149487054
0.0033165390000249317 0.431362970200293 0.512457254518808
0.0035019990000364487 0.42940889106008795 0.5144113336590133
0.003687495999656676 0.431362970200293 0.5144113336590133
0.003873918999943271 0.43429408891060084 0.5134342940889105
0.004061063999870385 0.4303859306301905 0.5163654127992183
0.0042801159997907234 0.4284318514899854 0.5163654127992183
0.004468186999929458 0.4255007327796776 0.5202735710796287
0.004653979999602598 0.4206155349291647 0.5202735710796287
0.004840754999804631 0.4206155349291647 0.5183194919394236
0.005026103999625775 0.4206155349291647 0.5212506106497312
0.005211489999965124 0.41475329750854906 0.5183194919394236
0.0053978019996065996 0.4176844162188569 0.5183194919394236
0.005584520999946108 0.41963849535906195 0.5202735710796287
0.005770406999999977 0.4206155349291647 0.5212506106497312
0.0059560339996096445 0.42159257449926724 0.5183194919394236
0.006142733999695338 0.4186614557889594 0.5183194919394236
0.006342323999888322 0.41963849535906195 0.5163654127992183
0.006543319999764208 0.4176844162188569 0.5144113336590133
0.006755464999969263 0.4186614557889594 0.5056179775280898
0.0071997909999481635 0.42256961406936977 0.4606741573033708
0.00849565899989102 0.44894968246213973 0.4479726428920372
0.009148259999619768 0.44894968246213973 0.44211040547142155
0.009462217999953282 0.4479726428920372 0.43722520762090866
0.009679454999968584 0.44406448461162684 0.43624816805080613
0.009888099999898259 0.4460185637518319 0.43624816805080613
0.010088948999964487 0.4460185637518319 0.4382022471910112
0.010294926999904419 0.44699560332193444 0.43624816805080613
0.010497552999822801 0.441133365901319 0.4382022471910112
0.010703475999889633 0.4450415241817294 0.4382022471910112
0.010905620999892562 0.44992672203224227 0.43722520762090866
0.01110283999969397 0.4528578407425501 0.4401563263312165
0.011299225999664486 0.4538348803126526 0.4450415241817294
0.011506999999710388 0.4636052760136786 0.45481191988275516
0.01172418199985259 0.4587200781631655 0.47239863214460187
0.012074971999936679 0.46262823644357587 0.47728382999511476
0.012291838999772153 0.46458231558378116 0.4811919882755251
0.013076603999707004 0.46458231558378116 0.47142159257449934
0.013359747999857063 0.46458231558378116 0.45969711773326827
0.013749259999713104 0.46946751343429405 0.4382022471910112
0.014197493999745348 0.47435271128480694 0.4284318514899854
0.014418434999697638 0.4733756717147044 0.4157303370786516
0.014622228000007453 0.47435271128480694 0.4010747435271129
0.014825279999968188 0.4782608695652173 0.3883732291157791
0.015028146999611636 0.47239863214460187 0.3737176355642404
0.01522766199968828 0.4704445530043966 0.34733756717147046
0.015427566999733244 0.4704445530043966 0.3238886174890083
0.015632210999683593 0.47142159257449934 0.28480703468490476
0.016000186999917787 0.4636052760136786 0.26722032242305804
0.01623377599980813 0.457743038593063 0.25744992672203226
0.01644479099968521 0.46165119687347334 0.2584269662921348
0.016653676999794698 0.45481191988275516 0.2681973619931608
0.016854691999924398 0.45969711773326827 0.27699071812408405
0.01706613299984383 0.46458231558378116 0.29946262823644365
0.017268666999825655 0.46458231558378116 0.31900341963849543
0.017463737999605655 0.47239863214460187 0.3424523693209576
0.01766030899989346 0.467513434294089 0.36003908158280407
0.017857101999652514 0.4684904738641915 0.38251099169516367
0.018057246999887866 0.4733756717147044 0.40693698094772834
0.018258576999869547 0.46165119687347334 0.42452369320957506
0.018457611000030738 0.4587200781631655 0.43722520762090866
0.018654717999652348 0.4587200781631655 0.45188080117244755
0.018851659999654657 0.4538348803126526 0.46262823644357587
0.019054841999604832 0.45188080117244755 0.46946751343429405
0.019266522999714653 0.4528578407425501 0.47142159257449934
0.019470038999770622 0.4450415241817294 0.47142159257449934
0.01966355399963504 0.44699560332193444 0.4704445530043966
0.019866254999669763 0.4509037616023448 0.46165119687347334
0.020067361999736022 0.4450415241817294 0.4587200781631655
0.0202810259997932 0.44211040547142155 0.45676599902296044
0.020482596999954694 0.4460185637518319 0.46165119687347334
0.020687704000010854 0.441133365901319 0.4733756717147044
0.020886941999833653 0.44211040547142155 0.47923790913532005
0.021088383000005706 0.4460185637518319 0.48998534440644836
0.021294712999861076 0.4382022471910112 0.5026868588177822
0.021499505999599933 0.441133365901319 0.5105031753786029
0.021700707000036346 0.441133365901319 0.512457254518808
0.021906554999986838 0.441133365901319 0.5183194919394236
0.022112903999641276 0.4430874450415241 0.5212506106497312
0.022316955999940546 0.44699560332193444 0.522227650219834
0.022522674999891024 0.4528578407425501 0.5134342940889105
0.022733170999799768 0.45188080117244755 0.5065950170981925
0.022941187000014907 0.457743038593063 0.49682462139716654
0.02314510899986999 0.45676599902296044 0.4909623839765511
0.02334899499965104 0.4557889594528579 0.48216902784562765
0.023556213999654574 0.4509037616023448 0.48705422569614076
0.023764228999880288 0.44894968246213973 0.4948705422569615
0.023973132999799418 0.4460185637518319 0.5026868588177822
0.024205258999700163 0.4430874450415241 0.5095261358085001
0.024413329999788402 0.43917928676111373 0.5183194919394236
0.024617011999907845 0.4401563263312165 0.5192965315095261
0.024821692999921652 0.4352711284807034 0.5212506106497312
0.025023893999787106 0.4333170493404983 0.5183194919394236
0.025222982999821397 0.43429408891060084 0.5202735710796287
0.025421757999993133 0.4323400097703958 0.5202735710796287
0.025617846999921312 0.4333170493404983 0.5202735710796287
0.025827584999660758 0.4284318514899854 0.5134342940889105
0.026051173999803723 0.4333170493404983 0.5085490962383976
0.026254595999944286 0.4255007327796776 0.5046409379579873
0.0264524449999044 0.4255007327796776 0.5046409379579873
0.026653089999854274 0.4255007327796776 0.5095261358085001
0.02684888299972954 0.42159257449926724 0.5095261358085001
0.027042064999932336 0.42256961406936977 0.512457254518808
0.027236487999743986 0.40986809965803617 0.5085490962383976
0.02743855899962 0.40986809965803617 0.5046409379579873
0.027642073999686545 0.40889106008793363 0.5046409379579873
0.02783882999983689 0.4079140205178309 0.49877870053737183
0.028032956999595626 0.4108451392281387 0.4938935026868587
0.028229138999904535 0.412799218368344 0.486077186126038
0.028425469000012527 0.4157303370786516 0.4782608695652173
0.028622520999761036 0.41963849535906195 0.47239863214460187
0.02882183299971075 0.41963849535906195 0.4655593551538837
0.029044939999948838 0.4206155349291647 0.46165119687347334
0.029256622000048083 0.41963849535906195 0.4509037616023448
0.029451934000007896 0.4235466536394723 0.4450415241817294
0.02964357899963943 0.4303859306301905 0.4401563263312165
0.02984181700003319 0.4323400097703958 0.43624816805080613
0.030035257999770693 0.43624816805080613 0.4303859306301905
0.030232920999878843 0.43917928676111373 0.43429408891060084
0.030659284999728698 0.46262823644357587 0.4264777723497801
0.03092765099972894 0.4684904738641915 0.4206155349291647
0.031170887999905972 0.47923790913532005 0.41670737664875435
0.031371995999961655 0.4811919882755251 0.4137762579384465
0.03157751099979578 0.486077186126038 0.40986809965803617
0.03178359999992608 0.4880312652662433 0.4108451392281387
0.0319865229998868 0.4880312652662433 0.4049829018075233
0.032216778000019985 0.4909623839765511 0.40889106008793363
0.03308954199974323 0.4704445530043966 0.4186614557889594
0.03358308999986548 0.47142159257449934 0.4108451392281387
0.03415396999980658 0.47435271128480694 0.38446507083536874
0.03491301299982297 0.4557889594528579 0.37469467513434296
0.03602793899972312 0.4479726428920372 0.37957987298485585
0.03637215599974297 0.45676599902296044 0.3786028334147533
0.03667320699969423 0.467513434294089 0.38641914997557403
0.03693288799968286 0.4704445530043966 0.3903273082559844
0.037148476999846025 0.4684904738641915 0.40009770395701016
0.03735956599985002 0.46165119687347334 0.40986809965803617
0.03774772699989626 0.457743038593063 0.43624816805080613
0.03808164699967165 0.44699560332193444 0.46458231558378116
0.038474732999929984 0.441133365901319 0.4753297508549097
0.038692099999934726 0.43917928676111373 0.4811919882755251
0.03889650399969469 0.4401563263312165 0.4831460674157304
0.03910422299986749 0.4450415241817294 0.4880312652662433
0.039427995999631094 0.45188080117244755 0.4938935026868587
0.0398729519997687 0.4538348803126526 0.4929164631167562
0.040352906999942206 0.44406448461162684 0.49877870053737183
0.040657697999904485 0.4450415241817294 0.5466536394723986
0.04219650699997146 0.4557889594528579 0.5329750854909623
0.0427307390000351 0.457743038593063 0.522227650219834
0.04314032499996756 0.4538348803126526 0.5065950170981925
0.04349520799996753 0.44894968246213973 0.49975574010747437
0.04370422399961171 0.4430874450415241 0.5026868588177822
0.04390449799984708 0.4401563263312165 0.4929164631167562
0.04410614299968074 0.4382022471910112 0.4929164631167562
0.044313898999917 0.43429408891060084 0.4978016609672691
0.04451833999974042 0.42940889106008795 0.5046409379579873
0.0447184289996585 0.4264777723497801 0.5105031753786029
0.044919334000042 0.42256961406936977 0.5095261358085001
0.045120829999632406 0.42159257449926724 0.5075720566682951
0.04532258599965644 0.42256961406936977 0.5056179775280898
0.04552376799983904 0.42256961406936977 0.49682462139716654
0.045731412999884924 0.42159257449926724 0.48216902784562765
0.04593611399968722 0.4255007327796776 0.457743038593063
0.04614594399981797 0.4235466536394723 0.4323400097703958
0.04633632900004159 0.4264777723497801 0.4206155349291647
0.04652377100001104 0.42452369320957506 0.4059599413776258
0.046711008999864134 0.4264777723497801 0.40205178309721545
0.04689719099997092 0.4284318514899854 0.3961895456765998
0.04708402100004605 0.4303859306301905 0.39228138739618945
0.04738123899960556 0.4323400097703958 0.4059599413776258
0.047992672999953356 0.43917928676111373 0.4186614557889594
0.048222002999864344 0.44406448461162684 0.4333170493404983
0.048803789999965375 0.441133365901319 0.45969711773326827
0.04906450799990125 0.44211040547142155 0.4733756717147044
0.049509759999637026 0.44406448461162684 0.47239863214460187
0.049851013999614224 0.4479726428920372 0.47435271128480694
0.05011778699963543 0.44406448461162684 0.4753297508549097
0.050363838999601285 0.44699560332193444 0.4733756717147044
0.05057698399969013 0.45188080117244755 0.4684904738641915
0.05077551699969263 0.45481191988275516 0.4636052760136786
0.05097830999966391 0.4557889594528579 0.4528578407425501
0.051181362999614066 0.45676599902296044 0.4479726428920372
0.051379211000039504 0.4684904738641915 0.43917928676111373
0.05158648599990556 0.4636052760136786 0.4333170493404983
0.051812871000038285 0.46458231558378116 0.4323400097703958
0.05208142199990107 0.46458231558378116 0.4176844162188569
0.052761634000034974 0.4587200781631655 0.4049829018075233
0.05335262399967178 0.4606741573033708 0.4049829018075233
0.05375782099963544 0.45969711773326827 0.4049829018075233
0.05406844599974647 0.4606741573033708 0.40205178309721545
0.054304515999774594 0.4655593551538837 0.3981436248168051
0.05449845799967079 0.4655593551538837 0.38446507083536874
0.05469771399975798 0.4655593551538837 0.38153395212506114
0.054885432999981276 0.4665363947239862 0.3707865168539326
0.05507535599963376 0.46458231558378116 0.3678553981436248
0.055265611999857356 0.46946751343429405 0.358085002442599
0.0554574979996687 0.4733756717147044 0.3639472398632144
0.05564601299965943 0.46946751343429405 0.37176355642403514
0.05583421399978761 0.46946751343429405 0.3737176355642404
0.05602402599970446 0.47142159257449934 0.3854421104054715
0.05622111499997118 0.4636052760136786 0.39912066438690763
0.05641627899967716 0.46946751343429405 0.4108451392281387
0.05660538699976314 0.4665363947239862 0.4206155349291647
0.056797994999669754 0.467513434294089 0.42940889106008795
0.056993231999967975 0.47142159257449934 0.43624816805080613
0.05718909999995958 0.47142159257449934 0.4460185637518319
0.05738228199970763 0.4684904738641915 0.4528578407425501
0.057573889999730454 0.46946751343429405 0.457743038593063
0.05776692399967942 0.467513434294089 0.4636052760136786
0.05795960599971295 0.46458231558378116 0.467513434294089
0.05815252899992629 0.4636052760136786 0.46946751343429405
0.0583442849997482 0.46262823644357587 0.4704445530043966
0.058537281999633706 0.46165119687347334 0.47435271128480694
0.05872955599988927 0.45969711773326827 0.47239863214460187
0.05892149800001789 0.4606741573033708 0.47142159257449934
0.059115734999977576 0.4587200781631655 0.4655593551538837
0.05932004699980098 0.45969711773326827 0.4704445530043966
0.059546727999986615 0.4587200781631655 0.4733756717147044
0.0597668169998542 0.46165119687347334 0.47142159257449934
0.05998742499969012 0.4538348803126526 0.4733756717147044
0.06023519899963503 0.45188080117244755 0.46458231558378116
0.06045908399983091 0.4528578407425501 0.45676599902296044
0.06066558099973918 0.44894968246213973 0.44894968246213973
0.06086637399994288 0.44894968246213973 0.43722520762090866
0.06107462999989366 0.43722520762090866 0.4401563263312165
0.061512104000030376 0.43722520762090866 0.4479726428920372
0.061919282999951974 0.4352711284807034 0.46262823644357587
0.06217711199997211 0.4352711284807034 0.4802149487054226
0.06238333099963711 0.43429408891060084 0.49682462139716654
0.06257404999996652 0.4333170493404983 0.5085490962383976
0.06276114000002053 0.4323400097703958 0.5163654127992183
0.06295167400003265 0.4323400097703958 0.5261358085002443
0.06313996699964264 0.4352711284807034 0.5271128480703469
0.06332664899991869 0.4352711284807034 0.5359062042012701
0.06351340499986691 0.4352711284807034 0.5368832437713726
0.0637044390000483 0.431362970200293 0.5388373229115779
0.06393615799970576 0.431362970200293 0.5417684416218858
0.06460581399960574 0.4255007327796776 0.540791402051783
0.06487201299978551 0.4264777723497801 0.5310210063507572
0.06507899099960923 0.431362970200293 0.5300439667806547
0.06527446999962194 0.4323400097703958 0.5310210063507572
0.065494280999701 0.4303859306301905 0.522227650219834
0.06569538899975669 0.431362970200293 0.5173424523693209
0.06763635799961776 0.4352711284807034 0.4606741573033708
0.06918822199986607 0.4450415241817294 0.4557889594528579
0.06952349399989544 0.441133365901319 0.4509037616023448
0.06978221199960899 0.43917928676111373 0.4528578407425501
0.07005431899960968 0.4401563263312165 0.44699560332193444
0.0707116789999418 0.44699560332193444 0.4264777723497801
0.07109632099991359 0.44992672203224227 0.412799218368344
0.07133472399982566 0.4587200781631655 0.3981436248168051
0.0715264059999754 0.4557889594528579 0.3913043478260869
0.07171581099964897 0.4587200781631655 0.38251099169516367
0.07190504799973496 0.46165119687347334 0.376648754274548
0.07209258199964097 0.457743038593063 0.3756717147044455
0.07232278199990105 0.46262823644357587 0.3707865168539326
0.07251050199965903 0.4557889594528579 0.3834880312652662
0.07270260999985112 0.45969711773326827 0.3854421104054715
0.07289021799988404 0.45676599902296044 0.3903273082559844
0.07308164100004433 0.45969711773326827 0.3961895456765998
0.07326934100001381 0.4606741573033708 0.3981436248168051
0.07345678299998326 0.45969711773326827 0.40009770395701016
0.07364272399991023 0.4587200781631655 0.3981436248168051
0.07382942499998535 0.457743038593063 0.4010747435271129
0.0740166999999019 0.4587200781631655 0.39912066438690763
0.07420284499994523 0.45676599902296044 0.39912066438690763
0.07438945299963962 0.45969711773326827 0.39716658524670256
0.07457572799967238 0.457743038593063 0.38739618954567656
0.07476324299977932 0.4557889594528579 0.3854421104054715
0.07494955499987555 0.4557889594528579 0.3854421104054715
0.07513584799971795 0.45188080117244755 0.38153395212506114
0.07532245599986709 0.45676599902296044 0.37957987298485585
0.07550910199961436 0.45969711773326827 0.38251099169516367
0.07569541299972116 0.4606741573033708 0.38935026868588185
0.07588233599972227 0.45969711773326827 0.39423546653639474
0.07607453699984035 0.4606741573033708 0.4059599413776258
0.07629442200004632 0.46458231558378116 0.4137762579384465
0.07650006699986989 0.467513434294089 0.4206155349291647
0.07670430500002112 0.4704445530043966 0.4157303370786516
0.07689202399978967 0.4733756717147044 0.4137762579384465
0.0770927609996761 0.47435271128480694 0.4079140205178309
0.07730325800002902 0.4763067904250122 0.4010747435271129
0.07750651399965136 0.4763067904250122 0.4040058622374205
0.07771267699990858 0.4733756717147044 0.39716658524670256
0.07790458199997374 0.4733756717147044 0.39912066438690763
0.07809348599994337 0.4733756717147044 0.4049829018075233
0.07828087199959555 0.4733756717147044 0.4137762579384465
0.07847366499981945 0.46946751343429405 0.4264777723497801
0.07866332899993722 0.46946751343429405 0.44211040547142155
0.07885152899962122 0.4733756717147044 0.4509037616023448
0.07904026699998212 0.47142159257449934 0.4684904738641915
0.0792274489999727 0.4753297508549097 0.4763067904250122
0.07941461299969887 0.46946751343429405 0.4909623839765511
0.07960255399984817 0.4684904738641915 0.49193942354665365
0.0797895509999762 0.47142159257449934 0.4909623839765511
0.07997804799970254 0.4704445530043966 0.48900830483634583
0.08068035199994483 0.4587200781631655 0.47239863214460187
0.08098219899966352 0.4509037616023448 0.4811919882755251
0.08119467699998495 0.44406448461162684 0.48900830483634583
0.08140015499975561 0.4401563263312165 0.49193942354665365
0.08161154099980195 0.4352711284807034 0.5026868588177822
0.08181144499985749 0.4303859306301905 0.512457254518808
0.0820015159997638 0.4255007327796776 0.5192965315095261
0.08219366100001935 0.42159257449926724 0.5202735710796287
0.08238226899993606 0.42256961406936977 0.5261358085002443
0.0825705439997364 0.4206155349291647 0.5202735710796287
0.08275752199961062 0.4255007327796776 0.5251587689301416
0.08294864899971799 0.42745481191988266 0.5173424523693209
0.08315453399973194 0.42940889106008795 0.512457254518808
0.08334723500001928 0.4323400097703958 0.5105031753786029
0.08353452799974548 0.4352711284807034 0.5065950170981925
0.08372098799964078 0.43917928676111373 0.5075720566682951
0.08390804099963134 0.441133365901319 0.5075720566682951
0.08409639000001334 0.4430874450415241 0.512457254518808
0.08431151599961595 0.44406448461162684 0.512457254518808
0.08450086499988174 0.4382022471910112 0.5095261358085001
0.08468754699970305 0.44211040547142155 0.5134342940889105
0.08487409899998966 0.4401563263312165 0.5153883732291158
0.08505989299965222 0.43624816805080613 0.5134342940889105
0.08525005599994984 0.4303859306301905 0.512457254518808
0.0854443309999624 0.43429408891060084 0.5153883732291158
0.08563027199988937 0.43624816805080613 0.5095261358085001
0.08581725099975301 0.4352711284807034 0.5046409379579873
0.08600878499964892 0.43429408891060084 0.5056179775280898
0.08621354099977907 0.4284318514899854 0.5075720566682951
0.08640570399984426 0.4264777723497801 0.5075720566682951
0.08659449799961294 0.4255007327796776 0.5026868588177822
0.08678179099979388 0.4206155349291647 0.5036638983878847
0.08696882499998537 0.42256961406936977 0.49877870053737183
0.08715737700003956 0.42452369320957506 0.4938935026868587
0.08734352299961756 0.4284318514899854 0.48216902784562765
0.08753003799984072 0.43429408891060084 0.4782608695652173
0.08771631299987348 0.4382022471910112 0.467513434294089
0.08790258799990625 0.4430874450415241 0.4557889594528579
0.08808819599971685 0.44894968246213973 0.44992672203224227
0.08829885899967849 0.457743038593063 0.44699560332193444
0.08849087499993402 0.46165119687347334 0.4460185637518319
0.08868018599969218 0.46262823644357587 0.4401563263312165
0.08887109099987356 0.4665363947239862 0.4460185637518319
0.08907638399978168 0.4684904738641915 0.4450415241817294
0.08932099100002233 0.4665363947239862 0.44406448461162684
0.08954424699959418 0.46458231558378116 0.441133365901319
0.08979144599970823 0.45481191988275516 0.44406448461162684
0.09003473899974779 0.45188080117244755 0.4479726428920372
0.09027349400003004 0.4479726428920372 0.44211040547142155
0.0905294529998173 0.4450415241817294 0.4323400097703958
0.09079357799964782 0.44699560332193444 0.40889106008793363
0.0913667169998007 0.44699560332193444 0.40009770395701016
0.09156521399972917 0.4450415241817294 0.39716658524670256
0.09175691499967797 0.44992672203224227 0.39912066438690763
0.09194646699961595 0.4528578407425501 0.39423546653639474
0.09213555699989229 0.4538348803126526 0.39228138739618945
0.09232770199969309 0.4528578407425501 0.3903273082559844
0.09251819899964175 0.457743038593063 0.3932584269662922
0.09270860299966444 0.46165119687347334 0.39423546653639474
0.09289811899998313 0.4636052760136786 0.39423546653639474
0.09308731900000566 0.46458231558378116 0.3932584269662922
0.09327779799968994 0.46262823644357587 0.3883732291157791
0.093466831999649 0.4636052760136786 0.38641914997557403
0.09365632899971388 0.4665363947239862 0.38935026868588185
0.09385121399964191 0.47142159257449934 0.3903273082559844
0.09404115600000296 0.4704445530043966 0.3903273082559844
0.09423200499986706 0.4704445530043966 0.38641914997557403
0.09442092699964633 0.47923790913532005 0.39228138739618945
0.09461064699962662 0.47728382999511476 0.39423546653639474
0.09480049499961751 0.47239863214460187 0.40009770395701016
0.0949903999999151 0.47239863214460187 0.40009770395701016
0.09517969299986362 0.4684904738641915 0.40205178309721545
0.09536885699981212 0.4684904738641915 0.4059599413776258
0.09555839099994046 0.47142159257449934 0.412799218368344
0.0957519619996674 0.47435271128480694 0.412799218368344
0.09594143999993321 0.47142159257449934 0.4137762579384465
0.09613076999994519 0.46946751343429405 0.4176844162188569
0.09632091499997841 0.47239863214460187 0.42256961406936977
0.09650987499981056 0.4733756717147044 0.4137762579384465
0.09669911299988598 0.4733756717147044 0.4137762579384465
0.09688809199997195 0.4753297508549097 0.412799218368344
0.0970794219997515 0.4753297508549097 0.4108451392281387
0.09727030799967906 0.4753297508549097 0.4079140205178309
0.09746026799984975 0.47435271128480694 0.40693698094772834
0.09764963499992518 0.47142159257449934 0.39423546653639474
0.09783981700002187 0.47239863214460187 0.38739618954567656
0.09802849899961075 0.4704445530043966 0.38739618954567656
0.09821716299984473 0.4655593551538837 0.3883732291157791
0.09840660400004708 0.4606741573033708 0.3952125061064973
0.09859676799987938 0.4606741573033708 0.40205178309721545
0.09878587599996536 0.45969711773326827 0.41475329750854906
0.09897757599992474 0.45676599902296044 0.4255007327796776
0.09916825899972537 0.45481191988275516 0.43917928676111373
0.09936716299989712 0.4509037616023448 0.4538348803126526
0.09955840099974012 0.44992672203224227 0.46458231558378116
0.0997469529997943 0.4450415241817294 0.46458231558378116
0.09993559799977447 0.44406448461162684 0.4704445530043966
0.10012518799976533 0.4430874450415241 0.4753297508549097
0.1003174439997565 0.44211040547142155 0.47728382999511476
0.10050631099966267 0.4479726428920372 0.48216902784562765
0.10069591899991792 0.43722520762090866 0.4909623839765511
0.10088624999980311 0.43722520762090866 0.49975574010747437
0.10114252299990767 0.43722520762090866 0.522227650219834
0.10178427199980433 0.431362970200293 0.5417684416218858
0.1020681009999862 0.4284318514899854 0.5476306790425012
0.10230074499986586 0.42745481191988266 0.5525158768930141
0.10252644499996677 0.4303859306301905 0.5525158768930141
0.10272320199965179 0.4323400097703958 0.5515388373229115
0.10291406899978028 0.4303859306301905 0.5495847581827065
0.10310412099988753 0.42940889106008795 0.5495847581827065
0.10329554400004781 0.431362970200293 0.5466536394723986
0.1034889109996584 0.42940889106008795 0.5495847581827065
0.10367868599996655 0.431362970200293 0.5486077186126037
0.10386942399964028 0.43429408891060084 0.5466536394723986
0.10405904999970517 0.4352711284807034 0.5456765999022961
0.10428013899991129 0.43722520762090866 0.5417684416218858
0.10447172899966972 0.441133365901319 0.5417684416218858
0.1046652809995976 0.4352711284807034 0.5310210063507572
0.10485668599994824 0.43917928676111373 0.5300439667806547
0.10504618300001312 0.44211040547142155 0.5261358085002443
0.10523654999997234 0.4382022471910112 0.5212506106497312
0.10542702799966719 0.44211040547142155 0.5192965315095261
0.10561698799983787 0.43917928676111373 0.5095261358085001
0.10581089299967061 0.4352711284807034 0.5105031753786029
0.10600294500000018 0.4352711284807034 0.5017098192476794
0.10619238699973721 0.4382022471910112 0.495847581827064
0.106382179999855 0.4333170493404983 0.4938935026868587
0.10657184299998335 0.4303859306301905 0.4929164631167562
0.10676215499961472 0.43429408891060084 0.4929164631167562
0.10695178199966904 0.42940889106008795 0.486077186126038
0.10714253799960716 0.42745481191988266 0.47142159257449934
0.10733397900003183 0.4303859306301905 0.4587200781631655
0.10752493899963156 0.4323400097703958 0.4382022471910112
0.10771513999998206 0.43429408891060084 0.4186614557889594
0.10790787799987811 0.4352711284807034 0.40693698094772834
0.10809833699977389 0.43624816805080613 0.39912066438690763
0.10828900099977545 0.43917928676111373 0.39423546653639474
0.10847840499991435 0.43722520762090866 0.3932584269662922
0.1086677729999792 0.441133365901319 0.4040058622374205
0.1088579919996846 0.4450415241817294 0.41182217879824123
0.1090467849999186 0.4401563263312165 0.4176844162188569
0.10923530099989875 0.44406448461162684 0.4323400097703958
0.10942407499987894 0.44699560332193444 0.44211040547142155
0.10961309100002836 0.4460185637518319 0.44992672203224227
0.10980269899982886 0.44992672203224227 0.46262823644357587
0.10999397399973532 0.44894968246213973 0.4606741573033708
0.11018472999967344 0.44992672203224227 0.47142159257449934
0.11037439299980178 0.44894968246213973 0.47142159257449934
0.11056396399999358 0.45188080117244755 0.4665363947239862
0.11075901699996393 0.4509037616023448 0.46262823644357587
0.11094945799959532 0.4538348803126526 0.45481191988275516
0.11114013999986128 0.4509037616023448 0.4479726428920372
0.11133024799983104 0.4528578407425501 0.4450415241817294
0.1115196159998959 0.4538348803126526 0.43917928676111373
0.1117094459996224 0.4538348803126526 0.431362970200293
0.11189868399969782 0.4587200781631655 0.4303859306301905
0.1120876249997309 0.46262823644357587 0.4264777723497801
0.11228067799993369 0.457743038593063 0.4333170493404983
0.11247076699964964 0.45676599902296044 0.43429408891060084
0.11266089399987322 0.457743038593063 0.441133365901319
0.11285035399987464 0.457743038593063 0.44894968246213973
0.1130396649996328 0.4587200781631655 0.45481191988275516
0.1132401069999105 0.4606741573033708 0.45969711773326827
0.11344212199992398 0.4606741573033708 0.45969711773326827
0.11371893199975602 0.45969711773326827 0.44699560332193444
0.11398405799991451 0.4684904738641915 0.441133365901319
0.11418249899998045 0.47142159257449934 0.42452369320957506
0.11437142199974915 0.47435271128480694 0.4079140205178309
0.11455964099968696 0.47728382999511476 0.3883732291157791
0.11474821199999496 0.47239863214460187 0.376648754274548
0.11493491299961534 0.4782608695652173 0.36492427943331696
0.11512292799989154 0.47728382999511476 0.3551538837322912
0.11530899899980795 0.47923790913532005 0.34636052760136793
0.11549738499979867 0.4831460674157304 0.3414753297508548
0.11568488199964122 0.4763067904250122 0.34636052760136793
0.11590078599965636 0.47923790913532005 0.3385442110405472
0.11609006099979524 0.47728382999511476 0.33952125061064975
0.1162995019999471 0.4811919882755251 0.3258426966292134
0.11648620300002221 0.4763067904250122 0.31216414264777725
0.11667269999998098 0.47923790913532005 0.28285295554469947
0.11685825199992905 0.4753297508549097 0.2633121641426477
0.11704369399967618 0.4704445530043966 0.24767953102100626
0.11723009799970896 0.46946751343429405 0.2437713727405959
0.11741657699985808 0.467513434294089 0.2525647288715194
0.11760249999997541 0.47142159257449934 0.26722032242305804
0.11778890400000819 0.47142159257449934 0.2906692721055202
0.11797510499991404 0.4665363947239862 0.31900341963849543
0.1181627309997566 0.46262823644357587 0.34733756717147046
0.11834874699979991 0.4665363947239862 0.3786028334147533
0.11853581799960011 0.4636052760136786 0.4040058622374205
0.1187343889996555 0.46458231558378116 0.42940889106008795
0.11892064499988919 0.4606741573033708 0.44699560332193444
0.1191080119997423 0.45676599902296044 0.46165119687347334
0.1192952499995954 0.4528578407425501 0.47435271128480694
0.1194819689999349 0.44894968246213973 0.4851001465559355
0.11966926299965053 0.4450415241817294 0.4909623839765511
0.1198554630000217 0.441133365901319 0.49975574010747437
0.12004188599985355 0.43722520762090866 0.5036638983878847
0.12026949399978548 0.43429408891060084 0.5144113336590133
0.12046984199969302 0.431362970200293 0.5183194919394236
0.1206597469999906 0.431362970200293 0.5290669272105519
0.12084868800002369 0.4352711284807034 0.5349291646311676
0.12103587000001426 0.4284318514899854 0.5398143624816805
0.12122218199965573 0.4303859306301905 0.5398143624816805
0.12140880899960393 0.43722520762090866 0.5398143624816805
0.12159502799977417 0.43624816805080613 0.5417684416218858
0.12178200699963782 0.4333170493404983 0.5427454811919883
0.12196868899991387 0.4382022471910112 0.5437225207620908
0.1221559079999679 0.43917928676111373 0.5437225207620908
0.12234262699985265 0.43722520762090866 0.540791402051783
0.12252980899984323 0.43917928676111373 0.5378602833414754
0.12271619499961162 0.43917928676111373 0.5329750854909623
0.12290252599996165 0.4382022471910112 0.533952125061065
0.12309320799977286 0.44211040547142155 0.5300439667806547
0.12327974199979508 0.43917928676111373 0.5271128480703469
0.1234674049997011 0.43624816805080613 0.5261358085002443
0.12365510599966001 0.4401563263312165 0.5232046897899365
0.1238438249997671 0.4382022471910112 0.5232046897899365
0.12403052599984221 0.4382022471910112 0.5232046897899365
0.12422252299984393 0.43917928676111373 0.524181729360039
0.12441148299967608 0.43917928676111373 0.522227650219834
0.12459799799989923 0.43624816805080613 0.5192965315095261
0.12478423599986854 0.43429408891060084 0.522227650219834
0.12497084400001768 0.4333170493404983 0.5192965315095261
0.12515724900003988 0.441133365901319 0.522227650219834
0.12534309700004087 0.43722520762090866 0.5212506106497312
0.12552963199959777 0.431362970200293 0.5192965315095261
0.12571536899986313 0.4333170493404983 0.522227650219834
0.12590053299982173 0.4352711284807034 0.5173424523693209
0.12608678899960069 0.43429408891060084 0.5153883732291158
0.12627263800004584 0.43429408891060084 0.512457254518808
0.12645800499967663 0.4333170493404983 0.5095261358085001
0.12664446500002668 0.43917928676111373 0.5095261358085001
0.12683081399973162 0.4303859306301905 0.5075720566682951
0.12701629299999695 0.4303859306301905 0.5075720566682951
0.12720217899959607 0.4323400097703958 0.5075720566682951
0.12738860199988267 0.42940889106008795 0.5026868588177822
0.12757467299979908 0.4323400097703958 0.49877870053737183
0.12776078099977894 0.43722520762090866 0.4948705422569615
0.12794714799974827 0.4401563263312165 0.48705422569614076
0.12813286699974924 0.44406448461162684 0.47923790913532005
0.1283197529996869 0.44406448461162684 0.47142159257449934
0.12850545399987823 0.4450415241817294 0.46458231558378116
0.12869228399995336 0.4450415241817294 0.46165119687347334
0.12887798499968994 0.441133365901319 0.4587200781631655
0.12906474099963816 0.4430874450415241 0.45481191988275516
0.12925127499966038 0.44211040547142155 0.4509037616023448
0.1294377539998095 0.44211040547142155 0.44699560332193444
0.1296243809997577 0.4450415241817294 0.44211040547142155
0.12981980299991847 0.44699560332193444 0.4382022471910112
0.1300068369996552 0.4479726428920372 0.43429408891060084
0.1301931859998149 0.4460185637518319 0.4284318514899854
0.13037984999982655 0.44699560332193444 0.4235466536394723
0.13056623599959494 0.44992672203224227 0.41475329750854906
0.13075188099992374 0.45481191988275516 0.41670737664875435
0.13093743399986124 0.45481191988275516 0.4079140205178309
0.1311227080000208 0.46165119687347334 0.41475329750854906
0.13130820499964102 0.457743038593063 0.4108451392281387
0.1314947949999805 0.46165119687347334 0.40986809965803617
0.13168105099975946 0.4606741573033708 0.4108451392281387
0.13186673299969698 0.46262823644357587 0.4079140205178309
0.13205330399978266 0.4636052760136786 0.4059599413776258
0.13225791199965897 0.4655593551538837 0.39912066438690763
0.1324453719998928 0.4655593551538837 0.39912066438690763
0.13263396199999988 0.45969711773326827 0.39423546653639474
0.13282231099992714 0.46165119687347334 0.39716658524670256
0.13300862200003394 0.4606741573033708 0.38641914997557403
0.13319691599963335 0.457743038593063 0.38935026868588185
0.1333868199999415 0.45969711773326827 0.3834880312652662
0.13357390999999552 0.4704445530043966 0.38446507083536874
0.1337607399996159 0.4636052760136786 0.38739618954567656
0.13394712599983905 0.4636052760136786 0.38935026868588185
0.1341329560000304 0.46262823644357587 0.3834880312652662
0.13431895299981989 0.4636052760136786 0.3805569125549584
0.13451665399998092 0.46262823644357587 0.38251099169516367
0.1347070949996123 0.46262823644357587 0.3805569125549584
0.13489377699988836 0.46165119687347334 0.37957987298485585
0.13507984799980477 0.46262823644357587 0.3786028334147533
0.1352664940000068 0.4636052760136786 0.3776257938446508
0.13545206499975393 0.4636052760136786 0.376648754274548
0.13563915399981852 0.4636052760136786 0.3756717147044455
0.1358254849997138 0.4655593551538837 0.37469467513434296
0.1360113519999686 0.46262823644357587 0.3776257938446508
0.13619927499985351 0.467513434294089 0.3659013190034197
0.1363866980000239 0.4665363947239862 0.36199316072300936
0.1366065089996482 0.46946751343429405 0.3551538837322912
0.1367977099998825 0.4704445530043966 0.34929164631167553
0.13698446599983072 0.4684904738641915 0.34636052760136793
0.13717105599971546 0.4665363947239862 0.348314606741573
0.13735696000003372 0.46262823644357587 0.3512457254518808
0.13754358699998193 0.4606741573033708 0.358085002442599
0.13773032399967633 0.45969711773326827 0.37176355642403514
0.1379168399998889 0.45481191988275516 0.3883732291157791
0.13810530000000654 0.457743038593063 0.40693698094772834
0.1382924079998702 0.45676599902296044 0.42452369320957506
0.13847905299962804 0.4587200781631655 0.43722520762090866
0.1386651239999992 0.4587200781631655 0.4479726428920372
0.1388511209997887 0.4636052760136786 0.44992672203224227
0.13903646999960984 0.46458231558378116 0.44992672203224227
0.13922281899976952 0.4684904738641915 0.45969711773326827
0.13940918599973884 0.4665363947239862 0.46262823644357587
0.13959633099966595 0.46946751343429405 0.4684904738641915
0.1397821059999842 0.4655593551538837 0.48216902784562765
0.1399685479996151 0.467513434294089 0.4851001465559355
0.1401550259997748 0.4665363947239862 0.4938935026868587
0.14035654199960845 0.46946751343429405 0.5095261358085001
0.1405472049996206 0.46458231558378116 0.5202735710796287
0.1407370169999922 0.467513434294089 0.5310210063507572
0.1409264579997398 0.4684904738641915 0.5437225207620908
0.1411160109996672 0.4763067904250122 0.5456765999022961
0.14130561899992244 0.4763067904250122 0.5525158768930141
0.1414957819997653 0.48216902784562765 0.5495847581827065
0.1416852239999571 0.4811919882755251 0.5476306790425012
0.14187538699979996 0.4851001465559355 0.5437225207620908
0.14206457000000228 0.47728382999511476 0.5437225207620908
0.14225414099973932 0.4733756717147044 0.5378602833414754
0.1424435259996244 0.46458231558378116 0.5310210063507572
0.1426328200000171 0.4587200781631655 0.5280898876404494
0.14282240900001852 0.44992672203224227 0.5271128480703469
0.14301222099993538 0.441133365901319 0.5251587689301416
0.1432026809998206 0.4323400097703958 0.5290669272105519
0.143392362999748 0.41963849535906195 0.5319980459208598
0.14358234199971776 0.4108451392281387 0.5349291646311676
0.143772837999677 0.4040058622374205 0.533952125061065
0.14396253899985822 0.39716658524670256 0.5310210063507572
0.14415144399981727 0.3952125061064973 0.5290669272105519
0.144354495999778 0.39423546653639474 0.5280898876404494
0.14454488199999105 0.4010747435271129 0.5183194919394236
0.1447341929997492 0.4049829018075233 0.5153883732291158
0.14492326399977173 0.41182217879824123 0.5134342940889105
0.14511237299984714 0.41963849535906195 0.5105031753786029
0.14530120299968985 0.4235466536394723 0.5144113336590133
0.14549056999976528 0.4303859306301905 0.5163654127992183
0.1456796409997878 0.43624816805080613 0.5134342940889105
0.1458688599996094 0.43722520762090866 0.512457254518808
0.14605841299999156 0.44211040547142155 0.5075720566682951
0.14624868800001423 0.4382022471910112 0.4978016609672691
0.14644785099972069 0.43722520762090866 0.4938935026868587
0.1466404779998811 0.43624816805080613 0.4909623839765511
0.14682984499995655 0.4333170493404983 0.49193942354665365
0.14701867499979926 0.4303859306301905 0.4909623839765511
0.1472090610000123 0.42745481191988266 0.49193942354665365
0.14739790999965408 0.4284318514899854 0.4948705422569615
0.14758848099972965 0.431362970200293 0.4802149487054226
0.1477782929996465 0.4303859306301905 0.4655593551538837
0.14796777099991232 0.431362970200293 0.4557889594528579
0.14815704599959645 0.4333170493404983 0.44406448461162684
0.1483601719996841 0.43722520762090866 0.42745481191988266
0.14855353899974943 0.43917928676111373 0.4186614557889594
0.1487448879997828 0.44211040547142155 0.4157303370786516
0.1489346809999006 0.441133365901319 0.412799218368344
0.1491234559998702 0.4450415241817294 0.4137762579384465
0.149311767999734 0.44894968246213973 0.41963849535906195
0.14949980199980928 0.4460185637518319 0.42452369320957506
0.1496877989998211 0.44699560332193444 0.4255007327796776
0.1498778699997274 0.44992672203224227 0.4323400097703958
0.15006775599977118 0.4479726428920372 0.43624816805080613
0.15025740099963514 0.4430874450415241 0.43429408891060084
0.1504467869999644 0.4479726428920372 0.43429408891060084
0.1506358389997331 0.44992672203224227 0.4255007327796776
0.1508251699997345 0.44699560332193444 0.4235466536394723
0.15101411099976758 0.44894968246213973 0.4157303370786516
0.15120262699974774 0.4460185637518319 0.41182217879824123
0.15139138299991828 0.4430874450415241 0.4108451392281387
0.1515807499999937 0.44992672203224227 0.40889106008793363
0.15177172899984726 0.44211040547142155 0.40693698094772834
0.15196150299971123 0.4479726428920372 0.40205178309721545
0.15215079699964917 0.4509037616023448 0.4010747435271129
0.15235658899973714 0.4528578407425501 0.4010747435271129
0.15254643799971745 0.45969711773326827 0.39716658524670256
0.15273610199983523 0.4636052760136786 0.3981436248168051
0.15292532099965683 0.4704445530043966 0.3952125061064973
0.15311420699981682 0.4763067904250122 0.3903273082559844
0.15330301899984988 0.48216902784562765 0.3883732291157791
0.15349290499989365 0.48705422569614076 0.3834880312652662
0.1536821790000431 0.4880312652662433 0.38446507083536874
0.1538708799998858 0.4880312652662433 0.38739618954567656
0.1540597099997285 0.495847581827064 0.3776257938446508
0.1542491519999203 0.48900830483634583 0.3756717147044455
0.15443833399967843 0.48705422569614076 0.3737176355642404
0.1546273679996375 0.48705422569614076 0.3678553981436248
0.15481666100004077 0.48216902784562765 0.36492427943331696
0.15500534299962965 0.48216902784562765 0.3639472398632144
0.15519415499966271 0.48216902784562765 0.36003908158280407
0.15538370800004486 0.4763067904250122 0.3610161211529066
0.15557375999969736 0.47728382999511476 0.3610161211529066
0.1557628499999737 0.4733756717147044 0.3756717147044455
0.1559525129996473 0.47923790913532005 0.3786028334147533
0.15614173199992365 0.47239863214460187 0.38935026868588185
0.15634095099994738 0.4733756717147044 0.39228138739618945
0.15653024499988533 0.47239863214460187 0.3913043478260869
0.15671842699975969 0.4753297508549097 0.38641914997557403
0.15690707199973986 0.4684904738641915 0.38251099169516367
0.15709532799974113 0.4655593551538837 0.38153395212506114
0.15728310299982695 0.467513434294089 0.37957987298485585
0.15747143299995514 0.467513434294089 0.3834880312652662
0.1576606149997133 0.46262823644357587 0.40205178309721545
0.15784987200004252 0.46165119687347334 0.41182217879824123
0.15803868299963142 0.4587200781631655 0.4303859306301905
0.15822692099982305 0.45481191988275516 0.44992672203224227
0.1584156589997292 0.45481191988275516 0.4811919882755251
0.15860489699980462 0.457743038593063 0.4802149487054226
0.15879409699982716 0.44894968246213973 0.495847581827064
0.15898263099961696 0.44894968246213973 0.5036638983878847
0.1591713869997875 0.45188080117244755 0.5114802149487054
0.15936069899998984 0.4509037616023448 0.5163654127992183
0.15954975199974797 0.4538348803126526 0.5173424523693209
0.15973948900000323 0.4538348803126526 0.5202735710796287
0.15992846799963445 0.45676599902296044 0.5212506106497312
0.16011718699974153 0.45676599902296044 0.5212506106497312
0.16030779499988057 0.45481191988275516 0.522227650219834
0.16049719900001946 0.4528578407425501 0.5319980459208598
0.16068575199960833 0.4509037616023448 0.5319980459208598
0.16087428599985287 0.44992672203224227 0.533952125061065
0.161063338999611 0.4460185637518319 0.5300439667806547
0.1612521869997181 0.4450415241817294 0.5202735710796287
0.16144116599980407 0.44699560332193444 0.5144113336590133
0.16162988499991116 0.4382022471910112 0.5026868588177822
0.16181927099978566 0.4352711284807034 0.4938935026868587
0.162008582999988 0.4333170493404983 0.4909623839765511
0.16219748699995762 0.431362970200293 0.4851001465559355
0.16238627999973687 0.431362970200293 0.4802149487054226
0.1625749619997805 0.4323400097703958 0.47728382999511476
0.162763903999803 0.431362970200293 0.4733756717147044
0.16295365999985734 0.43624816805080613 0.47239863214460187
0.16314211999997497 0.43624816805080613 0.4753297508549097
0.16333065399976476 0.43624816805080613 0.4753297508549097
0.1635200209998402 0.44211040547142155 0.4763067904250122
0.16370844399989437 0.44406448461162684 0.4763067904250122
0.1638973299995996 0.44406448461162684 0.4802149487054226
0.16408638299981249 0.4479726428920372 0.48412310698583294
0.16427739799974006 0.4460185637518319 0.4909623839765511
0.16446713599998475 0.4479726428920372 0.4948705422569615
0.16465581800002838 0.4479726428920372 0.495847581827064
0.16484486999979708 0.4450415241817294 0.4978016609672691
0.16503375599995707 0.4479726428920372 0.5036638983878847
0.16522216099974685 0.4479726428920372 0.5026868588177822
0.16541063899967412 0.44992672203224227 0.5026868588177822
0.1655993579997812 0.44406448461162684 0.5017098192476794
0.16578787399976136 0.44406448461162684 0.5007327796775769
0.16597692599998481 0.44211040547142155 0.5056179775280898
0.16616510799985917 0.43917928676111373 0.512457254518808
0.16635475399971256 0.43917928676111373 0.5153883732291158
0.16654365799968218 0.43917928676111373 0.5202735710796287
0.16673209900000074 0.4352711284807034 0.5251587689301416
0.166920669999854 0.4333170493404983 0.522227650219834
0.16710946399962268 0.4430874450415241 0.5202735710796287
0.1672986270000365 0.4323400097703958 0.5183194919394236
0.16748719799988976 0.4264777723497801 0.5183194919394236
0.16767623199984882 0.4284318514899854 0.5134342940889105
0.16786474799982898 0.42452369320957506 0.5114802149487054
0.16805422599964004 0.4255007327796776 0.512457254518808
0.16825309299974833 0.4235466536394723 0.5007327796775769
0.16844355299963354 0.4323400097703958 0.4938935026868587
0.16863256899978296 0.4333170493404983 0.4880312652662433
0.1688206399999217 0.4401563263312165 0.4802149487054226
0.16900930399970093 0.44211040547142155 0.467513434294089
0.16919750399983968 0.44211040547142155 0.4557889594528579
0.16938585299976694 0.4450415241817294 0.44211040547142155
0.16957390599964128 0.441133365901319 0.42940889106008795
0.16976340299970616 0.44406448461162684 0.4157303370786516
0.1699531589997605 0.44211040547142155 0.4040058622374205
0.170142229999783 0.44406448461162684 0.39912066438690763
0.17033383799980584 0.4450415241817294 0.38446507083536874
0.17052398299983906 0.44699560332193444 0.3756717147044455
0.17071290599960776 0.4460185637518319 0.3678553981436248
0.17090147699991576 0.44992672203224227 0.358085002442599
0.1710912149997057 0.44992672203224227 0.3610161211529066
0.17128024899966476 0.4538348803126526 0.35417684416218864
0.17146974499974021 0.45188080117244755 0.3610161211529066
0.17165853899996364 0.44992672203224227 0.36687835857352225
0.17184707299975344 0.45969711773326827 0.3776257938446508
0.1720364959996914 0.45481191988275516 0.38446507083536874
0.1722271409998939 0.457743038593063 0.39228138739618945
0.1724166559997684 0.45969711773326827 0.39912066438690763
0.17260556099972746 0.4557889594528579 0.4059599413776258
0.17279489099973944 0.4587200781631655 0.40693698094772834
0.17298381399996288 0.46262823644357587 0.40889106008793363
0.17317331100002775 0.4606741573033708 0.40889106008793363
0.17336182600001848 0.46165119687347334 0.4049829018075233
0.17355074899978717 0.46262823644357587 0.39423546653639474
0.17373978299974624 0.46165119687347334 0.38641914997557403
0.17392868699971586 0.46262823644357587 0.3776257938446508
0.17411718399989695 0.4655593551538837 0.3688324377137273
0.17430620000004637 0.46458231558378116 0.3561309233023937
0.17449519699994198 0.4684904738641915 0.348314606741573
0.17468498999960502 0.46946751343429405 0.3512457254518808
0.17487372799996592 0.467513434294089 0.35710796287249624
0.17506270599960772 0.47142159257449934 0.35906204201270153
0.17525138799965134 0.4704445530043966 0.3678553981436248
0.1754403850000017 0.47435271128480694 0.37176355642403514
0.17562973399981274 0.4753297508549097 0.37957987298485585
0.17581802699987747 0.4753297508549097 0.38739618954567656
0.1760066359997836 0.4733756717147044 0.3903273082559844
0.1761962619998485 0.4763067904250122 0.39912066438690763
0.17638538899973355 0.47435271128480694 0.40693698094772834
0.17657425599963972 0.47728382999511476 0.4108451392281387
0.17676299400000062 0.4811919882755251 0.4186614557889594
0.17695141699960004 0.48412310698583294 0.4235466536394723
0.1771396359999926 0.48412310698583294 0.43429408891060084
0.17732859599982476 0.4851001465559355 0.441133365901319
0.17751829600001656 0.4880312652662433 0.44699560332193444
0.17770714499965834 0.486077186126038 0.4538348803126526
0.1778960499996174 0.48412310698583294 0.45969711773326827
0.1780847499999254 0.4851001465559355 0.467513434294089
0.17827341399970464 0.4811919882755251 0.4733756717147044
0.17846161499983282 0.4782608695652173 0.4753297508549097
0.17865029699987645 0.4782608695652173 0.47923790913532005
0.17883942299977207 0.4733756717147044 0.4811919882755251
0.17902810599980512 0.46946751343429405 0.4851001465559355
0.17921650999960548 0.4655593551538837 0.4831460674157304
0.17940528500002983 0.4655593551538837 0.48412310698583294
0.17959472599977744 0.45969711773326827 0.486077186126038
0.17978316799963068 0.4587200781631655 0.48412310698583294
0.17997121999997034 0.457743038593063 0.4851001465559355
0.18016816099998323 0.4528578407425501 0.4811919882755251
0.18035921399996369 0.44992672203224227 0.4802149487054226
0.18054878499970073 0.4479726428920372 0.48412310698583294
0.1807378189996598 0.4430874450415241 0.48412310698583294
0.18092633399965052 0.4430874450415241 0.48216902784562765
0.18111507200001142 0.43917928676111373 0.4909623839765511
0.181304698999611 0.43722520762090866 0.4880312652662433
0.18149306599980264 0.43722520762090866 0.4880312652662433
0.1816823219996877 0.43624816805080613 0.4938935026868587
0.1818707639999957 0.4333170493404983 0.5036638983878847
0.18205974199963748 0.4323400097703958 0.5056179775280898
0.1822485169996071 0.42940889106008795 0.512457254518808
0.1824375510000209 0.4264777723497801 0.5163654127992183
0.18262717699963105 0.4323400097703958 0.5134342940889105
0.18281619299978047 0.4303859306301905 0.5251587689301416
0.183005263999803 0.4255007327796776 0.5153883732291158
0.18319463099987843 0.4284318514899854 0.512457254518808
0.183388905999891 0.42745481191988266 0.5105031753786029
0.18357905099992422 0.4284318514899854 0.5085490962383976
0.18376869599978818 0.42745481191988266 0.5026868588177822
0.1839580079999905 0.4264777723497801 0.495847581827064
0.1841471709999496 0.42452369320957506 0.5017098192476794
0.18434813099975145 0.4284318514899854 0.5017098192476794
0.18453681299979507 0.42745481191988266 0.5046409379579873
0.18472525499964831 0.42745481191988266 0.5065950170981925
0.18491432599967084 0.4303859306301905 0.5105031753786029
0.18510321199983082 0.4303859306301905 0.5105031753786029
0.1852923749997899 0.4303859306301905 0.5144113336590133
0.18548220599996057 0.4323400097703958 0.5114802149487054
0.1856714989999091 0.4323400097703958 0.5134342940889105
0.1858613289996356 0.43429408891060084 0.5144113336590133
0.18605108499968992 0.43624816805080613 0.5134342940889105
0.18623980499978643 0.43429408891060084 0.5163654127992183
0.18642843099996753 0.43624816805080613 0.5173424523693209
0.18661720599993714 0.43429408891060084 0.5192965315095261
0.18680570299966348 0.4333170493404983 0.5183194919394236
0.18699514399986583 0.4352711284807034 0.5153883732291158
0.18718356699992 0.43722520762090866 0.5183194919394236
0.1873739529996783 0.4401563263312165 0.5153883732291158
0.18756409799971152 0.43917928676111373 0.5144113336590133
0.18775377999963894 0.44211040547142155 0.5114802149487054
0.1879427769999893 0.44699560332193444 0.5046409379579873
0.18813231099966288 0.44992672203224227 0.5007327796775769
0.18832208599997102 0.45188080117244755 0.5007327796775769
0.18851143499978207 0.44894968246213973 0.4929164631167562
0.1887006349998046 0.45188080117244755 0.4851001465559355
0.18888992899974255 0.4528578407425501 0.4802149487054226
0.18907888900002945 0.45188080117244755 0.4763067904250122
0.18926736699995672 0.45188080117244755 0.47239863214460187
0.18945575299994744 0.4528578407425501 0.4684904738641915
0.1896443979999276 0.45188080117244755 0.467513434294089
0.18983972799969706 0.44992672203224227 0.4636052760136786
0.1900298919999841 0.44992672203224227 0.4587200781631655
0.1902196669998375 0.4509037616023448 0.44992672203224227
0.19040942299989183 0.4538348803126526 0.43722520762090866
0.1905985859998509 0.4538348803126526 0.42256961406936977
0.19078726899988396 0.45969711773326827 0.4049829018075233
0.19097591399986413 0.45969711773326827 0.38641914997557403
0.19116531800000303 0.45676599902296044 0.376648754274548
0.19135387100004664 0.4606741573033708 0.35710796287249624
0.1915429050000057 0.45676599902296044 0.32975085490962375
0.19173117899981662 0.45969711773326827 0.3141182217879823
0.19191923199969096 0.4538348803126526 0.303370786516854
0.1921087659998193 0.45481191988275516 0.2906692721055202
0.1922977629997149 0.4528578407425501 0.2906692721055202
0.1924869999998009 0.4509037616023448 0.29164631167562294
0.19267627499993978 0.45188080117244755 0.29750854909623836
0.19286473499960266 0.45969711773326827 0.30239374694675125
0.19305339899983665 0.4538348803126526 0.3111871030776747
0.1932419699996899 0.4557889594528579 0.32193453834880303
0.19343155899969133 0.4557889594528579 0.33170493404982904
0.1936207789999571 0.45676599902296044 0.348314606741573
0.19380977599985272 0.45676599902296044 0.36199316072300936
0.19399912399967434 0.4557889594528579 0.3678553981436248
0.1941887879997921 0.45676599902296044 0.3756717147044455
0.1943785260000368 0.457743038593063 0.3913043478260869
0.1945677999997315 0.4557889594528579 0.39228138739618945
0.19475738999972236 0.4587200781631655 0.40009770395701016
0.1949465349998718 0.4587200781631655 0.4137762579384465
0.19513558799962993 0.46165119687347334 0.4284318514899854
0.19532514000002266 0.4655593551538837 0.44699560332193444
0.1955137109998759 0.4636052760136786 0.4606741573033708
0.19570257799978208 0.4684904738641915 0.4704445530043966
0.1958914089996142 0.47239863214460187 0.48216902784562765
0.19608027599997513 0.4665363947239862 0.486077186126038
0.19627892099970268 0.47142159257449934 0.49193942354665365
0.19646888099987336 0.47435271128480694 0.48705422569614076
0.1966590079996422 0.4733756717147044 0.48705422569614076
0.19684787500000311 0.4733756717147044 0.48705422569614076
0.19703677899997274 0.47142159257449934 0.48900830483634583
0.19722497999964617 0.4753297508549097 0.4851001465559355
0.19741408799973215 0.47142159257449934 0.48216902784562765
0.19760317800000848 0.4684904738641915 0.48412310698583294
0.19779235999976663 0.46458231558378116 0.486077186126038
0.19798085699994772 0.46262823644357587 0.48998534440644836
0.198169112999949 0.4557889594528579 0.48412310698583294
0.1983581099998446 0.4450415241817294 0.4802149487054226
0.19854684799975075 0.4430874450415241 0.4704445530043966
0.19873562199973094 0.441133365901319 0.4538348803126526
0.198924211999838 0.43917928676111373 0.4352711284807034
0.19911228299997674 0.43917928676111373 0.4157303370786516
0.1993009279999569 0.4430874450415241 0.39228138739618945
0.19949073999987377 0.4450415241817294 0.3776257938446508
0.19967951499984338 0.4479726428920372 0.37176355642403514
0.19986810399996102 0.44992672203224227 0.36687835857352225
0.2000567489999412 0.45188080117244755 0.3707865168539326
0.20025635699994382 0.45188080117244755 0.38251099169516367
0.200445001999924 0.4479726428920372 0.3952125061064973
0.20063390699988304 0.4479726428920372 0.4040058622374205
0.2008229959997152 0.44699560332193444 0.40986809965803617
0.20101252999984354 0.4430874450415241 0.412799218368344
0.20120141600000352 0.44211040547142155 0.4108451392281387
0.2013902280000366 0.43624816805080613 0.4137762579384465
0.20157994700002746 0.4323400097703958 0.42159257449926724
0.20176938799977506 0.4303859306301905 0.43429408891060084
0.2019583109999985 0.4264777723497801 0.4538348803126526
0.2021471789998941 0.42745481191988266 0.4733756717147044
0.20233573099994828 0.4264777723497801 0.486077186126038
0.2025262649999604 0.4235466536394723 0.5075720566682951
0.20271598399995128 0.4284318514899854 0.5212506106497312
0.20290575899980468 0.42745481191988266 0.5378602833414754
0.20309479299976374 0.4303859306301905 0.5476306790425012
0.20328441999981806 0.43429408891060084 0.550561797752809
0.20347365699990405 0.43624816805080613 0.5632633121641426
0.2036627839997891 0.4352711284807034 0.5652173913043479
0.2038523549999809 0.4382022471910112 0.5701025891548608
0.20404136999968614 0.44406448461162684 0.5740107474352711
0.2042307560000154 0.4401563263312165 0.578895945285784
0.20441830899972047 0.43722520762090866 0.5808500244259893
0.20460680599990155 0.4333170493404983 0.5837811431362969
0.20479533999969135 0.4333170493404983 0.5867122618466047
0.20498352200002046 0.4323400097703958 0.5808500244259893
0.20517153699984192 0.4323400097703958 0.5740107474352711
0.20536038599993844 0.4323400097703958 0.5720566682950659
0.20554904999971768 0.4323400097703958 0.5661944308744504
0.20573749100003624 0.43624816805080613 0.5564240351734244
0.20592654399979438 0.4382022471910112 0.550561797752809
0.20611494799959473 0.4352711284807034 0.5446995603321934
0.20630298199967 0.4382022471910112 0.5368832437713726
0.20649160899984054 0.4401563263312165 0.5310210063507572
0.20667958699959854 0.4382022471910112 0.5261358085002443
0.2068687510000018 0.4401563263312165 0.5163654127992183
0.20705782200002432 0.44894968246213973 0.5017098192476794
0.20724578199997268 0.44699560332193444 0.48998534440644836
0.20743375999973068 0.44894968246213973 0.4782608695652173
0.20762194299959447 0.4557889594528579 0.46165119687347334
0.20781051399990247 0.4606741573033708 0.4509037616023448
0.2079986219996499 0.4684904738641915 0.42159257449926724
0.2084688729996742 0.4655593551538837 0.4108451392281387
0.20866433299988785 0.4665363947239862 0.40205178309721545
0.20885786700000608 0.46458231558378116 0.39716658524670256
0.20904888299992308 0.45969711773326827 0.39228138739618945
0.2092390279999563 0.4587200781631655 0.38641914997557403
0.2094295429997146 0.45676599902296044 0.37957987298485585
0.20961900299971603 0.4528578407425501 0.3776257938446508
0.20981527799995092 0.4528578407425501 0.38446507083536874
0.21000686699971993 0.44699560332193444 0.3913043478260869
0.21019708599988007 0.45188080117244755 0.39423546653639474
0.21038665699961712 0.4538348803126526 0.39716658524670256
0.21057563599970308 0.4606741573033708 0.39912066438690763
0.21076496599971506 0.4587200781631655 0.3961895456765998
0.2109533709999596 0.46262823644357587 0.4010747435271129
0.2111428859998341 0.4655593551538837 0.4049829018075233
0.21133130899988828 0.467513434294089 0.40889106008793363
0.21152052799970988 0.4655593551538837 0.412799218368344
0.21170926599961604 0.4636052760136786 0.41475329750854906
0.21189820699964912 0.46458231558378116 0.4186614557889594
0.21208774099977745 0.46262823644357587 0.42256961406936977
0.2122779599999376 0.457743038593063 0.41963849535906195
0.21246706800002357 0.4538348803126526 0.4303859306301905
0.21265686199967604 0.4509037616023448 0.4264777723497801
0.21284632199967746 0.4538348803126526 0.4235466536394723
0.21303639300003852 0.44992672203224227 0.42452369320957506
0.21322605599971212 0.4538348803126526 0.4176844162188569
0.21341503499979808 0.4557889594528579 0.4157303370786516
0.21360358699985227 0.45481191988275516 0.4108451392281387
0.21379239899988534 0.4528578407425501 0.40889106008793363
0.2139815999998973 0.45481191988275516 0.403028822667318
0.21417087400004675 0.457743038593063 0.4040058622374205
0.21436050099964632 0.45676599902296044 0.40205178309721545
0.2145492199997534 0.45676599902296044 0.39912066438690763
0.214738087999649 0.45676599902296044 0.39912066438690763
0.21492777000003116 0.457743038593063 0.39716658524670256
0.2151167109996095 0.457743038593063 0.3913043478260869
0.21530554099990695 0.45481191988275516 0.3932584269662922
0.2154949639998449 0.457743038593063 0.38641914997557403
0.21568416499985688 0.457743038593063 0.38641914997557403
0.21587349499986885 0.45676599902296044 0.39228138739618945
0.21606238100002884 0.46262823644357587 0.3961895456765998
0.21626708199983113 0.4636052760136786 0.4010747435271129
0.216457022999748 0.4655593551538837 0.40889106008793363
0.2166463720000138 0.46458231558378116 0.41182217879824123
0.21683555399977195 0.4704445530043966 0.41182217879824123
0.2170249949999743 0.4811919882755251 0.42256961406936977
0.21721371399962663 0.4733756717147044 0.4284318514899854
0.2174028599997655 0.4753297508549097 0.431362970200293
0.21759222699984093 0.4782608695652173 0.4382022471910112
0.2177806499998951 0.4704445530043966 0.4401563263312165
0.2179693690000022 0.47239863214460187 0.44211040547142155
0.21815803299978143 0.4733756717147044 0.45188080117244755
0.2183470669997405 0.47142159257449934 0.4460185637518319
0.2185359149998476 0.467513434294089 0.441133365901319
0.21872448599970085 0.4636052760136786 0.4430874450415241
0.21891331699998773 0.4587200781631655 0.43917928676111373
0.21910188799984098 0.4606741573033708 0.4382022471910112
0.2192907919998106 0.45969711773326827 0.4450415241817294
0.21948069699965345 0.4528578407425501 0.4382022471910112
0.21966961899988746 0.45481191988275516 0.44211040547142155
0.21985813499986762 0.45481191988275516 0.44211040547142155
0.22004692799964687 0.4528578407425501 0.44406448461162684
0.2202364069999021 0.45481191988275516 0.44406448461162684
0.22042590399996698 0.4509037616023448 0.45188080117244755
0.2206145669997568 0.4460185637518319 0.45969711773326827
0.22080328599986387 0.44406448461162684 0.46458231558378116
0.2209923569998864 0.4430874450415241 0.4684904738641915
0.22118153999963397 0.44406448461162684 0.4782608695652173
0.2213706109996565 0.4450415241817294 0.4880312652662433
0.22155975599980593 0.441133365901319 0.4948705422569615
0.2217488449996381 0.44211040547142155 0.5026868588177822
0.2219373979996817 0.44406448461162684 0.5056179775280898
0.2221274129997255 0.4382022471910112 0.5183194919394236
0.22231676199999129 0.43624816805080613 0.5232046897899365
0.22250538899970707 0.4382022471910112 0.5261358085002443
0.22269471899971904 0.43624816805080613 0.5319980459208598
0.2228843089997099 0.43624816805080613 0.5310210063507572
0.22307300900001792 0.4323400097703958 0.5378602833414754
0.22326237699962803 0.43624816805080613 0.5368832437713726
0.22345154000004186 0.4352711284807034 0.5437225207620908
0.22364079599992692 0.4352711284807034 0.5534929164631168
0.22383001599973795 0.4401563263312165 0.5515388373229115
0.22401895699977104 0.4401563263312165 0.5574010747435272
0.2242087689996879 0.43722520762090866 0.5583781143136297
0.22439878399973168 0.43722520762090866 0.5622862725940401
0.22458805899987055 0.43722520762090866 0.567171470444553
0.2247776489998614 0.43917928676111373 0.5632633121641426
0.22496625699977812 0.43917928676111373 0.5652173913043479
0.22515501299994867 0.43917928676111373 0.5691255495847583
0.2253441389998443 0.4401563263312165 0.5661944308744504
0.2255331549999937 0.43624816805080613 0.5661944308744504
0.2257225219996144 0.43722520762090866 0.5681485100146555
0.22591133399964747 0.4303859306301905 0.5593551538837322
0.2261005719997229 0.4264777723497801 0.5574010747435272
0.22628925399976652 0.42256961406936977 0.550561797752809
0.22647799199967267 0.42256961406936977 0.5388373229115779
0.22666571099989596 0.42256961406936977 0.5280898876404494
0.22685424499968576 0.4206155349291647 0.5144113336590133
0.2270427789999303 0.4186614557889594 0.49877870053737183
0.22723073899987867 0.4206155349291647 0.4763067904250122
0.22742001300002812 0.42452369320957506 0.45481191988275516
0.22760878799999773 0.42452369320957506 0.43917928676111373
0.22779773000002024 0.42940889106008795 0.40009770395701016
0.22798665299978893 0.4333170493404983 0.37469467513434296
0.22818301999996038 0.43624816805080613 0.3561309233023937
0.22837288699975034 0.4401563263312165 0.3424523693209576
0.22856212499982576 0.43917928676111373 0.34636052760136793
0.22875082499967903 0.44406448461162684 0.35906204201270153
0.22894021100000828 0.4460185637518319 0.37274059599413767
0.22912976399993568 0.441133365901319 0.3913043478260869
0.22931833499978893 0.44699560332193444 0.4079140205178309
0.22950701699983256 0.44699560332193444 0.41670737664875435
0.2296957730000031 0.4479726428920372 0.43624816805080613
0.22988547399972958 0.4479726428920372 0.441133365901319
0.23007434099963575 0.45188080117244755 0.44699560332193444
0.23026317199992263 0.45188080117244755 0.44894968246213973
0.23045231699961732 0.44992672203224227 0.45188080117244755
0.23064196199993603 0.46165119687347334 0.44406448461162684
0.2308307739999691 0.45969711773326827 0.4401563263312165
0.2310196039998118 0.45969711773326827 0.441133365901319
0.2312087669997709 0.4587200781631655 0.43429408891060084
0.23139806099970883 0.45969711773326827 0.44211040547142155
0.23158664999982648 0.46165119687347334 0.43624816805080613
0.23177553599998646 0.457743038593063 0.43722520762090866
0.23196486599999844 0.4606741573033708 0.4333170493404983
0.23215364099996805 0.46165119687347334 0.4323400097703958
0.23235328600003413 0.4606741573033708 0.4264777723497801
0.232542876000025 0.4587200781631655 0.4157303370786516
0.23273163199974078 0.46262823644357587 0.3932584269662922
0.23291999899993243 0.46262823644357587 0.36980947728383007
0.23311094099972252 0.4606741573033708 0.34636052760136793
0.23329978899982962 0.46262823644357587 0.3307278944797265
0.23349169399989478 0.45676599902296044 0.3209574987787005
0.233682060999854 0.4587200781631655 0.3111871030776747
0.23387103999993997 0.457743038593063 0.3111871030776747
0.23406035099969813 0.45676599902296044 0.3141182217879823
0.23425012600000628 0.4704445530043966 0.3307278944797265
0.23443960399981734 0.4636052760136786 0.33952125061064975
0.23462852700004078 0.46165119687347334 0.3512457254518808
0.23481743199999983 0.4655593551538837 0.36199316072300936
0.23500996599977952 0.4665363947239862 0.3707865168539326
0.23520048099999258 0.4704445530043966 0.3756717147044455
0.23539066299963451 0.4733756717147044 0.3776257938446508
0.2355804009998792 0.4753297508549097 0.3786028334147533
0.23576993500000754 0.47435271128480694 0.37957987298485585
0.23595930199962822 0.47923790913532005 0.3776257938446508
0.23614894699994693 0.4811919882755251 0.37957987298485585
0.23634981499981222 0.4811919882755251 0.38251099169516367
0.2365397559997291 0.4802149487054226 0.38935026868588185
0.2367283270000371 0.47923790913532005 0.39423546653639474
0.23691687899963654 0.4831460674157304 0.403028822667318
0.23710657999981777 0.47728382999511476 0.41670737664875435
0.23729474399988248 0.4733756717147044 0.4284318514899854
0.23748264799996832 0.4733756717147044 0.4401563263312165
0.23767092299976866 0.46946751343429405 0.44992672203224227
0.2382099879996531 0.45481191988275516 0.4802149487054226
0.23844557699976576 0.45481191988275516 0.48412310698583294
0.23919600999988688 0.457743038593063 0.486077186126038
0.2393899689996033 0.45481191988275516 0.48216902784562765
0.23957752199976312 0.4538348803126526 0.4851001465559355
0.23976549999997587 0.45676599902296044 0.48900830483634583
0.23995312699980786 0.45676599902296044 0.495847581827064
0.2401394939997772 0.4587200781631655 0.5065950170981925
0.24033045399983166 0.45188080117244755 0.522227650219834
0.24051883999982238 0.4509037616023448 0.5359062042012701
0.24070613300000332 0.4557889594528579 0.5456765999022961
0.24089207499991971 0.44894968246213973 0.5476306790425012
0.24107844199988904 0.4479726428920372 0.5554469956033219
0.24126680999961536 0.4460185637518319 0.550561797752809
0.24145395499999722 0.44406448461162684 0.5515388373229115
0.24164100699999835 0.441133365901319 0.5486077186126037
0.2418273559997033 0.43917928676111373 0.5446995603321934
0.2420137609997255 0.43722520762090866 0.5476306790425012
0.24220044300000154 0.43722520762090866 0.5495847581827065
0.24238662499965358 0.4352711284807034 0.5437225207620908
0.24257421499987686 0.43722520762090866 0.5417684416218858
0.24276052599998366 0.43624816805080613 0.5417684416218858
0.24294691199975205 0.4352711284807034 0.540791402051783
0.24313444599965806 0.43917928676111373 0.5349291646311676
0.24332070299988118 0.43917928676111373 0.5290669272105519
0.2435061629998927 0.441133365901319 0.5212506106497312
0.24369278899985147 0.44406448461162684 0.5046409379579873
0.24387837899985243 0.44406448461162684 0.4851001465559355
0.2440645609999592 0.44406448461162684 0.46458231558378116
0.24426714999981414 0.4479726428920372 0.4479726428920372
0.24445340700003726 0.4460185637518319 0.43624816805080613
0.24463940399982675 0.4450415241817294 0.4303859306301905
0.24482608599964806 0.44406448461162684 0.4284318514899854
0.2450130829997761 0.441133365901319 0.4284318514899854
0.24519909799982997 0.441133365901319 0.4333170493404983
0.24538487299969347 0.4352711284807034 0.4352711284807034
0.2455710919998637 0.44211040547142155 0.44211040547142155
0.2457574779996321 0.43722520762090866 0.45188080117244755
0.2459442899998976 0.4352711284807034 0.45481191988275516
0.24613060199999381 0.43624816805080613 0.4655593551538837
0.2463165989997833 0.43722520762090866 0.4733756717147044
0.24650303999987955 0.4333170493404983 0.4802149487054226
0.24668905599992286 0.4333170493404983 0.4782608695652173
0.2468753119997018 0.43429408891060084 0.4811919882755251
0.24706188299978749 0.43624816805080613 0.4851001465559355
0.2472479729999577 0.43624816805080613 0.48998534440644836
0.24743456199985303 0.4352711284807034 0.49193942354665365
0.24762068899963197 0.4284318514899854 0.4938935026868587
0.24780679699961183 0.42452369320957506 0.4938935026868587
0.24799908999966647 0.4206155349291647 0.4929164631167562
0.24819282799990106 0.4206155349291647 0.48900830483634583
0.2483804919997965 0.4235466536394723 0.4929164631167562
0.24856687800001964 0.4235466536394723 0.4978016609672691
0.24875263399962932 0.4235466536394723 0.4909623839765511
0.24893887199959863 0.4255007327796776 0.4909623839765511
0.24912534999975833 0.4255007327796776 0.4880312652662433
0.24931217999983346 0.4284318514899854 0.48412310698583294
0.24949817699962296 0.4284318514899854 0.4831460674157304
0.24968458199964516 0.4235466536394723 0.4704445530043966
0.24987217099987902 0.42452369320957506 0.46458231558378116
0.2500581679996685 0.4255007327796776 0.4587200781631655
0.2502445909999551 0.4264777723497801 0.4430874450415241
0.2504304589997446 0.4284318514899854 0.4303859306301905
0.2506162339996081 0.42940889106008795 0.41182217879824123
0.25080156399963016 0.43429408891060084 0.403028822667318
0.2509879499998533 0.4352711284807034 0.39423546653639474
0.2511741879998226 0.441133365901319 0.39423546653639474
0.251360258999739 0.441133365901319 0.3981436248168051
0.2515471259998776 0.4460185637518319 0.40009770395701016
0.2517344929997307 0.4509037616023448 0.4079140205178309
0.2519212309998693 0.45676599902296044 0.4137762579384465
0.252107801999955 0.4655593551538837 0.4206155349291647
0.2522997989999567 0.467513434294089 0.4264777723497801
0.25248944399982065 0.4733756717147044 0.4303859306301905
0.25267990399970586 0.47239863214460187 0.4284318514899854
0.252870122999866 0.47923790913532005 0.41963849535906195
0.2530602869996983 0.4831460674157304 0.412799218368344
0.25325056199972096 0.4831460674157304 0.3961895456765998
0.2534397069998704 0.48412310698583294 0.38446507083536874
0.25362811099967075 0.48216902784562765 0.3776257938446508
0.25381757099967217 0.4831460674157304 0.37274059599413767
0.25400769799989575 0.4763067904250122 0.3688324377137273
0.2541983060000348 0.47728382999511476 0.3688324377137273
0.2543882840000151 0.4704445530043966 0.3776257938446508
0.25457779999987906 0.4733756717147044 0.3834880312652662
0.2547672219998276 0.47142159257449934 0.39423546653639474
0.25495673799969154 0.46946751343429405 0.4010747435271129
0.2551466979998622 0.4684904738641915 0.40009770395701016
0.2553361949999271 0.4655593551538837 0.39716658524670256
0.25552622899976996 0.4704445530043966 0.38739618954567656
0.2557154289997925 0.4733756717147044 0.38153395212506114
0.2559051670000372 0.4851001465559355 0.36980947728383007
0.25609492299963676 0.4831460674157304 0.3629702002931119
0.25628588299969124 0.4831460674157304 0.3551538837322912
0.2564752509997561 0.4880312652662433 0.34929164631167553
0.25666519199967297 0.486077186126038 0.35417684416218864
0.25685461499961093 0.49193942354665365 0.358085002442599
0.25704398199968637 0.48998534440644836 0.36980947728383007
0.25723325699982524 0.49193942354665365 0.376648754274548
0.2574229580000065 0.4929164631167562 0.38935026868588185
0.2576119169998492 0.48998534440644836 0.4108451392281387
0.25780126599966025 0.4909623839765511 0.4303859306301905
0.2579912629998944 0.486077186126038 0.45188080117244755
0.2581808709996949 0.4802149487054226 0.4684904738641915
0.2583700159998443 0.47435271128480694 0.4811919882755251
0.2585591059996659 0.46946751343429405 0.4948705422569615
0.258747824999773 0.4655593551538837 0.5036638983878847
0.2589363219999541 0.4606741573033708 0.5095261358085001
0.2591257079998286 0.45481191988275516 0.5105031753786029
0.2593144829997982 0.4538348803126526 0.5075720566682951
0.25950314600004276 0.44894968246213973 0.5026868588177822
0.2596928839998327 0.4479726428920372 0.486077186126038
0.25988230699977066 0.44699560332193444 0.47728382999511476
0.26007209999988845 0.4450415241817294 0.467513434294089
0.2602721149996796 0.4450415241817294 0.46165119687347334
0.26046187199972337 0.43917928676111373 0.4606741573033708
0.260650997999619 0.43429408891060084 0.46165119687347334
0.26083997699970496 0.4333170493404983 0.46165119687347334
0.26102921399979095 0.4352711284807034 0.4655593551538837
0.26122230399960245 0.4323400097703958 0.46946751343429405
0.26141202300004807 0.42452369320957506 0.4753297508549097
0.2616002979998484 0.431362970200293 0.4831460674157304
0.26178881299983914 0.42745481191988266 0.49193942354665365
0.26197744000000966 0.431362970200293 0.5007327796775769
0.26216675199975725 0.4255007327796776 0.5085490962383976
0.26235621199975867 0.42745481191988266 0.5105031753786029
0.2625461159996121 0.4284318514899854 0.5153883732291158
0.26273594599979333 0.431362970200293 0.5183194919394236
0.2629253879999851 0.4323400097703958 0.5173424523693209
0.2631149029998596 0.4303859306301905 0.5144113336590133
0.2633044929998505 0.42940889106008795 0.5085490962383976
0.26349360099993646 0.4323400097703958 0.5007327796775769
0.2636825609997686 0.4284318514899854 0.5036638983878847
0.2638713540000026 0.4255007327796776 0.49975574010747437
0.26406048099988766 0.4284318514899854 0.49877870053737183
0.26426042200000666 0.4264777723497801 0.5017098192476794
0.2644499369998812 0.4264777723497801 0.5007327796775769
0.2646460079999997 0.431362970200293 0.5046409379579873
0.2648453570000129 0.4284318514899854 0.5065950170981925
0.2650368169997819 0.4284318514899854 0.5036638983878847
0.26522609099993133 0.4255007327796776 0.5056179775280898
0.26541458799965767 0.4235466536394723 0.5056179775280898
0.26560362199961673 0.42745481191988266 0.5065950170981925
0.26579304500000944 0.4303859306301905 0.5026868588177822
0.2659821529996407 0.4284318514899854 0.5026868588177822
0.266171557999769 0.4323400097703958 0.5017098192476794
0.26636092499984443 0.4303859306301905 0.5026868588177822
0.26655021799979295 0.4264777723497801 0.5026868588177822
0.26673989999972036 0.4303859306301905 0.4978016609672691
0.26692906399966887 0.4323400097703958 0.4929164631167562
0.26711794999982885 0.4255007327796776 0.4929164631167562
0.26730677999967156 0.431362970200293 0.486077186126038
0.2674957589997575 0.4352711284807034 0.4811919882755251
0.26768534799975896 0.43722520762090866 0.47923790913532005
0.2678748270000142 0.441133365901319 0.46946751343429405
0.2680686379999315 0.4401563263312165 0.46946751343429405
0.268278153999745 0.44406448461162684 0.4655593551538837
0.26846809499966184 0.4430874450415241 0.4587200781631655
0.26865664699971603 0.441133365901319 0.457743038593063
0.2688449959996433 0.4430874450415241 0.4538348803126526
0.2690334929998244 0.4430874450415241 0.44992672203224227
0.2692230089996883 0.4401563263312165 0.44699560332193444
0.2694120239998483 0.4430874450415241 0.4450415241817294
0.2696001139997861 0.44211040547142155 0.43624816805080613
0.26978862899977685 0.44406448461162684 0.43722520762090866
0.26997881099987353 0.4430874450415241 0.42940889106008795
0.2701684009998644 0.4479726428920372 0.42256961406936977
0.2703583789998447 0.4509037616023448 0.41670737664875435
0.2705479319997721 0.4538348803126526 0.40986809965803617
0.2707369659997312 0.45676599902296044 0.403028822667318
0.2709270369996375 0.46165119687347334 0.403028822667318
0.2711158299998715 0.4587200781631655 0.40693698094772834
0.2713048460000209 0.46165119687347334 0.40693698094772834
0.27149391700004344 0.4655593551538837 0.4049829018075233
0.27168341399965357 0.467513434294089 0.4059599413776258
0.27187254000000394 0.4684904738641915 0.4108451392281387
0.272061573999963 0.4704445530043966 0.4059599413776258
0.27226070099959543 0.47239863214460187 0.40693698094772834
0.2724499199998718 0.4704445530043966 0.4049829018075233
0.2726389719996405 0.47142159257449934 0.40889106008793363
0.2728287099998852 0.47239863214460187 0.4040058622374205
0.2730179289997068 0.4733756717147044 0.40009770395701016
0.2732061479996446 0.4684904738641915 0.3981436248168051
0.27339531200004785 0.4684904738641915 0.3952125061064973
0.27358445699974254 0.47142159257449934 0.3913043478260869
0.2737733429999025 0.46946751343429405 0.3913043478260869
0.273962728999777 0.46946751343429405 0.3854421104054715
0.2741516889996092 0.47239863214460187 0.37274059599413767
0.2743404819998432 0.4753297508549097 0.37469467513434296
0.2745297940000455 0.4704445530043966 0.3776257938446508
0.27471906899972964 0.4753297508549097 0.3786028334147533
0.27490784299970983 0.4733756717147044 0.3805569125549584
0.2750967109996054 0.47435271128480694 0.3883732291157791
0.2752857079999558 0.47239863214460187 0.3932584269662922
0.27547509299984085 0.4753297508549097 0.4010747435271129
0.2756637569996201 0.4763067904250122 0.4059599413776258
0.27585195799974827 0.4733756717147044 0.4137762579384465
0.27604150999968624 0.47239863214460187 0.42159257449926724
0.2762309329996242 0.47239863214460187 0.4235466536394723
0.27641878199983694 0.47142159257449934 0.4284318514899854
0.2766068349997113 0.4704445530043966 0.4284318514899854
0.27679570199961745 0.46946751343429405 0.4303859306301905
0.2769849209998938 0.46946751343429405 0.4255007327796776
0.2771736219997365 0.46946751343429405 0.4284318514899854
0.27736191499980123 0.4655593551538837 0.4323400097703958
0.2775498749997496 0.4606741573033708 0.43624816805080613
0.2777385019999201 0.4606741573033708 0.44894968246213973
0.27792718399996375 0.4636052760136786 0.4606741573033708
0.2781154770000285 0.4606741573033708 0.4704445530043966
0.27830501099970206 0.4509037616023448 0.4782608695652173
0.2784936379998726 0.45481191988275516 0.4831460674157304
0.2786823749997893 0.46165119687347334 0.4802149487054226
0.2788714089997484 0.457743038593063 0.48705422569614076
0.27906024000003526 0.45188080117244755 0.48216902784562765
0.2792490329998145 0.4587200781631655 0.48412310698583294
0.27943795600003796 0.4528578407425501 0.48900830483634583
0.2796271379997961 0.4528578407425501 0.495847581827064
0.2798156159997234 0.4528578407425501 0.5046409379579873
0.2800050019995979 0.4538348803126526 0.5075720566682951
0.28019455499998003 0.4538348803126526 0.5144113336590133
0.28038266299972747 0.45188080117244755 0.524181729360039
0.2805713449997711 0.44992672203224227 0.5349291646311676
0.28076010099994164 0.4460185637518319 0.540791402051783
0.2809490059999007 0.44894968246213973 0.5368832437713726
0.2811373539998385 0.44406448461162684 0.5290669272105519
0.2813266849998399 0.44406448461162684 0.522227650219834
0.2815158669995981 0.44406448461162684 0.5065950170981925
0.281704512000033 0.4479726428920372 0.4909623839765511
0.2818928980000237 0.44211040547142155 0.4684904738641915
0.28208106099964425 0.44211040547142155 0.4557889594528579
0.28226928100002624 0.4401563263312165 0.441133365901319
0.28245825899966803 0.43722520762090866 0.4352711284807034
0.2826465889997962 0.4382022471910112 0.431362970200293
0.2828355679998822 0.43917928676111373 0.4382022471910112
0.28302397199968254 0.4352711284807034 0.45188080117244755
0.2832134689997474 0.4303859306301905 0.4655593551538837
0.2834024109997699 0.4333170493404983 0.4782608695652173
0.2835942219999197 0.43429408891060084 0.48998534440644836
0.28378499699965687 0.431362970200293 0.4909623839765511
0.2839750680000179 0.42745481191988266 0.49682462139716654
0.2841770830000314 0.4303859306301905 0.49975574010747437
0.2843677839996417 0.4303859306301905 0.49682462139716654
0.2845569659998546 0.42745481191988266 0.49193942354665365
0.28474568499996167 0.42940889106008795 0.4851001465559355
0.28493482999965636 0.4323400097703958 0.4733756717147044
0.28512356800001726 0.42745481191988266 0.4655593551538837
0.28531265799983885 0.4255007327796776 0.46165119687347334
0.2855013949997556 0.4303859306301905 0.46165119687347334
0.2856895589998203 0.4284318514899854 0.4636052760136786
0.2858782779999274 0.4303859306301905 0.46946751343429405
0.28606742299962207 0.4333170493404983 0.4782608695652173
0.28625716099986676 0.4255007327796776 0.48216902784562765
0.2864461209996989 0.4284318514899854 0.48900830483634583
0.28663474799986943 0.42745481191988266 0.4909623839765511
0.28682304099993416 0.4284318514899854 0.495847581827064
0.28701179699964996 0.43429408891060084 0.495847581827064
0.28720005299965123 0.43429408891060084 0.5007327796775769
0.2873892719999276 0.4333170493404983 0.4938935026868587
0.2875785289998021 0.43917928676111373 0.48998534440644836
0.2877674329997717 0.4401563263312165 0.48412310698583294
0.2879564859999846 0.44406448461162684 0.47239863214460187
0.2881445379998695 0.45188080117244755 0.4704445530043966
0.288341367999692 0.45188080117244755 0.4606741573033708
0.2885300879997885 0.45969711773326827 0.45969711773326827
0.28871882499970525 0.4528578407425501 0.45481191988275516
0.2889080999998441 0.4528578407425501 0.45188080117244755
0.28909687499981374 0.457743038593063 0.4479726428920372
0.2892857980000372 0.4587200781631655 0.44894968246213973
0.28947477599967897 0.4557889594528579 0.4509037616023448
0.28966366199983895 0.4557889594528579 0.45481191988275516
0.28985658499959754 0.4557889594528579 0.467513434294089
0.2900455259996306 0.46165119687347334 0.4704445530043966
0.29023400500000207 0.4557889594528579 0.4733756717147044
0.2904235759997391 0.45481191988275516 0.46946751343429405
0.2906126099996982 0.4587200781631655 0.4636052760136786
0.2908017549998476 0.45969711773326827 0.4450415241817294
0.2909909739996692 0.46165119687347334 0.4255007327796776
0.2911799149997023 0.4538348803126526 0.4040058622374205
0.29136911599971427 0.45481191988275516 0.37957987298485585
0.2915612609999698 0.4557889594528579 0.3629702002931119
0.2917517019996012 0.45676599902296044 0.3502686858817783
0.29194140299978244 0.4557889594528579 0.34733756717147046
0.2921302149998155 0.4557889594528579 0.3414753297508548
0.2923194899999544 0.4538348803126526 0.35222276502198335
0.29250874599983945 0.45481191988275516 0.3639472398632144
0.2926976499998091 0.45188080117244755 0.36980947728383007
0.2928862769999796 0.4538348803126526 0.3756717147044455
0.2930756439996003 0.457743038593063 0.3834880312652662
0.29326417799984483 0.45676599902296044 0.3913043478260869
0.2934530829998039 0.45969711773326827 0.39716658524670256
0.293641708999985 0.46165119687347334 0.39912066438690763
0.29383035399996515 0.46946751343429405 0.4040058622374205
0.29401973999983966 0.46458231558378116 0.40889106008793363
0.294209366999894 0.467513434294089 0.40889106008793363
0.29439845599972614 0.4733756717147044 0.41182217879824123
0.29458732399962173 0.4684904738641915 0.41475329750854906
0.2947764499999721 0.4684904738641915 0.4206155349291647
0.2949652059996879 0.46946751343429405 0.4206155349291647
0.2951539809996575 0.4733756717147044 0.4206155349291647
0.29534249699963766 0.47142159257449934 0.4206155349291647
0.2955310859997553 0.4733756717147044 0.4264777723497801
0.29571926799962966 0.47142159257449934 0.4303859306301905
0.2959075059998213 0.4704445530043966 0.4303859306301905
0.2960969099999602 0.4753297508549097 0.43917928676111373
0.2962863699999616 0.4782608695652173 0.43722520762090866
0.2964747009996245 0.47239863214460187 0.4382022471910112
0.2966631049998796 0.4763067904250122 0.43917928676111373
0.29685189799965883 0.47435271128480694 0.4382022471910112
0.2970410799998717 0.47435271128480694 0.4401563263312165
0.29722991099970386 0.4733756717147044 0.4479726428920372
0.2974183520000224 0.4704445530043966 0.45188080117244755
0.29760662699982277 0.4733756717147044 0.45969711773326827
0.29779516099961256 0.46946751343429405 0.4655593551538837
0.2979833800000051 0.46946751343429405 0.47142159257449934
0.29817226599971036 0.46165119687347334 0.4753297508549097
0.2983611889999338 0.4606741573033708 0.4684904738641915
0.2985493339997447 0.45969711773326827 0.4528578407425501
0.29873768299967196 0.457743038593063 0.45188080117244755
0.29892645799964157 0.4557889594528579 0.43917928676111373
0.29911506600001303 0.45188080117244755 0.4333170493404983
0.2993029699996441 0.4557889594528579 0.4333170493404983
0.29949213400004737 0.44894968246213973 0.4255007327796776
0.29968020499973136 0.4460185637518319 0.42745481191988266
0.29986929400001827 0.4430874450415241 0.4303859306301905
0.30005793899999844 0.44211040547142155 0.4333170493404983
0.3002603810000437 0.4430874450415241 0.4460185637518319
0.3004507289997491 0.4382022471910112 0.4636052760136786
0.30063941199978217 0.4401563263312165 0.48412310698583294
0.30082835299981525 0.4382022471910112 0.4978016609672691
0.30101705399965795 0.441133365901319 0.512457254518808
0.3012058099998285 0.4382022471910112 0.522227650219834
0.3013942509996923 0.43722520762090866 0.5261358085002443
0.3015829699997994 0.43722520762090866 0.522227650219834
0.3017716709996421 0.4401563263312165 0.5163654127992183
0.3019608159997915 0.4352711284807034 0.5105031753786029
0.3021499980000044 0.4401563263312165 0.5017098192476794
0.3023396429998684 0.44211040547142155 0.4929164631167562
0.30252923299985923 0.43624816805080613 0.48998534440644836
0.3027187109996703 0.4382022471910112 0.4831460674157304
0.30290774499962936 0.4382022471910112 0.4851001465559355
0.30309640899986334 0.44211040547142155 0.4909623839765511
0.3032848509997166 0.43429408891060084 0.4929164631167562
0.303472846999739 0.4333170493404983 0.49682462139716654
0.30366097399974024 0.4382022471910112 0.5017098192476794
0.30384965599978386 0.4382022471910112 0.495847581827064
0.30403915299984874 0.4323400097703958 0.495847581827064
0.3042281319999347 0.431362970200293 0.495847581827064
0.3044158139996398 0.431362970200293 0.4929164631167562
0.3046042179998949 0.4323400097703958 0.4909623839765511
0.3047930859997905 0.43624816805080613 0.48705422569614076
0.3049818599997707 0.4323400097703958 0.4684904738641915
0.3051705419998143 0.4323400097703958 0.44894968246213973
0.3053590949998579 0.4323400097703958 0.43429408891060084
0.30554755499997555 0.43429408891060084 0.4186614557889594
0.30573632999994516 0.4333170493404983 0.41475329750854906
0.3059242899998935 0.4323400097703958 0.4206155349291647
0.3061127129999477 0.4323400097703958 0.4333170493404983
0.30630063499984317 0.42940889106008795 0.4538348803126526
0.30648911399975987 0.42940889106008795 0.4753297508549097
0.3066774999997506 0.43429408891060084 0.4909623839765511
0.30686529299964604 0.4323400097703958 0.5007327796775769
0.30705347499997515 0.4382022471910112 0.5144113336590133
0.3072418239999024 0.4382022471910112 0.5183194919394236
0.30743048799968165 0.44211040547142155 0.5232046897899365
0.30761966999989454 0.44406448461162684 0.524181729360039
0.3078097779998643 0.44406448461162684 0.5212506106497312
0.30799936699986574 0.4460185637518319 0.5192965315095261
0.3081890309999835 0.44894968246213973 0.5134342940889105
0.3083781759996782 0.44699560332193444 0.5085490962383976
0.3085664509999333 0.44894968246213973 0.49877870053737183
0.3087551700000404 0.4479726428920372 0.4948705422569615
0.30894381500002055 0.4450415241817294 0.4851001465559355
0.30913242299993726 0.4460185637518319 0.4733756717147044
0.30932056799974816 0.44699560332193444 0.46165119687347334
0.30950856499976 0.44699560332193444 0.4460185637518319
0.3096975250000469 0.44699560332193444 0.44211040547142155
0.3098866889999954 0.45188080117244755 0.4352711284807034
0.310076129999743 0.4509037616023448 0.4235466536394723
0.3102650900000299 0.44894968246213973 0.4157303370786516
0.31045343899995714 0.4538348803126526 0.4157303370786516
0.3106419549999373 0.45676599902296044 0.4059599413776258
0.31083065499979057 0.46165119687347334 0.403028822667318
0.31101924499989764 0.4665363947239862 0.40009770395701016
0.311207741999624 0.46262823644357587 0.40009770395701016
0.3113959799998156 0.46165119687347334 0.39716658524670256
0.31158505099983813 0.4636052760136786 0.3932584269662922
0.3117742139997972 0.467513434294089 0.3854421104054715
0.3119631559998197 0.46458231558378116 0.3834880312652662
0.31215246700003263 0.467513434294089 0.3786028334147533
0.31235464899964427 0.4684904738641915 0.376648754274548
0.31254346099967734 0.4665363947239862 0.37957987298485585
0.3127335689996471 0.46946751343429405 0.3737176355642404
0.31292260299960617 0.46946751343429405 0.37469467513434296
0.3131114699999671 0.4684904738641915 0.376648754274548
0.3133005229997252 0.4684904738641915 0.37176355642403514
0.31348976099980064 0.46946751343429405 0.3688324377137273
0.3136787209996328 0.4733756717147044 0.3659013190034197
0.3138668100000359 0.4753297508549097 0.3639472398632144
0.31405599199979406 0.4753297508549097 0.36003908158280407
0.31424487799995404 0.47435271128480694 0.36003908158280407
0.31443417099990256 0.4763067904250122 0.3610161211529066
0.3146231499999885 0.47435271128480694 0.3639472398632144
0.31481142499978887 0.47239863214460187 0.3678553981436248
0.3149999590000334 0.47239863214460187 0.3756717147044455
0.31518836299983377 0.4704445530043966 0.3854421104054715
0.31537797099963427 0.4733756717147044 0.3932584269662922
0.3155665979998048 0.47142159257449934 0.3961895456765998
0.31575587199995425 0.46262823644357587 0.4059599413776258
0.3159445549999873 0.46262823644357587 0.40986809965803617
0.31613295899978766 0.46262823644357587 0.4108451392281387
0.31632189999982074 0.45481191988275516 0.412799218368344
0.31651130499994906 0.4538348803126526 0.4176844162188569
0.3167001540000456 0.45188080117244755 0.4176844162188569
0.316888705999645 0.4509037616023448 0.4235466536394723
0.3170774440000059 0.4460185637518319 0.42452369320957506
0.317266606999965 0.44211040547142155 0.4303859306301905
0.31745590099990295 0.44406448461162684 0.43722520762090866
0.3176445269996293 0.43722520762090866 0.44406448461162684
0.3178331909998633 0.4401563263312165 0.4509037616023448
0.3180229839999811 0.44211040547142155 0.467513434294089
0.31821179600001415 0.44406448461162684 0.4753297508549097
0.3184005889997934 0.44992672203224227 0.4802149487054226
0.3185893079999005 0.45676599902296044 0.4831460674157304
0.3187836389997756 0.45969711773326827 0.486077186126038
0.3189726539999356 0.4704445530043966 0.48705422569614076
0.319162021000011 0.4753297508549097 0.4880312652662433
0.31935122200002297 0.47728382999511476 0.48705422569614076
0.31954036699971766 0.4704445530043966 0.48705422569614076
0.3197289199997613 0.47142159257449934 0.48998534440644836
0.3199185829998896 0.46458231558378116 0.4851001465559355
0.32010772800003906 0.4587200781631655 0.49193942354665365
0.32029766999994536 0.45188080117244755 0.5007327796775769
0.3204865559996506 0.4401563263312165 0.5095261358085001
0.3206759790000433 0.431362970200293 0.5144113336590133
0.32086501300000236 0.4303859306301905 0.5173424523693209
0.32105332399987674 0.4264777723497801 0.5192965315095261
0.3212426179998147 0.42745481191988266 0.522227650219834
0.32143104099986886 0.4284318514899854 0.5232046897899365
0.32161975999997594 0.43429408891060084 0.522227650219834
0.3218084599998292 0.441133365901319 0.5251587689301416
0.3219971609996719 0.44699560332193444 0.5212506106497312
0.32218669499980024 0.45676599902296044 0.5202735710796287
0.3223758219996853 0.457743038593063 0.5153883732291158
0.3225649669998347 0.45969711773326827 0.5095261358085001
0.3227535009996245 0.4587200781631655 0.5046409379579873
0.32294234999972105 0.45969711773326827 0.49682462139716654
0.3231321609996485 0.45676599902296044 0.4938935026868587
0.32332245499992496 0.457743038593063 0.49193942354665365
0.32351171099981 0.45188080117244755 0.4909623839765511
0.32370194899976923 0.4460185637518319 0.4929164631167562
0.3238912970000456 0.44406448461162684 0.495847581827064
0.3240805719997297 0.441133365901319 0.49682462139716654
0.3242823099999441 0.43624816805080613 0.49193942354665365
0.32447160299989264 0.4352711284807034 0.4909623839765511
0.32466152599999987 0.43429408891060084 0.4851001465559355
0.32485091199987437 0.4333170493404983 0.4802149487054226
0.32504055699973833 0.431362970200293 0.48900830483634583
0.32522931299990887 0.42745481191988266 0.4851001465559355
0.3254183839999314 0.4264777723497801 0.49193942354665365
0.3256083809997108 0.4235466536394723 0.49682462139716654
0.3257970999998179 0.41963849535906195 0.5075720566682951
0.32598613399977694 0.4157303370786516 0.512457254518808
0.32617507499981 0.4186614557889594 0.5163654127992183
0.32636453499981144 0.41670737664875435 0.5212506106497312
0.3265535880000243 0.41182217879824123 0.5280898876404494
0.326742825999645 0.4137762579384465 0.5310210063507572
0.3269319889996041 0.4137762579384465 0.5261358085002443
0.3271206709996477 0.4176844162188569 0.5251587689301416
0.3273098349995962 0.4176844162188569 0.5251587689301416
0.3274983319997773 0.4206155349291647 0.524181729360039
0.32768719899968346 0.42940889106008795 0.5251587689301416
0.32787591899977997 0.43624816805080613 0.5144113336590133
0.3280644899996332 0.43917928676111373 0.5065950170981925
0.32826315299962516 0.44406448461162684 0.4948705422569615
0.3284519279995948 0.4460185637518319 0.49193942354665365
0.32864153599985 0.44894968246213973 0.4831460674157304
0.32883038499994655 0.44992672203224227 0.4753297508549097
0.32901897399960944 0.4509037616023448 0.4636052760136786
0.32920749000004434 0.45481191988275516 0.4538348803126526
0.3293959869997707 0.45676599902296044 0.44406448461162684
0.3295844279996345 0.4587200781631655 0.43722520762090866
0.3297720179998578 0.4606741573033708 0.42256961406936977
0.3299614219999967 0.46262823644357587 0.4079140205178309
0.3301502519998394 0.46262823644357587 0.39423546653639474
0.3303381939999781 0.4665363947239862 0.37274059599413767
0.3305267279997679 0.4665363947239862 0.35222276502198335
0.3307149469997057 0.47239863214460187 0.33952125061064975
0.33090311099977043 0.47239863214460187 0.32486565705911086
0.33109225599991987 0.4802149487054226 0.3150952613580851
0.3312815299996146 0.4811919882755251 0.30923302393746943
0.33147074999988035 0.47923790913532005 0.3082559843673669
0.33166122800002995 0.4811919882755251 0.3111871030776747
0.331850354999915 0.47923790913532005 0.3180263800683927
0.33203977799985296 0.47728382999511476 0.3336590131900341
0.3322297370000342 0.4763067904250122 0.3453834880312652
0.3324220859999514 0.47923790913532005 0.35906204201270153
0.3326119349999317 0.4684904738641915 0.37176355642403514
0.33280143199999657 0.4655593551538837 0.3786028334147533
0.33299087299974417 0.467513434294089 0.3834880312652662
0.3331794439995974 0.467513434294089 0.38641914997557403
0.33336807099976795 0.4665363947239862 0.3961895456765998
0.333556882999801 0.4665363947239862 0.39912066438690763
0.3337497499996971 0.46262823644357587 0.4049829018075233
0.3339392099996985 0.467513434294089 0.4049829018075233
0.3341280769996047 0.46946751343429405 0.403028822667318
0.3343164259999867 0.47142159257449934 0.39716658524670256
0.33450668199975553 0.467513434294089 0.3961895456765998
0.3346954389999155 0.4684904738641915 0.3932584269662922
0.33488491699972656 0.4733756717147044 0.38251099169516367
0.3350741179997385 0.4753297508549097 0.3883732291157791
0.3352633739996236 0.4704445530043966 0.38153395212506114
0.3354518520000056 0.4733756717147044 0.37957987298485585
0.3356408309996368 0.4704445530043966 0.38153395212506114
0.33583003099965936 0.46946751343429405 0.38641914997557403
0.33601880599962897 0.4684904738641915 0.3883732291157791
0.33620813699963037 0.4782608695652173 0.3903273082559844
0.3363957449996633 0.47142159257449934 0.39228138739618945
0.33658377899973857 0.4684904738641915 0.3981436248168051
0.33677188699994076 0.4753297508549097 0.4040058622374205
0.33697551299974293 0.46946751343429405 0.4157303370786516
0.33725361999995584 0.46946751343429405 0.43429408891060084
0.3374907089996668 0.47142159257449934 0.44699560332193444
0.3376968529996702 0.4704445530043966 0.4557889594528579
0.33790757199994914 0.467513434294089 0.46262823644357587
0.338143012999808 0.46946751343429405 0.46946751343429405
0.33837906500002646 0.4655593551538837 0.4782608695652173
0.3393116789998203 0.45969711773326827 0.46946751343429405
0.33958580399985294 0.44894968246213973 0.4665363947239862
0.339789245999782 0.44699560332193444 0.46262823644357587
0.34014862899994114 0.4401563263312165 0.4802149487054226
0.34039738399997077 0.4352711284807034 0.4909623839765511
0.34059160299966607 0.4323400097703958 0.5056179775280898
0.3407824329997311 0.4303859306301905 0.5144113336590133
0.34097357899963754 0.43429408891060084 0.522227650219834
0.34116411199966024 0.4382022471910112 0.5280898876404494
0.3413537209999049 0.43917928676111373 0.533952125061065
0.34154360599995925 0.4401563263312165 0.5271128480703469
0.34173313999963284 0.4430874450415241 0.5232046897899365
0.3419234149996555 0.4450415241817294 0.5212506106497312
0.3421134679997522 0.4450415241817294 0.5065950170981925
0.34230224199973236 0.4450415241817294 0.49682462139716654
0.3424910909998289 0.4460185637518319 0.48900830483634583
0.34267968099993595 0.4430874450415241 0.48412310698583294
0.34286845499991614 0.44406448461162684 0.4802149487054226
0.34305710099988573 0.4401563263312165 0.4811919882755251
0.34324609799978134 0.4382022471910112 0.4763067904250122
0.34343461299977207 0.4382022471910112 0.4811919882755251
0.3436230729998897 0.431362970200293 0.4831460674157304
0.3438126249998277 0.42745481191988266 0.48705422569614076
0.3440016409999771 0.4284318514899854 0.49877870053737183
0.3441933419999259 0.4255007327796776 0.495847581827064
0.3443832640000437 0.4284318514899854 0.49877870053737183
0.34457207599962203 0.42745481191988266 0.5046409379579873
0.34476046199961274 0.42745481191988266 0.5105031753786029
0.3449486810000053 0.4255007327796776 0.5095261358085001
0.34513734499978455 0.431362970200293 0.5134342940889105
0.3453264719996696 0.4303859306301905 0.5134342940889105
0.3455146349997449 0.431362970200293 0.5114802149487054
0.34570374299983087 0.4323400097703958 0.5153883732291158
0.3458921849996841 0.4333170493404983 0.5183194919394236
0.34607986699984394 0.4303859306301905 0.5261358085002443
0.3462687339997501 0.4323400097703958 0.5300439667806547
0.346457786999963 0.4333170493404983 0.5310210063507572
0.3466457099998479 0.4303859306301905 0.5280898876404494
0.34683378099998663 0.4333170493404983 0.5232046897899365
0.34702227799971297 0.43429408891060084 0.5153883732291158
0.34721053399971424 0.43722520762090866 0.5075720566682951
0.3473997899995993 0.4352711284807034 0.4978016609672691
0.3475873799998226 0.43722520762090866 0.486077186126038
0.3477753029997075 0.441133365901319 0.4763067904250122
0.34796350299984624 0.44211040547142155 0.4665363947239862
0.3481520189998264 0.4430874450415241 0.45676599902296044
0.34835181199969156 0.4479726428920372 0.45188080117244755
0.34854008699994665 0.44406448461162684 0.4479726428920372
0.34872886099992684 0.4479726428920372 0.441133365901319
0.34891769199975897 0.4460185637518319 0.43917928676111373
0.3491064479999295 0.4460185637518319 0.4284318514899854
0.349294240999825 0.4450415241817294 0.42256961406936977
0.34948303399960423 0.4479726428920372 0.40889106008793363
0.3496717169996373 0.4479726428920372 0.4049829018075233
0.34986228799971286 0.4460185637518319 0.3981436248168051
0.3500515619998623 0.44894968246213973 0.39228138739618945
0.35024070700001175 0.4528578407425501 0.38641914997557403
0.350429055999939 0.45481191988275516 0.38251099169516367
0.3506180719996337 0.457743038593063 0.38153395212506114
0.35080706899998404 0.4636052760136786 0.3834880312652662
0.35099599199975273 0.46165119687347334 0.38641914997557403
0.3511845809998704 0.46262823644357587 0.3932584269662922
0.35137367099969197 0.46262823644357587 0.39912066438690763
0.3515630379997674 0.46946751343429405 0.40205178309721545
0.35175218299991684 0.4665363947239862 0.4079140205178309
0.3519411989996115 0.4684904738641915 0.40986809965803617
0.35212950999994064 0.4665363947239862 0.412799218368344
0.35240028399994117 0.4655593551538837 0.4186614557889594
0.3527105749999464 0.46165119687347334 0.4186614557889594
0.3529062569996313 0.46458231558378116 0.4206155349291647
0.3530977359996541 0.46458231558378116 0.4206155349291647
0.35328795499981425 0.4636052760136786 0.41963849535906195
0.35347791499998493 0.46458231558378116 0.41475329750854906
0.35366781899983835 0.4655593551538837 0.4157303370786516
0.35385675999987143 0.4636052760136786 0.41475329750854906
0.3540470909997566 0.4665363947239862 0.41670737664875435
0.35423592099959933 0.4665363947239862 0.4176844162188569
0.35442567699965366 0.47142159257449934 0.42159257449926724
0.3546150629999829 0.4684904738641915 0.4323400097703958
0.35480465299997377 0.46946751343429405 0.4323400097703958
0.35499318699976357 0.46946751343429405 0.4284318514899854
0.35518173899981775 0.4733756717147044 0.4255007327796776
0.3553704949999883 0.4733756717147044 0.4176844162188569
0.35555899199971464 0.47142159257449934 0.41963849535906195
0.3557476749997477 0.4684904738641915 0.4186614557889594
0.35593633799999225 0.4704445530043966 0.4235466536394723
0.35612542799981384 0.4733756717147044 0.42452369320957506
0.3563181839999743 0.4753297508549097 0.4235466536394723
0.356506698999965 0.47728382999511476 0.42452369320957506
0.35669615899996643 0.47435271128480694 0.4264777723497801
0.35688560099970346 0.4733756717147044 0.4255007327796776
0.3570754309998847 0.47142159257449934 0.4235466536394723
0.3572645019999072 0.4704445530043966 0.4264777723497801
0.3574533689998134 0.4665363947239862 0.42256961406936977
0.3576426259996879 0.46165119687347334 0.4206155349291647
0.3578317149999748 0.45969711773326827 0.4137762579384465
0.35802073099966947 0.4587200781631655 0.40693698094772834
0.358210023999618 0.45188080117244755 0.39912066438690763
0.35839907599984144 0.44894968246213973 0.39228138739618945
0.3585878330000014 0.44894968246213973 0.3932584269662922
0.35877745899961155 0.4460185637518319 0.3981436248168051
0.35896727099998316 0.4479726428920372 0.4059599413776258
0.3591561379998893 0.4430874450415241 0.41670737664875435
0.359345060999658 0.44211040547142155 0.4323400097703958
0.3595341139998709 0.4460185637518319 0.4401563263312165
0.3597227219997876 0.4450415241817294 0.44699560332193444
0.3599114409998947 0.4430874450415241 0.4606741573033708
0.36010101199963174 0.44211040547142155 0.47239863214460187
0.36029019399984463 0.4401563263312165 0.47923790913532005
0.3604787839999517 0.44406448461162684 0.4929164631167562
0.3606672439996146 0.44211040547142155 0.49877870053737183
0.3608556479998697 0.4401563263312165 0.5036638983878847
0.3610444969999662 0.4401563263312165 0.5134342940889105
0.3612330490000204 0.441133365901319 0.5056179775280898
0.36142169499999 0.43917928676111373 0.5056179775280898
0.36161017299991727 0.441133365901319 0.5173424523693209
0.36179815099967527 0.4382022471910112 0.5163654127992183
0.3619869449998987 0.43917928676111373 0.5202735710796287
0.3621756819998154 0.4430874450415241 0.522227650219834
0.3623639939996792 0.441133365901319 0.5280898876404494
0.36255230599999777 0.4401563263312165 0.5300439667806547
0.3627415989999463 0.441133365901319 0.5349291646311676
0.3629302809999899 0.43722520762090866 0.5427454811919883
0.3631193709998115 0.43722520762090866 0.540791402051783
0.36330777499961187 0.441133365901319 0.5398143624816805
0.36349621699991985 0.4401563263312165 0.5368832437713726
0.36368536199961454 0.43917928676111373 0.5310210063507572
0.3638735810000071 0.43917928676111373 0.5271128480703469
0.3640618929998709 0.43624816805080613 0.5280898876404494
0.364272149000044 0.43624816805080613 0.5192965315095261
0.36446116399974926 0.4333170493404983 0.5153883732291158
0.36464943900000435 0.4333170493404983 0.5095261358085001
0.3648377689996778 0.431362970200293 0.5075720566682951
0.3650273219996052 0.4303859306301905 0.5065950170981925
0.36521659699974407 0.4303859306301905 0.5036638983878847
0.36541201899990483 0.4284318514899854 0.5056179775280898
0.3656114789996536 0.42745481191988266 0.5065950170981925
0.3658058279997931 0.4264777723497801 0.5085490962383976
0.36599595400002727 0.42940889106008795 0.5065950170981925
0.36619050699982836 0.4264777723497801 0.5056179775280898
0.366381225999703 0.42452369320957506 0.5056179775280898
0.36657138999999006 0.42452369320957506 0.5036638983878847
0.3667602379996424 0.4235466536394723 0.49682462139716654
0.366948883999612 0.42452369320957506 0.48412310698583294
0.367138120999698 0.4264777723497801 0.4684904738641915
0.3673277660000167 0.4235466536394723 0.44992672203224227
0.36751765199960573 0.42940889106008795 0.4264777723497801
0.367707259999861 0.431362970200293 0.4049829018075233
0.36789597899996807 0.431362970200293 0.3913043478260869
0.36808523599984255 0.431362970200293 0.3903273082559844
0.3682777139997597 0.431362970200293 0.3854421104054715
0.3684753219999948 0.43429408891060084 0.40205178309721545
0.3687666139999237 0.441133365901319 0.4040058622374205
0.3689617769996403 0.43917928676111373 0.40889106008793363
0.36915184800000134 0.441133365901319 0.4157303370786516
0.3693414929998653 0.44211040547142155 0.42256961406936977
0.3695298049997291 0.44211040547142155 0.4264777723497801
0.3697180799999842 0.4430874450415241 0.4303859306301905
0.36991848399975424 0.44406448461162684 0.42940889106008795
0.3701085179995971 0.4450415241817294 0.4255007327796776
0.3702970330000426 0.44992672203224227 0.42256961406936977
0.370485455999642 0.4509037616023448 0.4108451392281387
0.3706740089996856 0.4538348803126526 0.40693698094772834
0.37086298699978215 0.457743038593063 0.40693698094772834
0.3710516689998258 0.457743038593063 0.40009770395701016
0.37124048099985885 0.4606741573033708 0.4010747435271129
0.371429125999839 0.46165119687347334 0.39912066438690763
0.37161803099979807 0.45969711773326827 0.3961895456765998
0.3718062129996724 0.46165119687347334 0.3961895456765998
0.37199459899966314 0.46458231558378116 0.39912066438690763
0.37218700299990815 0.457743038593063 0.4049829018075233
0.3723749819996556 0.45676599902296044 0.40889106008793363
0.37256353399970976 0.4606741573033708 0.41475329750854906
0.37275249399999666 0.46165119687347334 0.41670737664875435
0.37294113899997683 0.4665363947239862 0.41670737664875435
0.37313030299992533 0.46165119687347334 0.4186614557889594
0.37331835499981025 0.46262823644357587 0.42256961406936977
0.3735067039997375 0.4665363947239862 0.42256961406936977
0.37369607099981295 0.46946751343429405 0.42452369320957506
0.37388514199983547 0.4753297508549097 0.4235466536394723
0.37407439899970996 0.4802149487054226 0.4235466536394723
0.3742637659997854 0.48216902784562765 0.42256961406936977
0.37445263299969156 0.48216902784562765 0.42256961406936977
0.37464220399988335 0.4802149487054226 0.41963849535906195
0.37483075699992696 0.4880312652662433 0.4157303370786516
0.37502029099960055 0.4782608695652173 0.412799218368344
0.3752097319998029 0.4753297508549097 0.4059599413776258
0.3753992849997303 0.47239863214460187 0.4079140205178309
0.37558889299998555 0.4704445530043966 0.403028822667318
0.3757784639997226 0.467513434294089 0.3981436248168051
0.37596734999988257 0.4655593551538837 0.3981436248168051
0.3761563099997147 0.467513434294089 0.3952125061064973
0.3763693799996872 0.46165119687347334 0.39716658524670256
0.37655863700001646 0.4606741573033708 0.39716658524670256
0.37674750399992263 0.4606741573033708 0.40205178309721545
0.37693640799989225 0.4606741573033708 0.40205178309721545
0.37712481299968204 0.45969711773326827 0.4059599413776258
0.37731310599974677 0.4606741573033708 0.4079140205178309
0.37750152899980094 0.46165119687347334 0.41182217879824123
0.3776899519998551 0.45969711773326827 0.4176844162188569
0.3778786709999622 0.45481191988275516 0.42159257449926724
0.3780675939997309 0.45481191988275516 0.4255007327796776
0.37825568299967927 0.4557889594528579 0.42745481191988266
0.37844410599973344 0.45676599902296044 0.4333170493404983
0.37863265899977705 0.45676599902296044 0.43624816805080613
0.37882235899996886 0.4587200781631655 0.43917928676111373
0.3790105599996423 0.46262823644357587 0.44211040547142155
0.37919883499989737 0.46262823644357587 0.44406448461162684
0.3793870539998352 0.46262823644357587 0.44992672203224227
0.379575587999625 0.46262823644357587 0.45188080117244755
0.37976434399979553 0.4655593551538837 0.4606741573033708
0.37995317499962766 0.4636052760136786 0.4606741573033708
0.3801419309997982 0.46262823644357587 0.47142159257449934
0.3803387049997582 0.4557889594528579 0.4811919882755251
0.380526887999622 0.44992672203224227 0.48900830483634583
0.3807154029996127 0.4479726428920372 0.49877870053737183
0.3809052699998574 0.44699560332193444 0.5085490962383976
0.38109472999985883 0.441133365901319 0.5153883732291158
0.3812834870000188 0.4430874450415241 0.522227650219834
0.38147289099970294 0.44211040547142155 0.5271128480703469
0.3816622579997784 0.4401563263312165 0.5310210063507572
0.3818511069998749 0.43917928676111373 0.5319980459208598
0.38204036299975996 0.4352711284807034 0.5271128480703469
0.382229489999645 0.43429408891060084 0.5261358085002443
0.3824183019996781 0.43429408891060084 0.5261358085002443
0.38260733599963714 0.4303859306301905 0.5280898876404494
0.38279725899974437 0.4352711284807034 0.5388373229115779
0.3829870699996718 0.43624816805080613 0.5349291646311676
0.38317554900004325 0.4284318514899854 0.5388373229115779
0.3833646569996745 0.4323400097703958 0.540791402051783
0.38355359799970756 0.431362970200293 0.5437225207620908
0.3837444659998255 0.4284318514899854 0.5476306790425012
0.3839365369999541 0.4264777723497801 0.5476306790425012
0.38412534799999776 0.42256961406936977 0.5456765999022961
0.3843160859996715 0.42256961406936977 0.540791402051783
0.3845060089997787 0.42159257449926724 0.5329750854909623
0.3846948020000127 0.41963849535906195 0.5202735710796287
0.3848840209998343 0.4176844162188569 0.5065950170981925
0.3850735739997617 0.41475329750854906 0.49193942354665365
0.3852625889999217 0.4137762579384465 0.4802149487054226
0.3854520119998597 0.4137762579384465 0.467513434294089
0.3856408429996918 0.41182217879824123 0.4655593551538837
0.38582976499992583 0.412799218368344 0.4636052760136786
0.38601931799985323 0.412799218368344 0.47142159257449934
0.3862080369999603 0.41182217879824123 0.47728382999511476
0.386396644999877 0.412799218368344 0.48705422569614076
0.38658501299960335 0.412799218368344 0.4948705422569615
0.386773601999721 0.4137762579384465 0.49975574010747437
0.386962044000029 0.41475329750854906 0.5036638983878847
0.38715074399988225 0.4186614557889594 0.5075720566682951
0.38733951899985186 0.42256961406936977 0.5036638983878847
0.38752777499985314 0.42452369320957506 0.5007327796775769
0.38771647599969583 0.4323400097703958 0.49877870053737183
0.38790469499963365 0.43624816805080613 0.495847581827064
0.3880933030000051 0.4401563263312165 0.495847581827064
0.3882821329998478 0.441133365901319 0.486077186126038
0.38847068599989143 0.44406448461162684 0.4802149487054226
0.3886593129996072 0.4450415241817294 0.47239863214460187
0.38884751299974596 0.4479726428920372 0.45969711773326827
0.38903650999964157 0.44406448461162684 0.44992672203224227
0.3892244519997803 0.44406448461162684 0.441133365901319
0.38941272600004595 0.44211040547142155 0.441133365901319
0.389601945999857 0.4479726428920372 0.441133365901319
0.3897907569999006 0.4430874450415241 0.4401563263312165
0.3899806429999444 0.44406448461162684 0.4382022471910112
0.39016960299977654 0.4479726428920372 0.4333170493404983
0.3903591929997674 0.45188080117244755 0.42745481191988266
0.390548096999737 0.4528578407425501 0.4186614557889594
0.39073694599983355 0.4557889594528579 0.4137762579384465
0.3909269239998139 0.45969711773326827 0.4108451392281387
0.39111529199999495 0.4557889594528579 0.4108451392281387
0.39130404799971075 0.4557889594528579 0.4049829018075233
0.39149317399960637 0.4538348803126526 0.4040058622374205
0.39168176399971344 0.45188080117244755 0.39228138739618945
0.3918704829998205 0.44992672203224227 0.38935026868588185
0.3920593689999805 0.4479726428920372 0.38446507083536874
0.392261698999846 0.4479726428920372 0.3854421104054715
0.39245214099992154 0.4460185637518319 0.37176355642403514
0.3926414519996797 0.4460185637518319 0.3707865168539326
0.3928303009997762 0.44992672203224227 0.36980947728383007
0.39301868699976694 0.4538348803126526 0.3688324377137273
0.39320748000000094 0.457743038593063 0.3659013190034197
0.3933962179999071 0.4606741573033708 0.3629702002931119
0.3935857709998345 0.467513434294089 0.35906204201270153
0.3937742119996983 0.4802149487054226 0.35710796287249624
0.39396328299972083 0.4763067904250122 0.3551538837322912
0.3941517799999019 0.4802149487054226 0.3551538837322912
0.39434090699978697 0.48412310698583294 0.35906204201270153
0.39453014399987296 0.486077186126038 0.3629702002931119
0.39471895599990603 0.48900830483634583 0.36980947728383007
0.3949071379997804 0.4851001465559355 0.3756717147044455
0.3950960799998029 0.48705422569614076 0.3786028334147533
0.3952848169997196 0.4831460674157304 0.3834880312652662
0.39547322199996415 0.4811919882755251 0.38935026868588185
0.39566158899970105 0.4763067904250122 0.3952125061064973
0.3958498269998927 0.4733756717147044 0.3952125061064973
0.39603808299989396 0.46946751343429405 0.39228138739618945
0.3962268209998001 0.4704445530043966 0.3952125061064973
0.39641465099975903 0.46262823644357587 0.3854421104054715
0.3966034629997921 0.4606741573033708 0.3805569125549584
0.3967920149998463 0.457743038593063 0.3776257938446508
0.39698099399993225 0.46262823644357587 0.37176355642403514
0.39716897199969026 0.45676599902296044 0.37469467513434296
0.39735735799968097 0.4528578407425501 0.38446507083536874
0.39754583699959767 0.4509037616023448 0.38935026868588185
0.39773416699972586 0.44699560332193444 0.40205178309721545
0.39792232999980115 0.4479726428920372 0.412799218368344
0.39811043899999277 0.4479726428920372 0.4255007327796776
0.39829913899984604 0.4430874450415241 0.4401563263312165
0.39849015499976304 0.4430874450415241 0.44699560332193444
0.3986793179997221 0.4430874450415241 0.4528578407425501
0.3988675749997128 0.4430874450415241 0.45969711773326827
0.399056219999693 0.4430874450415241 0.4655593551538837
0.3992450679998001 0.4430874450415241 0.4733756717147044
0.3994332319998648 0.4430874450415241 0.4811919882755251
0.3996220809999613 0.44406448461162684 0.4831460674157304
0.3998110219999944 0.4460185637518319 0.5007327796775769
0.39999907499986875 0.4430874450415241 0.5046409379579873
0.40018796100002874 0.441133365901319 0.522227650219834
0.4003756799997973 0.43917928676111373 0.5359062042012701
0.40056502899960833 0.4401563263312165 0.5476306790425012
0.40075341499959904 0.441133365901319 0.5525158768930141
0.4009427629998754 0.4430874450415241 0.5564240351734244
0.40113125999960175 0.4450415241817294 0.5564240351734244
0.4013194429999203 0.45188080117244755 0.5564240351734244
0.40150745799974175 0.44894968246213973 0.5603321934538348
0.4016960479998488 0.44894968246213973 0.5603321934538348
0.4018849709996175 0.44699560332193444 0.5603321934538348
0.4020731339996928 0.4460185637518319 0.5603321934538348
0.40226120499983153 0.4450415241817294 0.5583781143136297
0.4024491840000337 0.44406448461162684 0.5652173913043479
0.40263769900002444 0.44211040547142155 0.5583781143136297
0.4028263629998037 0.441133365901319 0.5564240351734244
0.4030155629998262 0.44406448461162684 0.5564240351734244
0.40320400499967946 0.43917928676111373 0.5564240351734244
0.40339227999993454 0.4401563263312165 0.5486077186126037
0.403580294999756 0.43624816805080613 0.5486077186126037
0.40376892199992653 0.441133365901319 0.540791402051783
0.403957158999674 0.441133365901319 0.5398143624816805
0.40414489699969636 0.44406448461162684 0.5319980459208598
0.40434352399961426 0.44406448461162684 0.522227650219834
0.40453270599982716 0.44406448461162684 0.5153883732291158
0.40472081400002935 0.44406448461162684 0.5085490962383976
0.404909939999925 0.4450415241817294 0.5017098192476794
0.40509897399988404 0.4460185637518319 0.49682462139716654
0.40528735999987475 0.44211040547142155 0.48998534440644836
0.40547552399993947 0.4401563263312165 0.486077186126038
0.40566455799989853 0.43624816805080613 0.48216902784562765
0.405852665999646 0.43722520762090866 0.4782608695652173
0.4060416259999329 0.4352711284807034 0.4753297508549097
0.4062314009997863 0.43722520762090866 0.4782608695652173
0.40642163799975606 0.4382022471910112 0.47923790913532005
0.4066106719997151 0.43722520762090866 0.48216902784562765
0.40679983599966363 0.4479726428920372 0.4851001465559355
0.40698799999972834 0.45188080117244755 0.4909623839765511
0.40717671899983543 0.4557889594528579 0.48412310698583294
0.40736562299980505 0.45969711773326827 0.48412310698583294
0.40755410199972175 0.46262823644357587 0.4782608695652173
0.4077429129997654 0.46458231558378116 0.4684904738641915
0.40793133599981957 0.46458231558378116 0.4587200781631655
0.4081196299998737 0.46458231558378116 0.44699560332193444
0.4083076449996952 0.46458231558378116 0.4352711284807034
0.40849590099969646 0.4665363947239862 0.42256961406936977
0.4086842869996872 0.46165119687347334 0.40986809965803617
0.4088721359998999 0.45969711773326827 0.3913043478260869
0.409063113999764 0.457743038593063 0.376648754274548
0.4092528889996174 0.45481191988275516 0.3688324377137273
0.4094407749998936 0.44992672203224227 0.3629702002931119
0.409628734999842 0.45188080117244755 0.36492427943331696
0.4098251759996856 0.44992672203224227 0.3659013190034197
0.41001495099999374 0.44894968246213973 0.3688324377137273
0.41020315199966717 0.4528578407425501 0.37274059599413767
0.41039225999975315 0.4528578407425501 0.376648754274548
0.41058018299963805 0.4557889594528579 0.3834880312652662
0.4107690129999355 0.45676599902296044 0.38641914997557403
0.41095730600000024 0.45969711773326827 0.38935026868588185
0.4111456549999275 0.4606741573033708 0.38641914997557403
0.4113345589998971 0.4606741573033708 0.3786028334147533
0.41152309399967635 0.46946751343429405 0.3678553981436248
0.4117117569999209 0.4636052760136786 0.36199316072300936
0.4119000689997847 0.4636052760136786 0.3512457254518808
0.41208802899973307 0.46165119687347334 0.3502686858817783
0.41227684099976614 0.4636052760136786 0.3551538837322912
0.41246602299997903 0.4636052760136786 0.35710796287249624
0.41265440899996975 0.4606741573033708 0.3629702002931119
0.4128433689998019 0.46262823644357587 0.37274059599413767
0.41303162499980317 0.467513434294089 0.3707865168539326
0.4132202509999843 0.467513434294089 0.3786028334147533
0.4134086929998375 0.4684904738641915 0.38251099169516367
0.4135971339997013 0.47142159257449934 0.38641914997557403
0.41378590899967094 0.47239863214460187 0.38446507083536874
0.4139742389997991 0.4753297508549097 0.3805569125549584
0.4141629030000331 0.4782608695652173 0.38153395212506114
0.41435184399961145 0.4782608695652173 0.3786028334147533
0.4145416749997821 0.4733756717147044 0.3786028334147533
0.41473065299987866 0.47239863214460187 0.3786028334147533
0.4149193349999223 0.47728382999511476 0.3805569125549584
0.4151082029998179 0.47239863214460187 0.3834880312652662
0.4152975699998933 0.4733756717147044 0.3834880312652662
0.4154866779999793 0.4733756717147044 0.39228138739618945
0.4156754339996951 0.4753297508549097 0.3854421104054715
0.4158636529996329 0.4763067904250122 0.3932584269662922
0.41605227999980343 0.4802149487054226 0.3952125061064973
0.4162515549996897 0.4831460674157304 0.3913043478260869
0.4164419399999133 0.4802149487054226 0.3952125061064973
0.4166321039997456 0.48216902784562765 0.4049829018075233
0.4168207859997892 0.48412310698583294 0.4137762579384465
