0 0.431362970200293 0.4851001465559355
0.000511825000103272 0.4137762579384465 0.4880312652662433
0.0007957269999678829 0.412799218368344 0.4880312652662433
0.0013996060001773003 0.4479726428920372 0.4831460674157304
0.0016742870002417476 0.45969711773326827 0.4831460674157304
0.001875986999948509 0.467513434294089 0.486077186126038
0.002069372999812913 0.46946751343429405 0.48412310698583294
0.0022615550001319207 0.46946751343429405 0.4948705422569615
0.002451478000239149 0.4665363947239862 0.495847581827064
0.002642307999849436 0.46165119687347334 0.495847581827064
0.0028331190001154027 0.4665363947239862 0.49877870053737183
0.003021839000211912 0.4606741573033708 0.4978016609672691
0.0032115389999489707 0.4587200781631655 0.49877870053737183
0.0034086280002156855 0.4557889594528579 0.49975574010747437
0.003598717999921064 0.4509037616023448 0.5007327796775769
0.0037890300000071875 0.4460185637518319 0.4938935026868587
0.003979563000029884 0.43917928676111373 0.4929164631167562
0.004170079000232363 0.4382022471910112 0.48900830483634583
0.004359502000170323 0.43624816805080613 0.4831460674157304
0.004548998000245774 0.4382022471910112 0.4782608695652173
0.004738977000215527 0.44211040547142155 0.4802149487054226
0.004928325000037148 0.4430874450415241 0.47142159257449934
0.005117581999911636 0.44894968246213973 0.4655593551538837
0.005307300999902509 0.45188080117244755 0.4655593551538837
0.005497168000147212 0.44992672203224227 0.4665363947239862
0.005686942000011186 0.4538348803126526 0.4704445530043966
0.005876920999980939 0.4538348803126526 0.4665363947239862
0.006066140000257292 0.4528578407425501 0.4636052760136786
0.006257377000110864 0.4538348803126526 0.46165119687347334
0.00646468900004038 0.4557889594528579 0.4538348803126526
0.006666296999810584 0.45188080117244755 0.4460185637518319
0.006894829999964713 0.44699560332193444 0.43722520762090866
0.007173585000145977 0.4460185637518319 0.42940889106008795
0.007443413000146393 0.45676599902296044 0.4255007327796776
0.0076715019999937795 0.4528578407425501 0.4255007327796776
0.007875128000250697 0.4538348803126526 0.431362970200293
0.008109938999950828 0.45188080117244755 0.43624816805080613
0.00864813399994091 0.4587200781631655 0.457743038593063
0.009434936000161542 0.4587200781631655 0.45676599902296044
0.009650728999986313 0.4587200781631655 0.4587200781631655
0.009855262000201037 0.46165119687347334 0.457743038593063
0.010068350999972608 0.4636052760136786 0.45676599902296044
0.01027671800011376 0.4665363947239862 0.45676599902296044
0.010480400000233203 0.47239863214460187 0.4606741573033708
0.01067606300011903 0.47728382999511476 0.46458231558378116
0.010872633999952086 0.48216902784562765 0.46262823644357587
0.01106970499995441 0.48216902784562765 0.457743038593063
0.011285905000022467 0.4851001465559355 0.4528578407425501
0.011518105000050127 0.4811919882755251 0.45481191988275516
0.011862748000112333 0.47728382999511476 0.44211040547142155
0.012415683000199351 0.4948705422569615 0.44406448461162684
0.012629050000214193 0.4909623839765511 0.43429408891060084
0.012859174999903189 0.4909623839765511 0.4264777723497801
0.013143004000085057 0.48705422569614076 0.412799218368344
0.01339607399995657 0.4811919882755251 0.3952125061064973
0.013602496000203246 0.47435271128480694 0.3854421104054715
0.013804029999846534 0.4684904738641915 0.37957987298485585
0.01400221199992302 0.46458231558378116 0.36687835857352225
0.01420059800011586 0.4636052760136786 0.36003908158280407
0.014398650000202906 0.457743038593063 0.3610161211529066
0.01459544299996196 0.4538348803126526 0.35710796287249624
0.01479166199987958 0.4538348803126526 0.3639472398632144
0.01498886199988192 0.4538348803126526 0.3707865168539326
0.01519237799993789 0.45188080117244755 0.37469467513434296
0.015391947999887634 0.45188080117244755 0.38153395212506114
0.015591777999816259 0.4509037616023448 0.38935026868588185
0.015785181999945053 0.4587200781631655 0.3961895456765998
0.01597610499993607 0.45969711773326827 0.4049829018075233
0.016166158000032738 0.4606741573033708 0.4079140205178309
0.016361469000003126 0.4606741573033708 0.41670737664875435
0.016555040000184817 0.45969711773326827 0.4255007327796776
0.0167481480002607 0.4557889594528579 0.43429408891060084
0.01697153299983256 0.44894968246213973 0.44406448461162684
0.017166030000225874 0.44406448461162684 0.45188080117244755
0.017360285999984626 0.43917928676111373 0.46165119687347334
0.017556541999965702 0.4333170493404983 0.467513434294089
0.017868704000193247 0.4333170493404983 0.4704445530043966
0.018067310999867914 0.4333170493404983 0.46946751343429405
0.018260827000176505 0.43722520762090866 0.4684904738641915
0.018456194000009418 0.4450415241817294 0.4704445530043966
0.018647949999831326 0.44894968246213973 0.47435271128480694
0.01884033599981194 0.457743038593063 0.4763067904250122
0.01903781400005755 0.4606741573033708 0.4782608695652173
0.01923201399995378 0.4587200781631655 0.4802149487054226
0.01948673200013218 0.4587200781631655 0.4782608695652173
0.019694524999977148 0.4557889594528579 0.4802149487054226
0.019900522000170895 0.44894968246213973 0.4851001465559355
0.02010677799989935 0.4430874450415241 0.4938935026868587
0.02031147800016697 0.4382022471910112 0.48998534440644836
0.02051721499992709 0.4333170493404983 0.4909623839765511
0.020721786000194697 0.431362970200293 0.4909623839765511
0.02092696799991245 0.4284318514899854 0.4938935026868587
0.021128852999936498 0.4303859306301905 0.4938935026868587
0.021340201999919373 0.4323400097703958 0.4978016609672691
0.021544030999848474 0.431362970200293 0.49193942354665365
0.021750584000074014 0.4333170493404983 0.4909623839765511
0.021953062000193313 0.43624816805080613 0.4880312652662433
0.02215674399985801 0.43917928676111373 0.4909623839765511
0.022360722000030364 0.43917928676111373 0.4938935026868587
0.02256345900013912 0.4450415241817294 0.5017098192476794
0.022777215000132855 0.44211040547142155 0.5085490962383976
0.022982951999892975 0.44406448461162684 0.5173424523693209
0.02319015200009744 0.4460185637518319 0.5319980459208598
0.023395908000111376 0.44894968246213973 0.5398143624816805
0.023595145999934175 0.44992672203224227 0.550561797752809
0.023792215999947075 0.4538348803126526 0.5525158768930141
0.023987213000054908 0.45969711773326827 0.5574010747435272
0.024228208999829803 0.46262823644357587 0.5476306790425012
0.02460312899984274 0.4636052760136786 0.5310210063507572
0.02494147500010513 0.467513434294089 0.5163654127992183
0.025340412999867112 0.467513434294089 0.49682462139716654
0.02577107300021453 0.46458231558378116 0.46946751343429405
0.02603164199990715 0.4636052760136786 0.4587200781631655
0.026235269000153494 0.4665363947239862 0.45481191988275516
0.0264319500001875 0.46165119687347334 0.4479726428920372
0.026628336000158015 0.46165119687347334 0.4460185637518319
0.02682140700017044 0.457743038593063 0.43917928676111373
0.027021200000035606 0.4557889594528579 0.4382022471910112
0.027221530000133498 0.4587200781631655 0.4382022471910112
0.027496729000176856 0.45676599902296044 0.4303859306301905
0.02769689200022185 0.46262823644357587 0.4284318514899854
0.027892519000033644 0.467513434294089 0.4352711284807034
0.028084367000246857 0.46946751343429405 0.431362970200293
0.028274419999888778 0.47239863214460187 0.4323400097703958
0.028466694000144344 0.4753297508549097 0.43722520762090866
0.028662173000157054 0.4763067904250122 0.4303859306301905
0.02885379899998952 0.48216902784562765 0.4264777723497801
0.029046870000001945 0.4811919882755251 0.4235466536394723
0.02924412599986681 0.4811919882755251 0.41963849535906195
0.02945221500021944 0.4811919882755251 0.42159257449926724
0.02965339699994729 0.47239863214460187 0.40986809965803617
0.029854041999897163 0.4665363947239862 0.3981436248168051
0.030062463999911415 0.45969711773326827 0.3883732291157791
0.030265109000083612 0.44699560332193444 0.35710796287249624
0.03134051699998963 0.4049829018075233 0.3678553981436248
0.03190274899998258 0.40986809965803617 0.403028822667318
0.03230992699991475 0.4264777723497801 0.4157303370786516
0.03263701400010177 0.4430874450415241 0.4186614557889594
0.03302224900016881 0.47142159257449934 0.42159257449926724
0.033295818000169675 0.48412310698583294 0.4206155349291647
0.033509258999856684 0.5026868588177822 0.41475329750854906
0.03411369300010847 0.5212506106497312 0.42256961406936977
0.034434207000231254 0.5271128480703469 0.46262823644357587
0.03506584400020074 0.524181729360039 0.4811919882755251
0.03558298400002968 0.5153883732291158 0.47435271128480694
0.03581657299992003 0.5095261358085001 0.46458231558378116
0.03603508800006239 0.5026868588177822 0.4636052760136786
0.03629078699987076 0.4909623839765511 0.4509037616023448
0.03668261400025585 0.46946751343429405 0.4430874450415241
0.03720686399992701 0.4430874450415241 0.44211040547142155
0.037794836000102805 0.4303859306301905 0.4460185637518319
0.03812316399989868 0.4382022471910112 0.43917928676111373
0.038431807000051776 0.46946751343429405 0.43917928676111373
0.03893326200022784 0.49877870053737183 0.4352711284807034
0.03919235000012122 0.5075720566682951 0.4333170493404983
0.03945379000015237 0.5056179775280898 0.4401563263312165
0.03975326699992365 0.4880312652662433 0.45969711773326827
0.03996789299981174 0.4802149487054226 0.48705422569614076
0.04017085199984649 0.45969711773326827 0.5085490962383976
0.04037034900011349 0.44211040547142155 0.5280898876404494
0.040573105000021314 0.4235466536394723 0.5417684416218858
0.040777787000024546 0.41475329750854906 0.5495847581827065
0.04097765400001663 0.4010747435271129 0.5583781143136297
0.04118063199985045 0.3913043478260869 0.5622862725940401
0.041382054000223434 0.3834880312652662 0.5681485100146555
0.04159369900025922 0.37469467513434296 0.5564240351734244
0.04202830299982452 0.37176355642403514 0.5456765999022961
0.04229103900024711 0.3678553981436248 0.5202735710796287
0.042781865000051766 0.36492427943331696 0.5056179775280898
0.043068971000138845 0.3639472398632144 0.48998534440644836
0.04358368500015786 0.36980947728383007 0.48998534440644836
0.04381543999988935 0.3737176355642404 0.48900830483634583
0.044021065999913844 0.3805569125549584 0.4880312652662433
0.04423882199989748 0.3786028334147533 0.4938935026868587
0.044452763000208506 0.37957987298485585 0.49682462139716654
0.044657388999894465 0.38446507083536874 0.49975574010747437
0.04486436700017293 0.3903273082559844 0.5007327796775769
0.04507090100014466 0.39228138739618945 0.4978016609672691
0.04527830500001073 0.39716658524670256 0.495847581827064
0.045481079000182945 0.403028822667318 0.49877870053737183
0.04568748300016523 0.4059599413776258 0.4978016609672691
0.045895071999893844 0.4059599413776258 0.49877870053737183
0.046109717000035744 0.4176844162188569 0.49975574010747437
0.04631610200021896 0.4206155349291647 0.4938935026868587
0.04651869200006331 0.4303859306301905 0.49193942354665365
0.04672163299983367 0.44211040547142155 0.4831460674157304
0.04692542600014349 0.4509037616023448 0.47435271128480694
0.04711712600010287 0.4557889594528579 0.4636052760136786
0.04730867800026317 0.45969711773326827 0.4509037616023448
0.047497601000031864 0.4606741573033708 0.43917928676111373
0.047686654000244744 0.4655593551538837 0.431362970200293
0.047876465000172175 0.4665363947239862 0.4264777723497801
0.048065833000237035 0.46946751343429405 0.4176844162188569
0.048255996000079904 0.4733756717147044 0.412799218368344
0.04844654799990167 0.47142159257449934 0.412799218368344
0.0486374900001465 0.4684904738641915 0.40693698094772834
0.048827950000031706 0.4684904738641915 0.403028822667318
0.04909707500019067 0.46946751343429405 0.403028822667318
0.04930540499981362 0.47239863214460187 0.40009770395701016
0.04949995700008003 0.47728382999511476 0.3981436248168051
0.04968799100015531 0.4802149487054226 0.3913043478260869
0.049921467999865854 0.4909623839765511 0.3854421104054715
0.050126891000218166 0.4948705422569615 0.3834880312652662
0.05033418399989387 0.4948705422569615 0.38251099169516367
0.05052666199981104 0.4929164631167562 0.38251099169516367
0.050716028999886476 0.49193942354665365 0.38446507083536874
0.05093082199982746 0.4929164631167562 0.3883732291157791
0.05113415200003146 0.4880312652662433 0.3834880312652662
0.0513745180001024 0.4802149487054226 0.38446507083536874
0.05157666300010533 0.4851001465559355 0.38446507083536874
0.051783474999865575 0.4733756717147044 0.38251099169516367
0.051980804999857355 0.467513434294089 0.37957987298485585
0.05217146799986949 0.4665363947239862 0.3776257938446508
0.05236055800014583 0.46458231558378116 0.37469467513434296
0.05255353600023227 0.4684904738641915 0.37469467513434296
0.052768680000099266 0.4753297508549097 0.3756717147044455
0.05298504700022022 0.4802149487054226 0.37957987298485585
0.05318613700001151 0.4880312652662433 0.3854421104054715
0.053447335999862844 0.4929164631167562 0.38935026868588185
0.05368233199988026 0.49682462139716654 0.39716658524670256
0.05388723600026424 0.4929164631167562 0.40986809965803617
0.05408415900001273 0.48998534440644836 0.412799218368344
0.05429360000016459 0.4802149487054226 0.4206155349291647
0.05450422600006277 0.4733756717147044 0.4284318514899854
0.05470587099989643 0.4684904738641915 0.4401563263312165
0.05489355300005627 0.4636052760136786 0.4401563263312165
0.05508029000020542 0.4587200781631655 0.44406448461162684
0.05530139800021061 0.45676599902296044 0.441133365901319
0.05549315400003252 0.45676599902296044 0.441133365901319
0.05568000299990672 0.45969711773326827 0.42940889106008795
0.05586705499990785 0.4636052760136786 0.4206155349291647
0.0560535150002579 0.4684904738641915 0.4137762579384465
0.05623971600016375 0.47239863214460187 0.4108451392281387
0.056432082999890554 0.47728382999511476 0.4137762579384465
0.05662470900006156 0.47923790913532005 0.40986809965803617
0.056811928000115586 0.4802149487054226 0.4186614557889594
0.057003925000117306 0.4763067904250122 0.42452369320957506
0.057192884999949456 0.4753297508549097 0.43429408891060084
0.05737915999998222 0.4704445530043966 0.44406448461162684
0.057565805000194814 0.46458231558378116 0.4509037616023448
0.057751876000111224 0.45676599902296044 0.45969711773326827
0.05793789100016511 0.4557889594528579 0.46165119687347334
0.05812399900014498 0.4460185637518319 0.4665363947239862
0.05831208900008278 0.4352711284807034 0.467513434294089
0.058513603999927 0.4333170493404983 0.46946751343429405
0.058716471000025194 0.42159257449926724 0.46458231558378116
0.05904063200023302 0.4108451392281387 0.46262823644357587
0.05924257300011959 0.4049829018075233 0.45676599902296044
0.06011517000024469 0.41963849535906195 0.44211040547142155
0.06039525799997136 0.4303859306301905 0.441133365901319
0.0605995509999957 0.4382022471910112 0.44211040547142155
0.060831416999917565 0.45188080117244755 0.4479726428920372
0.06108094999990499 0.46458231558378116 0.4479726428920372
0.06129561299985653 0.46946751343429405 0.4509037616023448
0.06150138800012428 0.46946751343429405 0.45481191988275516
0.06171516199992766 0.4733756717147044 0.4587200781631655
0.06190847300013047 0.4704445530043966 0.46262823644357587
0.062096396000015375 0.4684904738641915 0.47142159257449934
0.06228468900008011 0.4636052760136786 0.48705422569614076
0.06247311200013428 0.4587200781631655 0.49682462139716654
0.06266134999987116 0.45969711773326827 0.5065950170981925
0.0628538099999787 0.45188080117244755 0.5153883732291158
0.06304510300014954 0.441133365901319 0.5202735710796287
0.06323415499991825 0.4382022471910112 0.522227650219834
0.06346896600007312 0.4333170493404983 0.5251587689301416
0.06365690700022242 0.4333170493404983 0.5202735710796287
0.0638434600000437 0.43624816805080613 0.5192965315095261
0.06403001199987557 0.43624816805080613 0.5173424523693209
0.06421754600023633 0.4352711284807034 0.5212506106497312
0.06441046899999492 0.4382022471910112 0.5202735710796287
0.0646223359999567 0.4382022471910112 0.5280898876404494
0.06484557300018423 0.43624816805080613 0.5280898876404494
0.0650475140000708 0.4333170493404983 0.5280898876404494
0.06524669600003108 0.4352711284807034 0.5300439667806547
0.06544589600025574 0.43429408891060084 0.5280898876404494
0.06564315200012061 0.4352711284807034 0.5183194919394236
0.06664904299987029 0.40205178309721545 0.5144113336590133
0.06686489100002291 0.3961895456765998 0.5163654127992183
0.06706848000021637 0.39716658524670256 0.5163654127992183
0.0673129759998119 0.403028822667318 0.5173424523693209
0.06751454699997339 0.4079140205178309 0.5232046897899365
0.06771689600009267 0.4079140205178309 0.5163654127992183
0.07108908000009251 0.6179775280898876 0.3737176355642404
0.07138827900007527 0.6033219345383487 0.36687835857352225
0.07158634999996139 0.5847581827063997 0.3639472398632144
0.07177505100025883 0.5749877870053737 0.3629702002931119
0.0719626220002283 0.550561797752809 0.3659013190034197
0.07215085899997575 0.5280898876404494 0.36003908158280407
0.07233713400000852 0.5065950170981925 0.36199316072300936
0.07252407499981928 0.4831460674157304 0.36003908158280407
0.0727107759998944 0.457743038593063 0.3678553981436248
0.07289740199985317 0.43624816805080613 0.3629702002931119
0.0730841770000552 0.4157303370786516 0.36687835857352225
0.07327239599999302 0.403028822667318 0.3688324377137273
0.07345854100003635 0.39716658524670256 0.37469467513434296
0.07364614900006927 0.3961895456765998 0.376648754274548
0.0738322390002395 0.3981436248168051 0.38153395212506114
0.07401949499990224 0.3961895456765998 0.3903273082559844
0.07420708400013609 0.4049829018075233 0.38935026868588185
0.07456398600015746 0.40889106008793363 0.39912066438690763
0.0747850190000463 0.40693698094772834 0.4040058622374205
0.07497327500004758 0.40009770395701016 0.40986809965803617
0.07516169800010175 0.38935026868588185 0.41475329750854906
0.07537038000009488 0.3786028334147533 0.41670737664875435
0.0755594510001174 0.36687835857352225 0.4157303370786516
0.07574641100018198 0.3629702002931119 0.4137762579384465
0.07593390800002453 0.36199316072300936 0.4137762579384465
0.07612175600024784 0.3629702002931119 0.4186614557889594
0.07630962400025965 0.3659013190034197 0.4206155349291647
0.0765001019999545 0.3707865168539326 0.42452369320957506
0.07668815399983941 0.3756717147044455 0.4264777723497801
0.07687722499986194 0.38446507083536874 0.4323400097703958
0.0770637219998207 0.3883732291157791 0.43917928676111373
0.07725018200017075 0.3961895456765998 0.4450415241817294
0.07743714200023533 0.403028822667318 0.4509037616023448
0.07762374999992971 0.40693698094772834 0.45676599902296044
0.0778097649999836 0.4108451392281387 0.45969711773326827
0.07799624400013272 0.4137762579384465 0.4636052760136786
0.07818262999990111 0.41475329750854906 0.45969711773326827
0.07836873799988098 0.41670737664875435 0.4636052760136786
0.07855497499986086 0.42159257449926724 0.46262823644357587
0.07955812499994863 0.4049829018075233 0.47435271128480694
0.07983317600019291 0.40009770395701016 0.4811919882755251
0.08003191399984644 0.3981436248168051 0.4909623839765511
0.08022263300017585 0.4059599413776258 0.4938935026868587
0.08041188900006091 0.41670737664875435 0.4948705422569615
0.08059921899985056 0.4284318514899854 0.5017098192476794
0.08078608599998915 0.43917928676111373 0.49682462139716654
0.0809728429999268 0.44894968246213973 0.5017098192476794
0.08115937699994902 0.4587200781631655 0.5026868588177822
0.08134904000007737 0.4636052760136786 0.5075720566682951
0.08154300000023795 0.4704445530043966 0.5105031753786029
0.08172999699991124 0.4704445530043966 0.5085490962383976
0.08191656799999691 0.47435271128480694 0.5095261358085001
0.08210445299982894 0.4733756717147044 0.5153883732291158
0.08229482100023233 0.47728382999511476 0.5144113336590133
0.08248194699990563 0.4733756717147044 0.5192965315095261
0.08266961100025583 0.4753297508549097 0.5183194919394236
0.0828570150001724 0.4763067904250122 0.5192965315095261
0.08304365999993024 0.47923790913532005 0.5173424523693209
0.08323058299993136 0.4782608695652173 0.5202735710796287
0.08345248700015873 0.4811919882755251 0.5202735710796287
0.08364068699984273 0.4802149487054226 0.5202735710796287
0.08382712899992839 0.4782608695652173 0.522227650219834
0.08401382900001408 0.4851001465559355 0.5153883732291158
0.08420271500017407 0.4802149487054226 0.5105031753786029
0.08438965599998483 0.486077186126038 0.5095261358085001
0.08457643100018686 0.4851001465559355 0.5007327796775769
0.0847640950000823 0.4880312652662433 0.5026868588177822
0.08495127700007288 0.48705422569614076 0.48900830483634583
0.0851367919999575 0.48412310698583294 0.4831460674157304
0.08532360400022299 0.4811919882755251 0.4753297508549097
0.08551021199991737 0.4763067904250122 0.467513434294089
0.08569939400013027 0.4704445530043966 0.46458231558378116
0.08588629799987757 0.46458231558378116 0.45676599902296044
0.0860723880000478 0.4587200781631655 0.45481191988275516
0.08625899600019693 0.45481191988275516 0.44992672203224227
0.0864457890002086 0.44894968246213973 0.4450415241817294
0.0866315640000721 0.44894968246213973 0.4460185637518319
0.08681896799998867 0.44992672203224227 0.44211040547142155
0.08700507599996854 0.4587200781631655 0.441133365901319
0.08719127699987439 0.46262823644357587 0.43429408891060084
0.08779476700010491 0.47239863214460187 0.43429408891060084
0.08798905999992712 0.4665363947239862 0.4323400097703958
0.08818189000021448 0.4665363947239862 0.4323400097703958
0.08840470099994491 0.46262823644357587 0.4333170493404983
0.08860838300006435 0.457743038593063 0.4333170493404983
0.08881984200024817 0.4557889594528579 0.43624816805080613
0.08916454000018348 0.4528578407425501 0.43722520762090866
0.09037898299993685 0.47142159257449934 0.43429408891060084
0.09103700900004696 0.47239863214460187 0.42940889106008795
0.09132737500021904 0.4733756717147044 0.42159257449926724
0.09154629700014993 0.4684904738641915 0.4176844162188569
0.09175321900011113 0.46946751343429405 0.41670737664875435
0.09195153100017706 0.4684904738641915 0.412799218368344
0.09216989800006559 0.4704445530043966 0.40889106008793363
0.09281168300003628 0.4753297508549097 0.4010747435271129
0.09304436499996882 0.4684904738641915 0.39423546653639474
0.09323717600000236 0.4665363947239862 0.3883732291157791
0.09342991399989842 0.46262823644357587 0.3834880312652662
0.09456389500019213 0.4382022471910112 0.3805569125549584
0.09477200299988908 0.4333170493404983 0.3805569125549584
0.09496359200011284 0.4284318514899854 0.38251099169516367
0.09515242199995555 0.42745481191988266 0.38935026868588185
0.09542426999996678 0.42940889106008795 0.39716658524670256
0.09561291499994695 0.4323400097703958 0.403028822667318
0.0958017259999906 0.43624816805080613 0.40693698094772834
0.09598792699989644 0.44211040547142155 0.4137762579384465
0.09617431300011958 0.44894968246213973 0.4206155349291647
0.09636147599985634 0.45676599902296044 0.4235466536394723
0.09654897300015364 0.46165119687347334 0.4284318514899854
0.09673978499995428 0.4704445530043966 0.4333170493404983
0.09693802199990387 0.46458231558378116 0.4382022471910112
0.09712735299990527 0.46458231558378116 0.44894968246213973
0.09731488599982185 0.4509037616023448 0.44894968246213973
0.09750112400024591 0.44406448461162684 0.45676599902296044
0.09768684300024688 0.43624816805080613 0.457743038593063
0.0978726739999729 0.4264777723497801 0.457743038593063
0.09805841100023827 0.4176844162188569 0.46165119687347334
0.09828618500023367 0.4137762579384465 0.46458231558378116
0.09847373799993875 0.412799218368344 0.46946751343429405
0.09866314200007764 0.412799218368344 0.4763067904250122
0.09884869400002572 0.41182217879824123 0.486077186126038
0.09903467300000557 0.41670737664875435 0.4851001465559355
0.099220650999996 0.4206155349291647 0.4909623839765511
0.09942314799991436 0.4255007327796776 0.4978016609672691
0.09962694100022418 0.4303859306301905 0.5036638983878847
0.09982458600006794 0.43429408891060084 0.5105031753786029
0.10001730500016492 0.4401563263312165 0.5134342940889105
0.10020374600026116 0.4479726428920372 0.5144113336590133
0.10038924299988139 0.4528578407425501 0.5163654127992183
0.10060403599982237 0.45969711773326827 0.5163654127992183
0.10079797700018389 0.4636052760136786 0.5153883732291158
0.10098434400015321 0.4636052760136786 0.5173424523693209
0.10116900799994255 0.45969711773326827 0.5144113336590133
0.10135409700023956 0.46458231558378116 0.5114802149487054
0.10153868699990198 0.45969711773326827 0.5105031753786029
0.10172340600001917 0.4528578407425501 0.5095261358085001
0.10190810699987196 0.45481191988275516 0.5095261358085001
0.10209365899982004 0.44992672203224227 0.5075720566682951
0.10227932299994791 0.44699560332193444 0.5075720566682951
0.10246752300008666 0.4430874450415241 0.5075720566682951
0.10265609399993991 0.4479726428920372 0.5114802149487054
0.10284172100000433 0.44406448461162684 0.5085490962383976
0.10302814399983617 0.44406448461162684 0.5144113336590133
0.10321280700009083 0.44211040547142155 0.5114802149487054
0.10341985900004147 0.4382022471910112 0.5114802149487054
0.10360672700016949 0.4430874450415241 0.5114802149487054
0.10379176100013865 0.43917928676111373 0.512457254518808
0.10397696100017129 0.43917928676111373 0.5095261358085001
0.10416190300020389 0.441133365901319 0.5065950170981925
0.10435465899990959 0.4460185637518319 0.5065950170981925
0.10454213699995307 0.44406448461162684 0.5017098192476794
0.10473078199993324 0.4450415241817294 0.49682462139716654
0.10491616799981784 0.44699560332193444 0.4938935026868587
0.10510244299985061 0.4460185637518319 0.4929164631167562
0.10529019900013736 0.4528578407425501 0.4929164631167562
0.10547699200014904 0.45188080117244755 0.4929164631167562
0.10566193300019222 0.4509037616023448 0.49193942354665365
0.1058474669998759 0.44992672203224227 0.4851001465559355
0.10603314899981342 0.44699560332193444 0.48412310698583294
0.10621827600016331 0.44894968246213973 0.4802149487054226
0.10640442100020664 0.4528578407425501 0.4802149487054226
0.1065900479998163 0.45969711773326827 0.47435271128480694
0.10677608100013458 0.4665363947239862 0.4704445530043966
0.10697148600002038 0.4733756717147044 0.46262823644357587
0.1071594830000322 0.47923790913532005 0.45969711773326827
0.10736714599988773 0.4831460674157304 0.45188080117244755
0.10756455000000642 0.486077186126038 0.4460185637518319
0.10775347300022986 0.486077186126038 0.43917928676111373
0.10794069199982914 0.486077186126038 0.4333170493404983
0.10812716999998884 0.48998534440644836 0.4255007327796776
0.10831335200009562 0.4929164631167562 0.4176844162188569
0.10850022000022363 0.4929164631167562 0.4137762579384465
0.10868545699986498 0.49682462139716654 0.40693698094772834
0.10887141700004577 0.4978016609672691 0.4049829018075233
0.10906422900006874 0.49877870053737183 0.3981436248168051
0.10925261400007003 0.49682462139716654 0.3883732291157791
0.10943742600011319 0.49877870053737183 0.38153395212506114
0.10962210800016692 0.5007327796775769 0.3756717147044455
0.1098065129999668 0.49682462139716654 0.37274059599413767
0.10999360200003139 0.49193942354665365 0.3659013190034197
0.11017920999984199 0.486077186126038 0.36687835857352225
0.11036457799991695 0.4831460674157304 0.3737176355642404
0.11054994500000248 0.47435271128480694 0.3737176355642404
0.11073447900025712 0.4636052760136786 0.38153395212506114
0.11092232800001511 0.4557889594528579 0.38641914997557403
0.11110800999995263 0.4479726428920372 0.38739618954567656
0.11129758100014442 0.43917928676111373 0.3981436248168051
0.11149126300006174 0.4333170493404983 0.40889106008793363
0.11169866699992781 0.42745481191988266 0.4157303370786516
0.11189683000020523 0.4284318514899854 0.4284318514899854
0.11209773400014456 0.4255007327796776 0.43429408891060084
0.11233882299984543 0.4284318514899854 0.431362970200293
0.11253831900012301 0.431362970200293 0.42745481191988266
0.1131555130000379 0.42940889106008795 0.42256961406936977
0.1133624349999991 0.4323400097703958 0.3961895456765998
0.11477676399999837 0.44406448461162684 0.38739618954567656
0.11515657200015994 0.4538348803126526 0.41475329750854906
0.11614599999984421 0.46946751343429405 0.43722520762090866
0.11734394299992346 0.4557889594528579 0.4430874450415241
0.1175954210002601 0.4538348803126526 0.45188080117244755
0.11778904699986015 0.44894968246213973 0.4479726428920372
0.11797656199996709 0.44992672203224227 0.4382022471910112
0.1181766519998746 0.4460185637518319 0.44211040547142155
0.11836453800015079 0.4382022471910112 0.44699560332193444
0.11855075699986628 0.43624816805080613 0.45676599902296044
0.11873771699993085 0.43429408891060084 0.4704445530043966
0.1189235470001222 0.4352711284807034 0.4753297508549097
0.11911489500016614 0.4352711284807034 0.4802149487054226
0.11930855899981907 0.43917928676111373 0.48705422569614076
0.11949794500014832 0.44211040547142155 0.49193942354665365
0.11968323800010694 0.4430874450415241 0.5036638983878847
0.11986851300025592 0.44211040547142155 0.5202735710796287
0.12005523200014068 0.4430874450415241 0.5417684416218858
0.12024106199987727 0.4479726428920372 0.5574010747435272
0.1204273739999735 0.4479726428920372 0.5730337078651686
0.1206136300002072 0.44992672203224227 0.5867122618466047
0.12079964500026108 0.44406448461162684 0.5896433805569126
0.12098455000023023 0.44211040547142155 0.5876893014167073
0.12116945400020995 0.43722520762090866 0.5906204201270151
0.12135459899991474 0.4382022471910112 0.5720566682950659
0.12154031799991571 0.44211040547142155 0.5583781143136297
0.12172625999983211 0.44406448461162684 0.5456765999022961
0.12191164500018203 0.4460185637518319 0.5329750854909623
0.12209742000004553 0.4479726428920372 0.5232046897899365
0.12228169499985597 0.4460185637518319 0.5173424523693209
0.12246789500022714 0.4460185637518319 0.5075720566682951
0.12270105800007514 0.44406448461162684 0.4978016609672691
0.12289092499986509 0.441133365901319 0.48900830483634583
0.12307719999989786 0.4450415241817294 0.4831460674157304
0.12329230800014557 0.4460185637518319 0.47728382999511476
0.12350017500011745 0.44699560332193444 0.47728382999511476
0.12368683800013969 0.44894968246213973 0.4782608695652173
0.12387200200009829 0.4557889594528579 0.4811919882755251
0.12405759100010982 0.4528578407425501 0.48705422569614076
0.12424251399988862 0.4538348803126526 0.48900830483634583
0.12442806699982611 0.4538348803126526 0.4929164631167562
0.12461345200017604 0.45188080117244755 0.4978016609672691
0.12479883800006064 0.4538348803126526 0.495847581827064
0.12498418699988179 0.44992672203224227 0.49682462139716654
0.12517862799995783 0.44699560332193444 0.4938935026868587
0.12536440299982132 0.4450415241817294 0.495847581827064
0.12554999199983286 0.44211040547142155 0.49682462139716654
0.12573563800015108 0.4401563263312165 0.4948705422569615
0.12592087500024718 0.43722520762090866 0.49877870053737183
0.12610844600021665 0.4303859306301905 0.4948705422569615
0.1262954990002072 0.431362970200293 0.4929164631167562
0.12648029199999655 0.4352711284807034 0.4880312652662433
0.1266661039999235 0.43917928676111373 0.4802149487054226
0.12685097099983977 0.4450415241817294 0.47239863214460187
0.12703726400013693 0.45188080117244755 0.46458231558378116
0.12722257599989462 0.457743038593063 0.45676599902296044
0.12741122099987479 0.4665363947239862 0.44699560332193444
0.12759840299986536 0.4684904738641915 0.4382022471910112
0.12778367800001433 0.4802149487054226 0.4333170493404983
0.1279702299998462 0.4802149487054226 0.4333170493404983
0.12815426399993157 0.48900830483634583 0.4264777723497801
0.1283394090000911 0.4978016609672691 0.42745481191988266
0.12852438800018717 0.5026868588177822 0.43624816805080613
0.12870884799986015 0.5056179775280898 0.431362970200293
0.128893048000009 0.512457254518808 0.43624816805080613
0.1290777489998618 0.5114802149487054 0.43722520762090866
0.12926385699984166 0.5173424523693209 0.43917928676111373
0.12944796500005396 0.512457254518808 0.4303859306301905
0.12963335099993856 0.5153883732291158 0.431362970200293
0.12981914400006644 0.5173424523693209 0.4176844162188569
0.13000452999995105 0.5114802149487054 0.41182217879824123
0.13018924900006823 0.49975574010747437 0.4049829018075233
0.13037391299985757 0.48900830483634583 0.3961895456765998
0.1305575950000275 0.47728382999511476 0.3932584269662922
0.13076353599990398 0.46165119687347334 0.3854421104054715
0.13094957000021168 0.4538348803126526 0.38153395212506114
0.13113397400002214 0.44211040547142155 0.3805569125549584
0.13131960100008655 0.4352711284807034 0.3776257938446508
0.13152713399995264 0.4255007327796776 0.3776257938446508
0.13172177900014503 0.42452369320957506 0.3786028334147533
0.13190794299998743 0.4206155349291647 0.37957987298485585
0.13209273600023153 0.4176844162188569 0.38153395212506114
0.13227819600024304 0.41182217879824123 0.3805569125549584
0.13246280400016985 0.403028822667318 0.3805569125549584
0.13264793000007558 0.3952125061064973 0.3854421104054715
0.13283416800004488 0.39228138739618945 0.38641914997557403
0.13301910900008806 0.3913043478260869 0.3883732291157791
0.13320369900020523 0.39912066438690763 0.3883732291157791
0.13338915900021675 0.39912066438690763 0.3903273082559844
0.13357415600012246 0.4059599413776258 0.3932584269662922
0.13375928200002818 0.4157303370786516 0.40009770395701016
0.13397766800017052 0.4176844162188569 0.40009770395701016
0.13416286800020316 0.42256961406936977 0.40205178309721545
0.13434816100016178 0.42452369320957506 0.40693698094772834
0.13453262099983476 0.4255007327796776 0.40986809965803617
0.13471743299987793 0.4255007327796776 0.41182217879824123
0.13490235600011147 0.42256961406936977 0.412799218368344
0.13508802000023934 0.42159257449926724 0.41670737664875435
0.13528660900010436 0.42256961406936977 0.4235466536394723
0.13547201300025336 0.4255007327796776 0.4157303370786516
0.13565828799983137 0.4235466536394723 0.42159257449926724
0.13584339599992745 0.4255007327796776 0.4264777723497801
0.1360279300001821 0.42745481191988266 0.43429408891060084
0.13621329699981288 0.431362970200293 0.441133365901319
0.1363989980000042 0.4333170493404983 0.4538348803126526
0.13658343899987813 0.43624816805080613 0.45969711773326827
0.13676773199995296 0.4352711284807034 0.467513434294089
0.13695404400004918 0.43624816805080613 0.4733756717147044
0.13714000400022996 0.4323400097703958 0.4811919882755251
0.1373245190002308 0.43624816805080613 0.48705422569614076
0.13750871999991432 0.42745481191988266 0.486077186126038
0.13769368000021132 0.4255007327796776 0.48998534440644836
0.137880695000149 0.4235466536394723 0.4851001465559355
0.13806513700001233 0.4206155349291647 0.4811919882755251
0.1382493380001506 0.42256961406936977 0.4802149487054226
0.13843413099993995 0.42452369320957506 0.47239863214460187
0.13862990500001615 0.42452369320957506 0.4684904738641915
0.13881623599991144 0.4284318514899854 0.4655593551538837
0.13900069500004975 0.43917928676111373 0.46165119687347334
0.13918509999984963 0.4460185637518319 0.46165119687347334
0.1393713369998295 0.4587200781631655 0.4636052760136786
0.13955594500021107 0.4636052760136786 0.4733756717147044
0.1397401650001484 0.4733756717147044 0.4733756717147044
0.1399243099999694 0.4811919882755251 0.4811919882755251
0.14011254700017162 0.4880312652662433 0.48216902784562765
0.14029952600003526 0.49877870053737183 0.48900830483634583
0.14048400399997263 0.5065950170981925 0.4831460674157304
0.14067555700012235 0.512457254518808 0.4831460674157304
0.14086049800016553 0.5183194919394236 0.48216902784562765
0.14104516199995487 0.5114802149487054 0.4782608695652173
0.14122917700024118 0.5065950170981925 0.4763067904250122
0.14141385899984016 0.5026868588177822 0.4733756717147044
0.14159876299981988 0.49193942354665365 0.467513434294089
0.14178333400013798 0.48412310698583294 0.45969711773326827
0.14196881299994857 0.47923790913532005 0.4528578407425501
0.14215297600003396 0.47239863214460187 0.4509037616023448
0.1423376399998233 0.4684904738641915 0.4460185637518319
0.1425219890002154 0.4606741573033708 0.44894968246213973
0.14270748599983563 0.457743038593063 0.44894968246213973
0.14289200099983645 0.4538348803126526 0.4587200781631655
0.14307622000023912 0.4557889594528579 0.46165119687347334
0.14327401299988196 0.4450415241817294 0.4753297508549097
0.143460566000158 0.44406448461162684 0.4811919882755251
0.14364521100014827 0.44406448461162684 0.48900830483634583
0.14382967099982125 0.4450415241817294 0.495847581827064
0.14401370499990662 0.4430874450415241 0.5075720566682951
0.14419810900017183 0.44699560332193444 0.5095261358085001
0.14438245800010918 0.4528578407425501 0.5144113336590133
0.14456717700022637 0.457743038593063 0.5202735710796287
0.14475108199985698 0.4557889594528579 0.5232046897899365
0.1449361529998896 0.44894968246213973 0.5251587689301416
0.145120537999901 0.44406448461162684 0.5280898876404494
0.14530468400016616 0.441133365901319 0.5280898876404494
0.14548853199994483 0.44211040547142155 0.5300439667806547
0.14567352899985053 0.4430874450415241 0.5300439667806547
0.1458585079999466 0.4479726428920372 0.5319980459208598
0.14604268999983105 0.44699560332193444 0.5300439667806547
0.14622690900023372 0.44894968246213973 0.5300439667806547
0.14641203600012886 0.4528578407425501 0.5232046897899365
0.14659668100011913 0.4528578407425501 0.5212506106497312
0.1467813069998556 0.44992672203224227 0.5163654127992183
0.1469660819998353 0.4528578407425501 0.5075720566682951
0.14715102299987848 0.44992672203224227 0.5007327796775769
0.1473480390000077 0.4509037616023448 0.4938935026868587
0.14753316499991342 0.4557889594528579 0.4909623839765511
0.14771784699996715 0.45481191988275516 0.48216902784562765
0.14790245499989396 0.457743038593063 0.47728382999511476
0.1480934520000119 0.45188080117244755 0.47728382999511476
0.14828424500001347 0.45188080117244755 0.47239863214460187
0.1484743900000467 0.4382022471910112 0.4606741573033708
0.1486592199998995 0.4323400097703958 0.4538348803126526
0.1488437170000907 0.42452369320957506 0.44406448461162684
0.14902919599990128 0.4176844162188569 0.43722520762090866
0.14921480400016662 0.41475329750854906 0.42940889106008795
0.14939959699995597 0.4157303370786516 0.4176844162188569
0.14958402000002025 0.4186614557889594 0.4059599413776258
0.1497684239998307 0.42452369320957506 0.39912066438690763
0.1499527730002228 0.4352711284807034 0.3952125061064973
0.15013712200016016 0.44211040547142155 0.3913043478260869
0.15032095200012918 0.441133365901319 0.38641914997557403
0.15051030099994023 0.45188080117244755 0.3834880312652662
0.1506951870001103 0.4430874450415241 0.3786028334147533
0.15087975799997366 0.44406448461162684 0.376648754274548
0.15106369900013306 0.44211040547142155 0.3756717147044455
0.15125986300017757 0.441133365901319 0.3776257938446508
0.15144658200006234 0.441133365901319 0.38153395212506114
0.15163113400012662 0.4401563263312165 0.38446507083536874
0.15181583499997942 0.44406448461162684 0.3913043478260869
0.15200086899994858 0.44406448461162684 0.39423546653639474
0.15218519900008687 0.4479726428920372 0.4010747435271129
0.1523698629998762 0.4450415241817294 0.40693698094772834
0.1525540259999616 0.4450415241817294 0.412799218368344
0.15273885700025858 0.44992672203224227 0.412799218368344
0.1529241500002172 0.4460185637518319 0.4206155349291647
0.1531193499999972 0.4557889594528579 0.41475329750854906
0.15331577300003119 0.4509037616023448 0.4137762579384465
0.15350893599998017 0.45188080117244755 0.412799218368344
0.1536942299999282 0.45481191988275516 0.4137762579384465
0.15387896699985504 0.457743038593063 0.4108451392281387
0.1540630009999404 0.45676599902296044 0.40693698094772834
0.15424751699993067 0.4587200781631655 0.4040058622374205
0.1544324209999104 0.4587200781631655 0.40009770395701016
0.15461676999984775 0.45969711773326827 0.403028822667318
0.15480126700003893 0.45676599902296044 0.39423546653639474
0.15498609699989174 0.4557889594528579 0.39228138739618945
0.15517031599983966 0.4557889594528579 0.38935026868588185
0.15536610900016967 0.4528578407425501 0.3903273082559844
0.15555131000019173 0.4557889594528579 0.3854421104054715
0.15573628799984363 0.45481191988275516 0.3883732291157791
0.15592124800014062 0.45969711773326827 0.38739618954567656
0.15611109700012094 0.45969711773326827 0.3932584269662922
0.15630346399984774 0.4636052760136786 0.39423546653639474
0.15649757200026215 0.4655593551538837 0.40009770395701016
0.15668966100020043 0.46165119687347334 0.4059599413776258
0.1568929909999497 0.4606741573033708 0.40986809965803617
0.15708741400021609 0.4655593551538837 0.41963849535906195
0.157278948000112 0.47142159257449934 0.4264777723497801
0.15747166700020898 0.4802149487054226 0.42745481191988266
0.15766440500010503 0.48998534440644836 0.4333170493404983
0.15785778999998 0.5095261358085001 0.4401563263312165
0.15804917600007684 0.522227650219834 0.44406448461162684
0.15824302500004706 0.5329750854909623 0.44992672203224227
0.15843717000007018 0.5495847581827065 0.4538348803126526
0.15862887000002956 0.5544699560332194 0.4587200781631655
0.15882234799983053 0.5613092330239375 0.46458231558378116
0.1590140859998428 0.5583781143136297 0.47239863214460187
0.1592038980002144 0.5583781143136297 0.46946751343429405
0.15941246800002773 0.5476306790425012 0.4782608695652173
0.15960739100000865 0.5398143624816805 0.4851001465559355
0.15980101700006344 0.522227650219834 0.4909623839765511
0.15999108799996975 0.5144113336590133 0.4978016609672691
0.16017897400024594 0.5046409379579873 0.5007327796775769
0.16037382300009995 0.4978016609672691 0.5065950170981925
0.1605687639998905 0.4909623839765511 0.5075720566682951
0.1607646500001465 0.4782608695652173 0.5095261358085001
0.16095798000014838 0.47142159257449934 0.5163654127992183
0.161154420999992 0.46262823644357587 0.5173424523693209
0.16134567700009939 0.45481191988275516 0.5192965315095261
0.1615386739999849 0.44211040547142155 0.5183194919394236
0.16173067099998661 0.4264777723497801 0.5173424523693209
0.16192690800016862 0.40986809965803617 0.5163654127992183
0.16212072000007538 0.3903273082559844 0.512457254518808
0.1623114760000135 0.3756717147044455 0.512457254518808
0.16250856499982547 0.3502686858817783 0.5144113336590133
0.16269974700026069 0.33952125061064975 0.5065950170981925
0.1628901140002199 0.3229115779189058 0.5036638983878847
0.16308279600025344 0.3141182217879823 0.5046409379579873
0.1632912000000033 0.3150952613580851 0.5056179775280898
0.16348558600020624 0.3258426966292134 0.5085490962383976
0.16367743499995413 0.3365901319003419 0.5095261358085001
0.16387422800016793 0.35417684416218864 0.5105031753786029
0.16406598399998984 0.36199316072300936 0.5075720566682951
0.16427183199994033 0.3678553981436248 0.5036638983878847
0.1644924950001041 0.3678553981436248 0.4978016609672691
0.1647204910000255 0.36492427943331696 0.4909623839765511
0.16494659899990438 0.3639472398632144 0.48705422569614076
0.16513709599985305 0.3707865168539326 0.4802149487054226
0.16533085199989728 0.36980947728383007 0.47728382999511476
0.16552164499989885 0.3805569125549584 0.47923790913532005
0.1657117160002599 0.3932584269662922 0.4851001465559355
0.16591002699988167 0.4079140205178309 0.47728382999511476
0.1661020980000103 0.41963849535906195 0.47435271128480694
0.16629350199991677 0.4333170493404983 0.4753297508549097
0.16649105499982397 0.4479726428920372 0.4704445530043966
0.16668495900012203 0.46165119687347334 0.4665363947239862
0.16687493700010236 0.46946751343429405 0.45676599902296044
0.16707024900006218 0.4753297508549097 0.4509037616023448
0.16729844900009994 0.4763067904250122 0.4450415241817294
0.16750055600004998 0.47923790913532005 0.44406448461162684
0.16770057199983057 0.47923790913532005 0.4430874450415241
0.16789792000008674 0.4782608695652173 0.4460185637518319
0.16811299099981625 0.4753297508549097 0.441133365901319
0.16835493100006715 0.4753297508549097 0.44406448461162684
0.16857840900001975 0.4753297508549097 0.4450415241817294
0.16878979400007665 0.4811919882755251 0.441133365901319
0.16899186499995267 0.486077186126038 0.441133365901319
0.1691926210000929 0.49193942354665365 0.4460185637518319
0.16939482099996894 0.49682462139716654 0.4333170493404983
0.16959852199988745 0.49975574010747437 0.42745481191988266
0.16979153700003735 0.5036638983878847 0.42159257449926724
0.16998060800005987 0.5036638983878847 0.4176844162188569
0.17016893800018806 0.5007327796775769 0.412799218368344
0.1703580459998193 0.4880312652662433 0.41182217879824123
0.17054635800013784 0.4802149487054226 0.41182217879824123
0.17073933600022428 0.47142159257449934 0.41475329750854906
0.17092853700023625 0.46946751343429405 0.4108451392281387
0.1711171080000895 0.46458231558378116 0.41182217879824123
0.17130534499983696 0.457743038593063 0.4137762579384465
0.17149400900007095 0.45188080117244755 0.4206155349291647
0.17168154299997695 0.44992672203224227 0.42256961406936977
0.17186978000017916 0.44406448461162684 0.42452369320957506
0.1720575919998737 0.4430874450415241 0.42452369320957506
0.172245311000097 0.44406448461162684 0.42256961406936977
0.172433066999929 0.44211040547142155 0.42159257449926724
0.1726245640002162 0.44211040547142155 0.4235466536394723
0.17281422799987922 0.4401563263312165 0.4186614557889594
0.17300274299986995 0.4450415241817294 0.41182217879824123
0.17319198099994537 0.4460185637518319 0.4049829018075233
0.17338042200026393 0.4460185637518319 0.3981436248168051
0.17356854799982102 0.4460185637518319 0.40009770395701016
0.17375637900022411 0.441133365901319 0.39912066438690763
0.1739442829998552 0.4382022471910112 0.4010747435271129
0.1741322980001314 0.4401563263312165 0.4040058622374205
0.17432003600015378 0.44699560332193444 0.403028822667318
0.1745074770001338 0.44992672203224227 0.40889106008793363
0.1746952710000187 0.4528578407425501 0.4137762579384465
0.174883341000168 0.4557889594528579 0.41182217879824123
0.17507111600025382 0.44894968246213973 0.4157303370786516
0.17527290899988657 0.44992672203224227 0.41475329750854906
0.17546103599988783 0.4430874450415241 0.4137762579384465
0.17564819900007933 0.43917928676111373 0.41182217879824123
0.1758353810000699 0.4333170493404983 0.4079140205178309
0.17602293400022972 0.42745481191988266 0.412799218368344
0.17621035699994536 0.4235466536394723 0.41475329750854906
0.17639820500016867 0.42256961406936977 0.4176844162188569
0.17658497999991596 0.4186614557889594 0.42256961406936977
0.17677279200006524 0.42256961406936977 0.4264777723497801
0.17696114000000307 0.4176844162188569 0.4303859306301905
0.17714887800002543 0.4264777723497801 0.4430874450415241
0.17733737500020652 0.43917928676111373 0.4460185637518319
0.17752568700007032 0.44406448461162684 0.4460185637518319
0.177712702000008 0.4538348803126526 0.45481191988275516
0.17789990300025238 0.4636052760136786 0.45676599902296044
0.17808723300004203 0.4655593551538837 0.4606741573033708
0.17827459999989514 0.47239863214460187 0.4636052760136786
0.17846181899994917 0.47142159257449934 0.4655593551538837
0.17864855700008775 0.4763067904250122 0.4655593551538837
0.1788358320000043 0.4753297508549097 0.4606741573033708
0.1790231989998574 0.4684904738641915 0.4636052760136786
0.17921160300011252 0.47142159257449934 0.46458231558378116
0.17939913700001853 0.46946751343429405 0.4684904738641915
0.17958767100026307 0.4655593551538837 0.4704445530043966
0.17977485300025364 0.46165119687347334 0.4763067904250122
0.17996205400004328 0.4587200781631655 0.4753297508549097
0.1801496429998224 0.45188080117244755 0.4802149487054226
0.18033706599999277 0.4509037616023448 0.4811919882755251
0.18052435900017372 0.4460185637518319 0.4811919882755251
0.18071142999997392 0.44406448461162684 0.48412310698583294
0.18089933400005975 0.44406448461162684 0.49193942354665365
0.1810864419999234 0.4401563263312165 0.4831460674157304
0.1812743099999352 0.44406448461162684 0.48705422569614076
0.18146212100009507 0.4538348803126526 0.4880312652662433
0.18165211799987446 0.44406448461162684 0.4929164631167562
0.18184252199989714 0.4479726428920372 0.4978016609672691
0.1820308159999513 0.4509037616023448 0.5036638983878847
0.1822177570002168 0.44699560332193444 0.5085490962383976
0.18240555000011227 0.44992672203224227 0.5153883732291158
0.18259295400002884 0.44992672203224227 0.5192965315095261
0.1827804509998714 0.4450415241817294 0.5271128480703469
0.18296765200011578 0.44699560332193444 0.5280898876404494
0.1831547970000429 0.4479726428920372 0.533952125061065
0.18336553400013145 0.4460185637518319 0.5359062042012701
0.18355545700023868 0.4557889594528579 0.5378602833414754
0.1837438980001025 0.45188080117244755 0.5329750854909623
0.1839319880000403 0.46458231558378116 0.5290669272105519
0.1841200399999252 0.4636052760136786 0.5261358085002443
0.1843079260002014 0.4665363947239862 0.5173424523693209
0.18449546000010741 0.4704445530043966 0.512457254518808
0.18468395699983375 0.47142159257449934 0.5017098192476794
0.18487139799981378 0.4684904738641915 0.4929164631167562
0.18505893200017454 0.4684904738641915 0.486077186126038
0.18524692900018636 0.4606741573033708 0.47728382999511476
0.18543563000002905 0.4557889594528579 0.4733756717147044
0.1856229599998187 0.4557889594528579 0.47239863214460187
0.18581143800020072 0.44992672203224227 0.45969711773326827
0.18599847199993746 0.44211040547142155 0.4557889594528579
0.1861863760000233 0.44406448461162684 0.45188080117244755
0.18637420699997165 0.43429408891060084 0.4479726428920372
0.18656266600009985 0.42940889106008795 0.44894968246213973
0.18675023700006932 0.4333170493404983 0.4460185637518319
0.1869380309999542 0.43429408891060084 0.4450415241817294
0.1871258979999766 0.44406448461162684 0.4430874450415241
0.1873139130002528 0.44699560332193444 0.4460185637518319
0.18750281800021185 0.45481191988275516 0.43624816805080613
0.1876901480000015 0.457743038593063 0.43722520762090866
0.18787762600004498 0.46458231558378116 0.431362970200293
0.18806541899994045 0.47239863214460187 0.42940889106008795
0.18825236100019538 0.4763067904250122 0.4303859306301905
0.18843930200000614 0.4811919882755251 0.4264777723497801
0.18862776200012377 0.47923790913532005 0.4235466536394723
0.18881611100005102 0.47923790913532005 0.4264777723497801
0.1890041999999994 0.47728382999511476 0.4176844162188569
0.18919147499991595 0.47923790913532005 0.41670737664875435
0.18937852699991709 0.4763067904250122 0.40986809965803617
0.18956872799981284 0.47728382999511476 0.40205178309721545
0.18975911300003645 0.48412310698583294 0.40009770395701016
0.1899470729999848 0.48900830483634583 0.40205178309721545
0.19013553300010244 0.48412310698583294 0.40693698094772834
0.1903234189999239 0.48705422569614076 0.4137762579384465
0.1905114340002001 0.486077186126038 0.4186614557889594
0.19069945000001098 0.47923790913532005 0.42452369320957506
0.19088713200017082 0.47435271128480694 0.4264777723497801
0.19107468399988647 0.46946751343429405 0.42940889106008795
0.1912719769998148 0.4665363947239862 0.4284318514899854
0.1914604930002497 0.46458231558378116 0.4284318514899854
0.1916482299998279 0.45969711773326827 0.4255007327796776
0.19183628300015698 0.45676599902296044 0.4235466536394723
0.192024038999989 0.46165119687347334 0.42256961406936977
0.19221124000023337 0.45481191988275516 0.41963849535906195
0.19239836599990667 0.4479726428920372 0.41670737664875435
0.1925859739999396 0.4479726428920372 0.41670737664875435
0.19277323000005708 0.4450415241817294 0.4176844162188569
0.19296067200002653 0.4479726428920372 0.41182217879824123
0.19314755699997477 0.44992672203224227 0.40986809965803617
0.19333568399997603 0.457743038593063 0.403028822667318
0.19352379200017822 0.46458231558378116 0.4010747435271129
0.19371230700016895 0.4684904738641915 0.39423546653639474
0.19390052600010677 0.47239863214460187 0.3883732291157791
0.1940881159998753 0.4733756717147044 0.3854421104054715
0.1942762240000775 0.47435271128480694 0.3786028334147533
0.19446355399986714 0.47435271128480694 0.37957987298485585
0.19465136600001642 0.47728382999511476 0.376648754274548
0.194838769999933 0.47239863214460187 0.38641914997557403
0.19502628500003993 0.4802149487054226 0.3883732291157791
0.19521372700000938 0.47142159257449934 0.39423546653639474
0.1954013899999154 0.47435271128480694 0.4010747435271129
0.19558831299991652 0.47142159257449934 0.40205178309721545
0.19577545799984364 0.4763067904250122 0.41182217879824123
0.19596323299992946 0.4782608695652173 0.41475329750854906
0.19615041499992003 0.4733756717147044 0.42256961406936977
0.19633713400025954 0.4733756717147044 0.4284318514899854
0.19652409399986936 0.467513434294089 0.4352711284807034
0.19671079499994448 0.4655593551538837 0.44211040547142155
0.1969068650000736 0.4509037616023448 0.4479726428920372
0.19709630699981062 0.4460185637518319 0.4528578407425501
0.19728415500003393 0.43917928676111373 0.46165119687347334
0.1974720600001092 0.4401563263312165 0.4665363947239862
0.1976599829999941 0.441133365901319 0.46946751343429405
0.1978473680001116 0.44211040547142155 0.47239863214460187
0.19803582800022923 0.4450415241817294 0.47239863214460187
0.19822332500007178 0.4479726428920372 0.4655593551538837
0.19841106300009415 0.44406448461162684 0.4665363947239862
0.1985986340000636 0.4450415241817294 0.4655593551538837
0.19878635299983216 0.4430874450415241 0.45969711773326827
0.1989742020000449 0.43917928676111373 0.4606741573033708
0.19916138400003547 0.44699560332193444 0.4684904738641915
0.19935839900017527 0.43624816805080613 0.4753297508549097
0.1995462290001342 0.4333170493404983 0.48900830483634583
0.19973365199984983 0.4382022471910112 0.5085490962383976
0.19992109299982985 0.4460185637518319 0.5300439667806547
0.20010873799992623 0.44406448461162684 0.5427454811919883
0.20029666099981114 0.4509037616023448 0.5554469956033219
0.20048454700008733 0.44992672203224227 0.5583781143136297
0.2006725070000357 0.4509037616023448 0.5593551538837322
0.20085972600008972 0.45481191988275516 0.5574010747435272
0.20104722299993227 0.4528578407425501 0.5476306790425012
0.20123601600016627 0.45676599902296044 0.5437225207620908
0.20142421599985028 0.4587200781631655 0.5300439667806547
0.20161236200010535 0.45969711773326827 0.5232046897899365
0.20179976600002192 0.4606741573033708 0.5192965315095261
0.20198698500007595 0.45481191988275516 0.5075720566682951
0.20217479700022523 0.4538348803126526 0.5105031753786029
0.2023622560000149 0.4528578407425501 0.5134342940889105
0.20255016100009016 0.45188080117244755 0.512457254518808
0.20273774999986927 0.44992672203224227 0.512457254518808
0.20292480299985982 0.4460185637518319 0.5134342940889105
0.2031122809999033 0.44211040547142155 0.5144113336590133
0.20330072200022187 0.4382022471910112 0.5153883732291158
0.2034880159999375 0.4382022471910112 0.5095261358085001
0.20367510500000208 0.42940889106008795 0.5046409379579873
0.2038630090000879 0.4303859306301905 0.5007327796775769
0.20405098799983534 0.42745481191988266 0.4929164631167562
0.20423887400011154 0.4206155349291647 0.4909623839765511
0.20442585199998575 0.42452369320957506 0.4851001465559355
0.20461620100013533 0.42452369320957506 0.4831460674157304
0.20480519700004152 0.42159257449926724 0.4811919882755251
0.20499345400003222 0.4206155349291647 0.4802149487054226
0.2051814880001075 0.4176844162188569 0.4811919882755251
0.20536933599987606 0.4235466536394723 0.48705422569614076
0.20555653700012044 0.4206155349291647 0.4851001465559355
0.20574371900011101 0.4264777723497801 0.48412310698583294
0.20593164199999592 0.42940889106008795 0.4811919882755251
0.2061191200000394 0.4303859306301905 0.47728382999511476
0.20630678399993485 0.43722520762090866 0.47435271128480694
0.2064949290002005 0.44699560332193444 0.46946751343429405
0.2066824630001065 0.4460185637518319 0.46458231558378116
0.20687027399981162 0.44894968246213973 0.46262823644357587
0.20705812300002435 0.457743038593063 0.457743038593063
0.20725473099992087 0.457743038593063 0.45188080117244755
0.20744346899982702 0.45481191988275516 0.44992672203224227
0.20763068799988105 0.4557889594528579 0.44699560332193444
0.2078183700000409 0.4509037616023448 0.4401563263312165
0.20800623700006327 0.44211040547142155 0.43722520762090866
0.208194308000202 0.441133365901319 0.4382022471910112
0.20838119400013966 0.4382022471910112 0.4264777723497801
0.20856839399993987 0.43722520762090866 0.4284318514899854
0.20875587299997278 0.43722520762090866 0.42452369320957506
0.20894299900010083 0.4352711284807034 0.4235466536394723
0.20913077400018665 0.43624816805080613 0.42159257449926724
0.20931884499987063 0.43917928676111373 0.4206155349291647
0.2095074530002421 0.44211040547142155 0.4157303370786516
0.20969591299990498 0.4450415241817294 0.4108451392281387
0.209883575999811 0.4528578407425501 0.40986809965803617
0.21007149900015065 0.457743038593063 0.4040058622374205
0.21025918099985574 0.46458231558378116 0.4059599413776258
0.2104464740000367 0.4704445530043966 0.4049829018075233
0.21063572999992175 0.4782608695652173 0.4059599413776258
0.21082387600017682 0.4782608695652173 0.4079140205178309
0.21101190900026268 0.48412310698583294 0.40986809965803617
0.21119975800002067 0.48412310698583294 0.4079140205178309
0.21138768099990557 0.4851001465559355 0.4059599413776258
0.21157541899992793 0.486077186126038 0.412799218368344
0.21176308199983396 0.4811919882755251 0.4049829018075233
0.21195094899985634 0.4753297508549097 0.40205178309721545
0.2121382979998998 0.47239863214460187 0.40009770395701016
0.21232631400016544 0.4655593551538837 0.39716658524670256
0.21251414400012436 0.45969711773326827 0.3981436248168051
0.21270140000024185 0.45676599902296044 0.40009770395701016
0.2128884889998517 0.457743038593063 0.3961895456765998
0.21307589400021243 0.44894968246213973 0.4010747435271129
0.2132632799998646 0.45481191988275516 0.4059599413776258
0.21345073900010902 0.457743038593063 0.3981436248168051
0.2136380880001525 0.4606741573033708 0.4040058622374205
0.21382701099992119 0.46458231558378116 0.403028822667318
0.2140120079998269 0.4636052760136786 0.4040058622374205
0.2141972640001768 0.46946751343429405 0.4079140205178309
0.2143827049999345 0.47142159257449934 0.40693698094772834
0.21456783199982965 0.46458231558378116 0.4108451392281387
0.214753218000169 0.4665363947239862 0.412799218368344
0.2149376590000429 0.45676599902296044 0.41182217879824123
0.21512232299983225 0.44699560332193444 0.41475329750854906
0.21531002300025648 0.44211040547142155 0.4059599413776258
0.21549787200001447 0.4401563263312165 0.4079140205178309
0.21568529500018485 0.43722520762090866 0.40693698094772834
0.21587288399996396 0.4382022471910112 0.4059599413776258
0.21606097399990176 0.4352711284807034 0.41475329750854906
0.21624800800009325 0.44211040547142155 0.41670737664875435
0.21643520799989346 0.44406448461162684 0.4235466536394723
0.21662246500000037 0.4450415241817294 0.42940889106008795
0.2168092759998217 0.4450415241817294 0.4323400097703958
0.21700512500001423 0.441133365901319 0.43917928676111373
0.2171927700001106 0.4430874450415241 0.4460185637518319
0.21738074799986862 0.441133365901319 0.44894968246213973
0.21756881900000735 0.4430874450415241 0.45188080117244755
0.21775635299991336 0.44406448461162684 0.45481191988275516
0.21794399800000974 0.4450415241817294 0.4557889594528579
0.2181315140001061 0.4460185637518319 0.4665363947239862
0.21831884399989576 0.44894968246213973 0.467513434294089
0.21850626700006615 0.44894968246213973 0.47435271128480694
0.2186933930001942 0.45188080117244755 0.47728382999511476
0.2188807050001742 0.4528578407425501 0.4763067904250122
0.21906897999997454 0.45188080117244755 0.4802149487054226
0.21926353200024096 0.4538348803126526 0.486077186126038
0.21945112100002007 0.45188080117244755 0.4880312652662433
0.21963865499992608 0.44699560332193444 0.4978016609672691
0.21982670800025517 0.44992672203224227 0.5017098192476794
0.22001646399985475 0.44992672203224227 0.5017098192476794
0.2202035350001097 0.44894968246213973 0.5007327796775769
0.22039177299984658 0.44992672203224227 0.5036638983878847
0.22057963999986896 0.44894968246213973 0.5046409379579873
0.22076750699989134 0.457743038593063 0.5007327796775769
0.22095554099996662 0.45188080117244755 0.5007327796775769
0.22114407500021116 0.4557889594528579 0.4978016609672691
0.22133199800009606 0.4587200781631655 0.48705422569614076
0.22151956900006553 0.4587200781631655 0.48412310698583294
0.22170689899985518 0.4636052760136786 0.4831460674157304
0.22189402499998323 0.46458231558378116 0.47728382999511476
0.22208246699983647 0.45969711773326827 0.47239863214460187
0.22227051900017614 0.4606741573033708 0.4733756717147044
0.22245822000013504 0.457743038593063 0.467513434294089
0.22264590199984013 0.45481191988275516 0.4684904738641915
0.22283312099989416 0.45969711773326827 0.4636052760136786
0.2230206360000011 0.4587200781631655 0.4655593551538837
0.22320848500021384 0.467513434294089 0.4704445530043966
0.2233977410000989 0.4763067904250122 0.47435271128480694
0.2235856639999838 0.4880312652662433 0.47728382999511476
0.2237732540002071 0.49682462139716654 0.47435271128480694
0.223961399000018 0.5065950170981925 0.4802149487054226
0.2241485620002095 0.512457254518808 0.47923790913532005
0.22433613300017896 0.5153883732291158 0.4763067904250122
0.2245240370002648 0.5212506106497312 0.47728382999511476
0.22471155299990642 0.5280898876404494 0.4733756717147044
0.22489906800001336 0.522227650219834 0.47435271128480694
0.22508665800023664 0.5261358085002443 0.47435271128480694
0.2252748949999841 0.524181729360039 0.4733756717147044
0.22546244800014392 0.5202735710796287 0.47923790913532005
0.22565012999984901 0.5153883732291158 0.4811919882755251
0.22583851599983973 0.5065950170981925 0.48412310698583294
0.22602614200013704 0.4948705422569615 0.4880312652662433
0.22621356499985268 0.4851001465559355 0.4909623839765511
0.22640191400023468 0.4733756717147044 0.49193942354665365
0.2265891880001618 0.46262823644357587 0.49975574010747437
0.22677668500000436 0.4606741573033708 0.5017098192476794
0.22696471900007964 0.4557889594528579 0.5007327796775769
0.2271512160000384 0.45188080117244755 0.5017098192476794
0.22734971299996687 0.4450415241817294 0.5056179775280898
0.2275383020000845 0.4450415241817294 0.5046409379579873
0.2277259289999165 0.4460185637518319 0.5026868588177822
0.227913628999886 0.43917928676111373 0.495847581827064
0.22810053400007746 0.43722520762090866 0.4880312652662433
0.2282875310002055 0.42940889106008795 0.4763067904250122
0.22847584200007987 0.4235466536394723 0.47239863214460187
0.22866348700017625 0.4176844162188569 0.467513434294089
0.22885107699994478 0.4108451392281387 0.45481191988275516
0.2290390739999566 0.3981436248168051 0.4479726428920372
0.2292267000002539 0.3913043478260869 0.4401563263312165
0.22941445600008592 0.3834880312652662 0.4333170493404983
0.22960182399992846 0.37274059599413767 0.4264777723497801
0.22978998700000375 0.3678553981436248 0.4186614557889594
0.2299776509998992 0.358085002442599 0.40986809965803617
0.23016540700018595 0.358085002442599 0.4108451392281387
0.23035318199981702 0.35906204201270153 0.4137762579384465
0.23054036400026234 0.36492427943331696 0.40986809965803617
0.23072771199986164 0.3786028334147533 0.40693698094772834
0.23091554300026473 0.3952125061064973 0.4010747435271129
0.23110342800009676 0.4059599413776258 0.4010747435271129
0.2312917220001509 0.4206155349291647 0.40205178309721545
0.23147994100008873 0.431362970200293 0.4010747435271129
0.2316682519999631 0.4401563263312165 0.4010747435271129
0.23186024899996482 0.44699560332193444 0.3981436248168051
0.2320539130000725 0.44894968246213973 0.403028822667318
0.23224140999991505 0.45188080117244755 0.4010747435271129
0.23242933199981053 0.4450415241817294 0.40009770395701016
0.23261671799991746 0.4382022471910112 0.40205178309721545
0.23280490000024656 0.42940889106008795 0.3932584269662922
0.232992564000142 0.42452369320957506 0.3913043478260869
0.2331804310001644 0.4186614557889594 0.3834880312652662
0.23336822400005985 0.40986809965803617 0.3805569125549584
0.2335548139999446 0.4079140205178309 0.376648754274548
0.23374223600012556 0.403028822667318 0.36980947728383007
0.2339302889999999 0.4040058622374205 0.3707865168539326
0.23411797100015974 0.4040058622374205 0.37469467513434296
0.23430572699999175 0.4108451392281387 0.3737176355642404
0.23449268700005632 0.4235466536394723 0.3756717147044455
0.23468323899987809 0.42452369320957506 0.376648754274548
0.2348718660000486 0.4382022471910112 0.37957987298485585
0.23505943700001808 0.44211040547142155 0.376648754274548
0.2352607299999363 0.44894968246213973 0.3805569125549584
0.23544989299989538 0.45481191988275516 0.38153395212506114
0.2356378350000341 0.45969711773326827 0.38446507083536874
0.235825979999845 0.46165119687347334 0.3854421104054715
0.23601334700015286 0.4636052760136786 0.38935026868588185
0.2362002139998367 0.45969711773326827 0.3952125061064973
0.23638723000021855 0.46458231558378116 0.403028822667318
0.23657700400008252 0.46262823644357587 0.4108451392281387
0.23676518599995688 0.467513434294089 0.42159257449926724
0.23695390500006397 0.4655593551538837 0.43429408891060084
0.23714268000003358 0.4763067904250122 0.4450415241817294
0.2373309730000983 0.4782608695652173 0.44992672203224227
0.23751854400006778 0.47923790913532005 0.45188080117244755
0.23770611500003724 0.49193942354665365 0.457743038593063
0.2378947600000174 0.4978016609672691 0.4557889594528579
0.23808227600011378 0.5026868588177822 0.45969711773326827
0.23827006900000924 0.5075720566682951 0.46946751343429405
0.2384574180000527 0.5007327796775769 0.4684904738641915
0.2386455070000011 0.4948705422569615 0.4763067904250122
0.23883270800024547 0.486077186126038 0.486077186126038
0.23902001900023606 0.4782608695652173 0.4938935026868587
0.23920736799982478 0.467513434294089 0.5085490962383976
0.23940149500003827 0.4636052760136786 0.5212506106497312
0.23958925099987027 0.45969711773326827 0.5280898876404494
0.2397769879999032 0.457743038593063 0.5398143624816805
0.2399652630001583 0.45676599902296044 0.5427454811919883
0.24015298199992685 0.4587200781631655 0.5437225207620908
0.24033968300000197 0.4587200781631655 0.5476306790425012
0.24052717999984452 0.4606741573033708 0.5456765999022961
0.24071525099998325 0.4636052760136786 0.5446995603321934
0.24090250700010074 0.46165119687347334 0.5486077186126037
0.24109063300011258 0.4587200781631655 0.5398143624816805
0.2412813340001776 0.4538348803126526 0.533952125061065
0.24147218200005227 0.4460185637518319 0.5261358085002443
0.24166121600001134 0.4528578407425501 0.5212506106497312
0.24184876900017116 0.44894968246213973 0.5114802149487054
0.24203600600003483 0.4401563263312165 0.5095261358085001
0.24222383699998318 0.4382022471910112 0.5075720566682951
0.24241118500003722 0.4333170493404983 0.5085490962383976
0.24259858999994321 0.4323400097703958 0.5085490962383976
0.2427864569999656 0.4303859306301905 0.5036638983878847
0.24297384300007252 0.42452369320957506 0.5036638983878847
0.24316135800017946 0.42452369320957506 0.5046409379579873
0.24336329900006604 0.42452369320957506 0.4978016609672691
0.24355140699981348 0.42256961406936977 0.5007327796775769
0.2437390149998464 0.4264777723497801 0.4948705422569615
0.24392616000022826 0.4284318514899854 0.495847581827064
0.24411441600022954 0.4255007327796776 0.49682462139716654
0.24430178400007208 0.431362970200293 0.49682462139716654
0.2444890579999992 0.4303859306301905 0.495847581827064
0.24467631500010611 0.4352711284807034 0.4978016609672691
0.24486436699999103 0.4401563263312165 0.4948705422569615
0.2450523269999394 0.43917928676111373 0.49682462139716654
0.24524039800007813 0.4401563263312165 0.4948705422569615
0.24542795000024853 0.441133365901319 0.4948705422569615
0.24561627999992197 0.4382022471910112 0.495847581827064
0.2458034440001029 0.4401563263312165 0.4929164631167562
0.24599125600025218 0.4450415241817294 0.4948705422569615
0.24617932699993617 0.4479726428920372 0.486077186126038
0.24636652700019113 0.44992672203224227 0.4811919882755251
0.24655383900017114 0.4528578407425501 0.47923790913532005
0.2467421880000984 0.45188080117244755 0.4655593551538837
0.2469293879998986 0.45676599902296044 0.45676599902296044
0.24711712599992097 0.4538348803126526 0.4450415241817294
0.24730621500020789 0.44894968246213973 0.4382022471910112
0.24749380499997642 0.44894968246213973 0.4303859306301905
0.24768193099998825 0.44992672203224227 0.4235466536394723
0.2478692059999048 0.4430874450415241 0.42256961406936977
0.24806136999995942 0.44992672203224227 0.40889106008793363
0.2482558289998451 0.43722520762090866 0.40693698094772834
0.24844891900011135 0.4401563263312165 0.4059599413776258
0.24863806400026078 0.44406448461162684 0.4059599413776258
0.24882602400020915 0.44992672203224227 0.4059599413776258
0.24901392799984023 0.457743038593063 0.40889106008793363
0.24920142500013753 0.4655593551538837 0.403028822667318
0.2493892729999061 0.46946751343429405 0.403028822667318
0.24957656700007647 0.4763067904250122 0.39912066438690763
0.24976410099998247 0.48216902784562765 0.3961895456765998
0.24995174600007886 0.4880312652662433 0.3961895456765998
0.250139020000006 0.4929164631167562 0.3961895456765998
0.2503272580001976 0.495847581827064 0.40009770395701016
0.2505154030000085 0.5017098192476794 0.40009770395701016
0.2507032700000309 0.5046409379579873 0.4049829018075233
0.25089241500018034 0.5065950170981925 0.4059599413776258
0.2510805420001816 0.5036638983878847 0.4079140205178309
0.2512719090000246 0.5095261358085001 0.41182217879824123
0.25146122100022694 0.5105031753786029 0.40986809965803617
0.2516494030001013 0.5114802149487054 0.41182217879824123
0.2518372700001237 0.512457254518808 0.412799218368344
0.25202545199999804 0.5114802149487054 0.41475329750854906
0.25221378200012623 0.5095261358085001 0.4157303370786516
0.25240205699992657 0.5114802149487054 0.41475329750854906
0.25258942400023443 0.5095261358085001 0.412799218368344
0.25277786500009825 0.5085490962383976 0.40889106008793363
0.2529656030001206 0.5065950170981925 0.4059599413776258
0.25315350700020645 0.5026868588177822 0.4040058622374205
0.25334130100009133 0.495847581827064 0.4040058622374205
0.25352976000021954 0.49682462139716654 0.40889106008793363
0.2537177760000304 0.49193942354665365 0.403028822667318
0.253905272999873 0.486077186126038 0.40986809965803617
0.2540932880001492 0.4811919882755251 0.40889106008793363
0.2542806000001292 0.46946751343429405 0.40889106008793363
0.25446800400004577 0.45969711773326827 0.41182217879824123
0.2546562789998461 0.4528578407425501 0.40986809965803617
0.2548437569998896 0.4401563263312165 0.4176844162188569
0.25503156900003887 0.42159257449926724 0.41475329750854906
0.25521973200011416 0.4079140205178309 0.4157303370786516
0.25540967400002046 0.39912066438690763 0.4137762579384465
0.25559739300024376 0.39228138739618945 0.4176844162188569
0.2557850560001498 0.3883732291157791 0.4137762579384465
0.2559725159999289 0.38739618954567656 0.4206155349291647
0.256159124000078 0.3903273082559844 0.4264777723497801
0.2563458250001531 0.3952125061064973 0.43429408891060084
0.2565336920001755 0.4040058622374205 0.44211040547142155
0.2567217820001133 0.4157303370786516 0.4450415241817294
0.2569318519999797 0.41963849535906195 0.4538348803126526
0.2572866430000431 0.42452369320957506 0.46262823644357587
0.2575278240001353 0.42256961406936977 0.46262823644357587
0.25773495000021285 0.4206155349291647 0.467513434294089
0.25793033599984483 0.41963849535906195 0.47142159257449934
0.25811972100018465 0.42256961406936977 0.4704445530043966
0.2583092919999217 0.431362970200293 0.46946751343429405
0.2584977340002297 0.4264777723497801 0.47239863214460187
0.2586860820001675 0.4323400097703958 0.47435271128480694
0.25887552399990454 0.4352711284807034 0.4753297508549097
0.2590637799999058 0.43624816805080613 0.47728382999511476
0.2592785729998468 0.4333170493404983 0.4811919882755251
0.25947042100006 0.4333170493404983 0.48998534440644836
0.2596593439998287 0.43624816805080613 0.4948705422569615
0.259848637000232 0.43722520762090866 0.495847581827064
0.26003620800020144 0.441133365901319 0.5007327796775769
0.26022392699997 0.45188080117244755 0.49975574010747437
0.26041218299997126 0.46262823644357587 0.49975574010747437
0.26059947700014163 0.4665363947239862 0.49877870053737183
0.260787473000164 0.46946751343429405 0.5026868588177822
0.26097596999989037 0.467513434294089 0.5017098192476794
0.26116368900011366 0.4587200781631655 0.49877870053737183
0.2613526489999458 0.44992672203224227 0.495847581827064
0.261540757000148 0.4401563263312165 0.49682462139716654
0.26172919900000124 0.4235466536394723 0.49682462139716654
0.26191725099988616 0.4108451392281387 0.495847581827064
0.2621091549999619 0.39228138739618945 0.4978016609672691
0.2622983189999104 0.3932584269662922 0.4978016609672691
0.26248639000004914 0.3913043478260869 0.495847581827064
0.2626742759998706 0.39912066438690763 0.49682462139716654
0.2628614949999246 0.40009770395701016 0.49975574010747437
0.2630492140001479 0.4040058622374205 0.5026868588177822
0.2632368590002443 0.4137762579384465 0.49975574010747437
0.2634353190001093 0.4186614557889594 0.5007327796775769
0.26362361200017403 0.42256961406936977 0.5026868588177822
0.26381136800000604 0.42256961406936977 0.5017098192476794
0.26399840200019753 0.4206155349291647 0.4978016609672691
0.26418675000013536 0.42256961406936977 0.4929164631167562
0.26437482099981935 0.42159257449926724 0.4909623839765511
0.2645621520000532 0.4186614557889594 0.4938935026868587
0.26475062999998045 0.41670737664875435 0.4929164631167562
0.26493805300015083 0.4186614557889594 0.48900830483634583
0.26512649400001465 0.42159257449926724 0.48900830483634583
0.26531404700017447 0.42256961406936977 0.48900830483634583
0.2655018770001334 0.4176844162188569 0.49193942354665365
0.26568998499988083 0.4206155349291647 0.4880312652662433
0.26587811099989267 0.412799218368344 0.48412310698583294
0.26606547900018995 0.40986809965803617 0.4782608695652173
0.2662535129998105 0.41475329750854906 0.4753297508549097
0.26644088000011834 0.41475329750854906 0.46946751343429405
0.26662802500004545 0.4157303370786516 0.45969711773326827
0.2668160399998669 0.4186614557889594 0.457743038593063
0.26700290799999493 0.42452369320957506 0.45676599902296044
0.2671912750001866 0.4284318514899854 0.45188080117244755
0.2673802720000822 0.4401563263312165 0.4430874450415241
0.26756789799992475 0.44406448461162684 0.43722520762090866
0.26775537699995766 0.4479726428920372 0.43722520762090866
0.26794292900012806 0.45676599902296044 0.4382022471910112
0.26813061099983315 0.45481191988275516 0.4284318514899854
0.2683185890000459 0.4636052760136786 0.4255007327796776
0.26850666000018464 0.467513434294089 0.4235466536394723
0.26869358300018575 0.4665363947239862 0.4176844162188569
0.26888402399981715 0.46458231558378116 0.41670737664875435
0.26907305800023096 0.46946751343429405 0.41182217879824123
0.2692615000000842 0.47142159257449934 0.4059599413776258
0.26944901500019114 0.47239863214460187 0.40009770395701016
0.2696361789999173 0.4704445530043966 0.39716658524670256
0.2698240459999397 0.4704445530043966 0.403028822667318
0.2700117469998986 0.4733756717147044 0.40205178309721545
0.2701994469998681 0.4753297508549097 0.40693698094772834
0.2703867220002394 0.4811919882755251 0.4079140205178309
0.27057381099984923 0.4831460674157304 0.40889106008793363
0.2707610669999667 0.4851001465559355 0.40986809965803617
0.2709492680000949 0.4880312652662433 0.4079140205178309
0.2711366540002018 0.4880312652662433 0.4137762579384465
0.2713321880000876 0.48705422569614076 0.4157303370786516
0.27151962900006765 0.4880312652662433 0.41963849535906195
0.2717070150001746 0.4880312652662433 0.41963849535906195
0.2718938259999959 0.48705422569614076 0.4176844162188569
0.27208093399985955 0.4831460674157304 0.41670737664875435
0.2722681720001674 0.4802149487054226 0.40986809965803617
0.2724560950000523 0.4802149487054226 0.40693698094772834
0.2726437400001487 0.4782608695652173 0.40693698094772834
0.27283106999993834 0.4733756717147044 0.4059599413776258
0.27301923400000305 0.4763067904250122 0.4049829018075233
0.2732064159999936 0.4851001465559355 0.4059599413776258
0.2733936160002486 0.4909623839765511 0.4079140205178309
0.2735814279999431 0.48705422569614076 0.40986809965803617
0.2737682400002086 0.48705422569614076 0.412799218368344
0.27395529200020974 0.4831460674157304 0.4176844162188569
0.2741425479998725 0.4753297508549097 0.41475329750854906
0.2743291749998207 0.46946751343429405 0.4157303370786516
0.27451681999991706 0.4538348803126526 0.41182217879824123
0.2747035209999922 0.4509037616023448 0.41182217879824123
0.27489122099996166 0.4538348803126526 0.412799218368344
0.275078737000058 0.4587200781631655 0.4108451392281387
0.2752673820000382 0.4636052760136786 0.412799218368344
0.27545456400002877 0.467513434294089 0.412799218368344
0.2756413940001039 0.46946751343429405 0.412799218368344
0.27582820599991464 0.4733756717147044 0.4137762579384465
0.27601546200003213 0.4753297508549097 0.41475329750854906
0.2762018660000649 0.47435271128480694 0.4157303370786516
0.27638862200001313 0.4763067904250122 0.4176844162188569
0.2765752860000248 0.4753297508549097 0.4206155349291647
0.2767619870000999 0.4733756717147044 0.42940889106008795
0.27694911300022795 0.4733756717147044 0.43624816805080613
0.2771365909998167 0.46946751343429405 0.43722520762090866
0.27732366200007164 0.46458231558378116 0.4382022471910112
0.2775119560001258 0.45481191988275516 0.4382022471910112
0.2776992120002433 0.46262823644357587 0.43429408891060084
0.2778867269998955 0.457743038593063 0.43624816805080613
0.278075039000214 0.45969711773326827 0.43917928676111373
0.2782629620000989 0.46458231558378116 0.45676599902296044
0.27844993999997314 0.467513434294089 0.46458231558378116
0.27863799199985806 0.47239863214460187 0.47728382999511476
0.2788256190001448 0.48412310698583294 0.4978016609672691
0.27901304199986043 0.4851001465559355 0.5036638983878847
0.27920100200026354 0.48900830483634583 0.5134342940889105
0.27938959099992644 0.486077186126038 0.524181729360039
0.2795767180000439 0.48216902784562765 0.5290669272105519
0.2797639549999076 0.47239863214460187 0.5290669272105519
0.27995102600016253 0.467513434294089 0.5251587689301416
0.28013828199982527 0.46165119687347334 0.5163654127992183
0.28032650200020726 0.4557889594528579 0.5095261358085001
0.28051494300007107 0.4450415241817294 0.5036638983878847
0.2807019209999453 0.43722520762090866 0.49975574010747437
0.28088982600002055 0.42745481191988266 0.49682462139716654
0.2810768590002226 0.4176844162188569 0.4938935026868587
0.28126374500016027 0.41963849535906195 0.48900830483634583
0.2814516130001721 0.41963849535906195 0.4851001465559355
0.2816384799998559 0.4157303370786516 0.4851001465559355
0.2818256250002378 0.41182217879824123 0.4811919882755251
0.28201651100016534 0.4108451392281387 0.4811919882755251
0.28220741499990254 0.4108451392281387 0.4851001465559355
0.2823950970000624 0.412799218368344 0.4802149487054226
0.2825823160001164 0.41475329750854906 0.47728382999511476
0.28277020199993785 0.4137762579384465 0.4802149487054226
0.28295753200018225 0.4176844162188569 0.4831460674157304
0.2831453250000777 0.4137762579384465 0.4802149487054226
0.2833456739999747 0.4157303370786516 0.4831460674157304
0.28353348500013453 0.4157303370786516 0.4831460674157304
0.28372066800011453 0.41475329750854906 0.48412310698583294
0.28390805300023203 0.4157303370786516 0.486077186126038
0.28409512400003223 0.41963849535906195 0.48705422569614076
0.2842823619998853 0.4235466536394723 0.4929164631167562
0.28446974799999225 0.41963849535906195 0.4831460674157304
0.2846575409998877 0.4206155349291647 0.49193942354665365
0.2848454270001639 0.4186614557889594 0.4948705422569615
0.2850329050002074 0.412799218368344 0.5007327796775769
0.285220549999849 0.40986809965803617 0.4978016609672691
0.2854081949999454 0.4079140205178309 0.49975574010747437
0.28559621100021104 0.40693698094772834 0.49682462139716654
0.28578389299991613 0.4108451392281387 0.4948705422569615
0.2859717599999385 0.41670737664875435 0.4948705422569615
0.2861600159999398 0.4176844162188569 0.486077186126038
0.2863470500001313 0.4255007327796776 0.48216902784562765
0.28653491700015365 0.4352711284807034 0.4763067904250122
0.28672243300025 0.4479726428920372 0.46946751343429405
0.2869100040002195 0.4557889594528579 0.4655593551538837
0.2870971299998928 0.4636052760136786 0.4636052760136786
0.28728533100002096 0.47142159257449934 0.4587200781631655
0.2874730680000539 0.4753297508549097 0.45481191988275516
0.28766019500017137 0.47923790913532005 0.44894968246213973
0.28784721000010904 0.4811919882755251 0.44894968246213973
0.2880343739998352 0.4851001465559355 0.441133365901319
0.2882226299998365 0.4811919882755251 0.4450415241817294
0.28841016400019726 0.4880312652662433 0.4382022471910112
0.28859741999986 0.4802149487054226 0.4352711284807034
0.28878495400022075 0.4782608695652173 0.431362970200293
0.28897248800012676 0.4782608695652173 0.4284318514899854
0.28916068799981076 0.4763067904250122 0.4206155349291647
0.2893478519999917 0.47142159257449934 0.42256961406936977
0.2895351820002361 0.4763067904250122 0.4059599413776258
0.28972278999981427 0.47142159257449934 0.4049829018075233
0.28990991699993174 0.4636052760136786 0.403028822667318
0.2900968769999963 0.4606741573033708 0.40205178309721545
0.29028461400002925 0.4655593551538837 0.40205178309721545
0.29047185199988235 0.467513434294089 0.4049829018075233
0.2906590900001902 0.467513434294089 0.40693698094772834
0.29084643800024423 0.4684904738641915 0.4059599413776258
0.2910336569998435 0.46458231558378116 0.41182217879824123
0.29122087699988697 0.45969711773326827 0.4176844162188569
0.2914106510002057 0.45188080117244755 0.4176844162188569
0.29159790699986843 0.44211040547142155 0.42452369320957506
0.29178538599990134 0.4333170493404983 0.41475329750854906
0.291973660000167 0.42940889106008795 0.4108451392281387
0.29216284199992515 0.4235466536394723 0.4108451392281387
0.2923511909998524 0.42452369320957506 0.40693698094772834
0.2925386699998853 0.4206155349291647 0.4049829018075233
0.29272664800009807 0.42159257449926724 0.4040058622374205
0.29291383000008864 0.4206155349291647 0.40009770395701016
0.2931009939998148 0.4255007327796776 0.40009770395701016
0.29328828699999576 0.4323400097703958 0.3961895456765998
0.2934758020001027 0.44894968246213973 0.3952125061064973
0.2936637249999876 0.47239863214460187 0.39716658524670256
0.29385190699986197 0.48412310698583294 0.3981436248168051
0.2940388299998631 0.4948705422569615 0.3981436248168051
0.2942261600001075 0.5026868588177822 0.40009770395701016
0.2944136940000135 0.5075720566682951 0.4010747435271129
0.29460080199987715 0.5144113336590133 0.4049829018075233
0.29478791000019555 0.5144113336590133 0.4059599413776258
0.29497527700004866 0.5144113336590133 0.40889106008793363
0.2951622740001767 0.5105031753786029 0.4049829018075233
0.29535806700005196 0.5036638983878847 0.4010747435271129
0.29554524900004253 0.495847581827064 0.403028822667318
0.2957319130000542 0.48900830483634583 0.4049829018075233
0.2959185949998755 0.47923790913532005 0.40693698094772834
0.2961051470001621 0.47435271128480694 0.41475329750854906
0.2962920700001632 0.4684904738641915 0.42159257449926724
0.2964788640001643 0.45481191988275516 0.42745481191988266
0.29666697199991177 0.4528578407425501 0.4352711284807034
0.2968541720001667 0.45188080117244755 0.441133365901319
0.29704302100026325 0.44894968246213973 0.44894968246213973
0.29723072100023273 0.43722520762090866 0.4557889594528579
0.29741864400011764 0.4264777723497801 0.45969711773326827
0.29760632599982273 0.4206155349291647 0.46458231558378116
0.2977936380002575 0.4137762579384465 0.46458231558378116
0.2979806160001317 0.412799218368344 0.4636052760136786
0.2981677610000588 0.412799218368344 0.45969711773326827
0.2983548880001763 0.41670737664875435 0.45676599902296044
0.2985421809999025 0.42256961406936977 0.45481191988275516
0.29872947400008343 0.431362970200293 0.4557889594528579
0.2989170450000529 0.43624816805080613 0.4606741573033708
0.2991043570000329 0.441133365901319 0.46458231558378116
0.2992924089999178 0.441133365901319 0.4704445530043966
0.29948005500000363 0.4460185637518319 0.47923790913532005
0.2996680699998251 0.4401563263312165 0.4811919882755251
0.29985530800013294 0.43917928676111373 0.4831460674157304
0.3000431750001553 0.43722520762090866 0.4802149487054226
0.30023078300018824 0.4333170493404983 0.4802149487054226
0.300417723999999 0.42940889106008795 0.47923790913532005
0.30060462800020105 0.43429408891060084 0.4782608695652173
0.30079401400007555 0.431362970200293 0.47923790913532005
0.30098290000023553 0.42940889106008795 0.4782608695652173
0.30117095200012045 0.4235466536394723 0.47728382999511476
0.3013588570001957 0.4284318514899854 0.47728382999511476
0.3015461499999219 0.4303859306301905 0.47923790913532005
0.3017339429998174 0.42940889106008795 0.47728382999511476
0.301922088000083 0.4284318514899854 0.4851001465559355
0.3021089740000207 0.4206155349291647 0.48705422569614076
0.30229661900011706 0.40986809965803617 0.48705422569614076
0.3024836529998538 0.4049829018075233 0.4880312652662433
0.30267109399983383 0.40205178309721545 0.4880312652662433
0.30285877599999367 0.40009770395701016 0.48705422569614076
0.30304607000016404 0.40009770395701016 0.48705422569614076
0.30323356600001716 0.4040058622374205 0.4909623839765511
0.3034297110002626 0.41182217879824123 0.49877870053737183
0.30361676400025317 0.4176844162188569 0.5095261358085001
0.3038043530000323 0.42159257449926724 0.5192965315095261
0.3039918320000652 0.4284318514899854 0.5271128480703469
0.30417992100001356 0.4382022471910112 0.5368832437713726
0.3043673810002474 0.44894968246213973 0.5456765999022961
0.3045551370000794 0.44894968246213973 0.5466536394723986
0.30474241199999597 0.44894968246213973 0.5515388373229115
0.3049302979998174 0.4479726428920372 0.5515388373229115
0.30511707200003 0.4509037616023448 0.5486077186126037
0.3053047729999889 0.4509037616023448 0.5427454811919883
0.3054929549998633 0.4509037616023448 0.5417684416218858
0.3056797849999384 0.4538348803126526 0.5349291646311676
0.30586741200022516 0.4557889594528579 0.5280898876404494
0.30605433400023685 0.4606741573033708 0.5183194919394236
0.30624140500003705 0.4636052760136786 0.5114802149487054
0.30642858800001704 0.47142159257449934 0.5007327796775769
0.3066155289998278 0.4811919882755251 0.4909623839765511
0.306803100000252 0.4811919882755251 0.4802149487054226
0.3069904670001051 0.4831460674157304 0.47142159257449934
0.3071773530000428 0.4802149487054226 0.4587200781631655
0.3073662570000124 0.4782608695652173 0.45188080117244755
0.3075533470000664 0.4704445530043966 0.44992672203224227
0.3077408069998455 0.47239863214460187 0.44406448461162684
0.30792841499987844 0.46946751343429405 0.44211040547142155
0.3081158929999219 0.46946751343429405 0.4401563263312165
0.3083029270001134 0.4665363947239862 0.44211040547142155
0.3084902939999665 0.46458231558378116 0.44211040547142155
0.3086777170001369 0.46262823644357587 0.4460185637518319
0.30886508399999 0.457743038593063 0.44992672203224227
0.3090522659999806 0.4587200781631655 0.45188080117244755
0.3092400959999395 0.45188080117244755 0.44894968246213973
0.3094275190001099 0.4557889594528579 0.44211040547142155
0.3096152749999419 0.46165119687347334 0.43722520762090866
0.30980323499989026 0.46458231558378116 0.42452369320957506
0.3099900840002192 0.4655593551538837 0.42159257449926724
0.31017819199996666 0.46458231558378116 0.4137762579384465
0.3103651699998409 0.46458231558378116 0.40889106008793363
0.31055190799997945 0.46165119687347334 0.39716658524670256
0.310738646000118 0.457743038593063 0.3913043478260869
0.31092592000004515 0.457743038593063 0.3834880312652662
0.31111354699987714 0.45188080117244755 0.37957987298485585
0.31130193299986786 0.44894968246213973 0.3737176355642404
0.31149043000004895 0.4450415241817294 0.3756717147044455
0.31167466700026125 0.44699560332193444 0.37957987298485585
0.3118584789999659 0.44894968246213973 0.37957987298485585
0.31204319800008307 0.4479726428920372 0.38153395212506114
0.31222789899993586 0.45676599902296044 0.38153395212506114
0.31241269200017996 0.46458231558378116 0.38641914997557403
0.3125972819998424 0.4733756717147044 0.3903273082559844
0.31278153799985375 0.47435271128480694 0.39228138739618945
0.3129663499998969 0.4811919882755251 0.3883732291157791
0.3131512350000776 0.48900830483634583 0.38739618954567656
0.3133361770001102 0.4938935026868587 0.3834880312652662
0.3135206179999841 0.4948705422569615 0.38739618954567656
0.3137053189998369 0.49193942354665365 0.3913043478260869
0.3138898339998377 0.48705422569614076 0.38739618954567656
0.3140742760001558 0.486077186126038 0.38935026868588185
0.3142588099999557 0.48216902784562765 0.38641914997557403
0.3144436030001998 0.47728382999511476 0.3961895456765998
0.31462841500024297 0.4753297508549097 0.40009770395701016
0.3148125410002649 0.47435271128480694 0.40009770395701016
0.3149964459998955 0.4704445530043966 0.4059599413776258
0.3151806830001078 0.4704445530043966 0.4079140205178309
0.3153743839998242 0.46165119687347334 0.40693698094772834
0.31556101000023773 0.4587200781631655 0.40693698094772834
0.31574843299995337 0.457743038593063 0.40889106008793363
0.31593492999991213 0.45676599902296044 0.4108451392281387
0.31612146399993435 0.4528578407425501 0.4157303370786516
0.3163079609998931 0.4538348803126526 0.4157303370786516
0.31649449499991533 0.44992672203224227 0.4264777723497801
0.31668047299990576 0.44992672203224227 0.42745481191988266
0.3168675259998963 0.4538348803126526 0.4323400097703958
0.3170556889999716 0.45188080117244755 0.4401563263312165
0.3172423159999198 0.4528578407425501 0.4479726428920372
0.31742905300006896 0.44992672203224227 0.4636052760136786
0.31761647600023935 0.4460185637518319 0.4655593551538837
0.31780315800006065 0.4430874450415241 0.46946751343429405
0.3179902659999243 0.4352711284807034 0.4733756717147044
0.318176393000158 0.42745481191988266 0.47435271128480694
0.318363705000138 0.4255007327796776 0.47435271128480694
0.3185510900002555 0.42745481191988266 0.4753297508549097
0.31873817999985476 0.4235466536394723 0.47728382999511476
0.31892487999994046 0.42745481191988266 0.4811919882755251
0.3191120999999839 0.4303859306301905 0.4880312652662433
0.31930091100002755 0.4303859306301905 0.5017098192476794
0.319488352999997 0.42940889106008795 0.5085490962383976
0.3196752750000087 0.42940889106008795 0.5183194919394236
0.3198630689998936 0.43429408891060084 0.5163654127992183
0.32005076899986307 0.43429408891060084 0.5114802149487054
0.320238376999896 0.43624816805080613 0.5095261358085001
0.3204258740001933 0.43624816805080613 0.5134342940889105
0.3206131669999195 0.431362970200293 0.5134342940889105
0.320800201000111 0.42745481191988266 0.5134342940889105
0.3209874019999006 0.431362970200293 0.5144113336590133
0.32117491700000755 0.42745481191988266 0.5163654127992183
0.32136317300000883 0.4303859306301905 0.5105031753786029
0.3215506699998514 0.4323400097703958 0.5085490962383976
0.32173770400004287 0.4333170493404983 0.5114802149487054
0.3219257569999172 0.431362970200293 0.5085490962383976
0.3221129200001087 0.4303859306301905 0.5056179775280898
0.3223001020000993 0.431362970200293 0.5085490962383976
0.3224878030000582 0.4303859306301905 0.5046409379579873
0.3226752810001017 0.42940889106008795 0.5026868588177822
0.3228635000000395 0.431362970200293 0.5056179775280898
0.32305107100000896 0.42940889106008795 0.5085490962383976
0.32323808699993606 0.4333170493404983 0.5085490962383976
0.3234351760002028 0.4333170493404983 0.5075720566682951
0.3236227100001088 0.4352711284807034 0.5046409379579873
0.3238101510000888 0.4303859306301905 0.5075720566682951
0.32399770400024863 0.431362970200293 0.5065950170981925
0.3241847929998585 0.4303859306301905 0.5007327796775769
0.32437216100015576 0.4323400097703958 0.5026868588177822
0.32455906499990306 0.4303859306301905 0.49975574010747437
0.32474645100001 0.43624816805080613 0.4948705422569615
0.32493437299990546 0.441133365901319 0.4938935026868587
0.3251220930001182 0.441133365901319 0.486077186126038
0.3253087930002039 0.4450415241817294 0.48216902784562765
0.32549647499990897 0.4430874450415241 0.4782608695652173
0.3256833240002379 0.4479726428920372 0.47239863214460187
0.32587220999994315 0.44894968246213973 0.4665363947239862
0.32606059599993387 0.45188080117244755 0.46262823644357587
0.32624770400025227 0.4538348803126526 0.4587200781631655
0.32643449700026395 0.45676599902296044 0.4557889594528579
0.32662110499995833 0.4587200781631655 0.45676599902296044
0.3268079720000969 0.45969711773326827 0.4528578407425501
0.32699517299988656 0.45969711773326827 0.4538348803126526
0.32718159500018373 0.4655593551538837 0.4557889594528579
0.32736957399993116 0.4538348803126526 0.44894968246213973
0.3275562560002072 0.4538348803126526 0.441133365901319
0.32774347500026124 0.44992672203224227 0.4401563263312165
0.32793015700008254 0.4479726428920372 0.431362970200293
0.32811859799994636 0.4430874450415241 0.4235466536394723
0.32830579900019075 0.43917928676111373 0.4264777723497801
0.3284927400000015 0.441133365901319 0.4176844162188569
0.3286796080001295 0.4401563263312165 0.41475329750854906
0.3288667709998663 0.441133365901319 0.4079140205178309
0.32905380500005776 0.441133365901319 0.4040058622374205
0.3292410059998474 0.4450415241817294 0.3961895456765998
0.32942805799984853 0.4557889594528579 0.3883732291157791
0.3296152960001564 0.46165119687347334 0.38446507083536874
0.32980247800014695 0.46458231558378116 0.38446507083536874
0.32998964199987313 0.4704445530043966 0.3834880312652662
0.33017641600008574 0.47239863214460187 0.3834880312652662
0.3303634690000763 0.4782608695652173 0.38739618954567656
0.33055079899986595 0.4763067904250122 0.39228138739618945
0.33073788799993054 0.47728382999511476 0.3961895456765998
0.3309258479998789 0.48216902784562765 0.4040058622374205
0.3311129379999329 0.4811919882755251 0.4049829018075233
0.3313011010000082 0.4831460674157304 0.4079140205178309
0.33148861700010457 0.48216902784562765 0.41182217879824123
0.3316761689998202 0.4851001465559355 0.4176844162188569
0.3318634990000646 0.4831460674157304 0.4235466536394723
0.3320506810000552 0.4831460674157304 0.4235466536394723
0.33224002999986624 0.4880312652662433 0.431362970200293
0.33242736000011064 0.4851001465559355 0.4264777723497801
0.3326167089999217 0.4851001465559355 0.4264777723497801
0.33280518699984896 0.48998534440644836 0.4206155349291647
0.33299266599988186 0.4929164631167562 0.41670737664875435
0.3331805150000946 0.4948705422569615 0.412799218368344
0.3333675110002332 0.49682462139716654 0.41182217879824123
0.33355563800023447 0.495847581827064 0.4079140205178309
0.33374270900003467 0.495847581827064 0.4059599413776258
0.3339295949999723 0.5065950170981925 0.4059599413776258
0.3341165550000369 0.49877870053737183 0.4059599413776258
0.33430451399999583 0.4978016609672691 0.4040058622374205
0.3344911039998806 0.4948705422569615 0.40205178309721545
0.3346780269998817 0.4948705422569615 0.4059599413776258
0.3348652640002001 0.4880312652662433 0.4040058622374205
0.3350523540002541 0.47728382999511476 0.40205178309721545
0.33523922099993797 0.4733756717147044 0.40693698094772834
0.335437051000099 0.4606741573033708 0.4059599413776258
0.3356241780002165 0.4557889594528579 0.40693698094772834
0.33581073000004835 0.44992672203224227 0.40693698094772834
0.335997930999838 0.4450415241817294 0.412799218368344
0.3361849460002304 0.44992672203224227 0.412799218368344
0.3363723510001364 0.4450415241817294 0.4186614557889594
0.3365594219999366 0.4460185637518319 0.4235466536394723
0.33674586300003284 0.4509037616023448 0.431362970200293
0.3369423970002572 0.44699560332193444 0.4382022471910112
0.33713119000003644 0.44894968246213973 0.4430874450415241
0.3373191499999848 0.4430874450415241 0.44406448461162684
0.33750722100012354 0.43429408891060084 0.44894968246213973
0.3376951250002094 0.42452369320957506 0.45676599902296044
0.33788260300025286 0.41670737664875435 0.45481191988275516
0.3380702670001483 0.4108451392281387 0.4557889594528579
0.33825837499989575 0.4040058622374205 0.45188080117244755
0.33844553800008725 0.40009770395701016 0.4538348803126526
0.3386333690000356 0.3981436248168051 0.45676599902296044
0.3388209579998147 0.4010747435271129 0.4538348803126526
0.33900880700002745 0.4079140205178309 0.4587200781631655
0.3391962670002613 0.4157303370786516 0.4606741573033708
0.33938489299998764 0.4206155349291647 0.47142159257449934
0.339572316000158 0.42940889106008795 0.4811919882755251
0.33975983100026497 0.441133365901319 0.4802149487054226
0.33994675399981134 0.4557889594528579 0.48412310698583294
0.34013423299984424 0.4684904738641915 0.4948705422569615
0.34032059999981357 0.4831460674157304 0.49193942354665365
0.3405073009998887 0.49877870053737183 0.495847581827064
0.34069590900026014 0.5036638983878847 0.49682462139716654
0.3408838499999547 0.5095261358085001 0.49975574010747437
0.3410714579999876 0.5105031753786029 0.5007327796775769
0.34125960300025326 0.5105031753786029 0.49975574010747437
0.3414471370001593 0.5056179775280898 0.49975574010747437
0.34163478200025565 0.4978016609672691 0.4978016609672691
0.3418221309998444 0.48998534440644836 0.49877870053737183
0.3420096830000148 0.48705422569614076 0.5046409379579873
0.3421963840000899 0.4753297508549097 0.5075720566682951
0.34238378800000646 0.4704445530043966 0.5046409379579873
0.34257080299994414 0.46946751343429405 0.49877870053737183
0.34275850399990304 0.45969711773326827 0.4880312652662433
0.3429459079998196 0.4509037616023448 0.4811919882755251
0.3431329420000111 0.43722520762090866 0.47239863214460187
0.3433210500002133 0.4157303370786516 0.4655593551538837
0.3435094729998127 0.39912066438690763 0.4538348803126526
0.3436965999999302 0.3834880312652662 0.44992672203224227
0.34388463300001604 0.3659013190034197 0.44992672203224227
0.34407179700019697 0.3561309233023937 0.45188080117244755
0.34425857199994425 0.34929164631167553 0.45969711773326827
0.3444458650001252 0.34733756717147046 0.4733756717147044
0.3446331029999783 0.35710796287249624 0.4909623839765511
0.34482078500013813 0.36199316072300936 0.5007327796775769
0.3450080410002556 0.37176355642403514 0.5163654127992183
0.34519501900012983 0.38153395212506114 0.5300439667806547
0.34538240500023676 0.38739618954567656 0.5398143624816805
0.34557016100006877 0.38935026868588185 0.5583781143136297
0.34575819500014404 0.3883732291157791 0.5632633121641426
0.3459451919998173 0.38641914997557403 0.567171470444553
0.3461334110002099 0.38251099169516367 0.5593551538837322
0.3463213889999679 0.3854421104054715 0.550561797752809
0.34650836799983153 0.38641914997557403 0.5368832437713726
0.3466962910001712 0.38935026868588185 0.5251587689301416
0.3468842500001301 0.3913043478260869 0.5095261358085001
0.3470714879999832 0.39423546653639474 0.5017098192476794
0.3472679110000172 0.4010747435271129 0.48705422569614076
0.3474563710001348 0.412799218368344 0.4733756717147044
0.3476430900000196 0.4186614557889594 0.46458231558378116
0.3478304569998727 0.42745481191988266 0.457743038593063
0.3480176759999267 0.43624816805080613 0.45188080117244755
0.3482044880001922 0.44211040547142155 0.44406448461162684
0.34839118799982316 0.44699560332193444 0.4401563263312165
0.34857863000024736 0.43917928676111373 0.44406448461162684
0.34876599700010047 0.4430874450415241 0.44211040547142155
0.3489532160001545 0.4430874450415241 0.4401563263312165
0.34914047199981724 0.44406448461162684 0.4352711284807034
0.3493278209998607 0.4430874450415241 0.4303859306301905
0.34951498500004163 0.4430874450415241 0.431362970200293
0.34970186999998987 0.44699560332193444 0.4206155349291647
0.349888792999991 0.4479726428920372 0.41963849535906195
0.35007630900008735 0.45188080117244755 0.41670737664875435
0.35026345400001446 0.4528578407425501 0.41475329750854906
0.3504499509999732 0.46165119687347334 0.412799218368344
0.35063702200022817 0.46458231558378116 0.41182217879824123
0.35082318500008114 0.4684904738641915 0.40889106008793363
0.3510098490000928 0.4733756717147044 0.4059599413776258
0.351196826999967 0.4763067904250122 0.403028822667318
0.35138597200011645 0.48216902784562765 0.4010747435271129
0.3515733019999061 0.47923790913532005 0.39912066438690763
0.35176085500006593 0.4763067904250122 0.3952125061064973
0.3519481849998556 0.47142159257449934 0.39716658524670256
0.3521361819998674 0.47142159257449934 0.39423546653639474
0.35232347500004835 0.47239863214460187 0.39423546653639474
0.3525108610001553 0.4802149487054226 0.39228138739618945
0.35269833900019876 0.4909623839765511 0.38641914997557403
0.3528854470000624 0.5036638983878847 0.3834880312652662
0.3530726849999155 0.5144113336590133 0.3805569125549584
0.3532604970000648 0.5153883732291158 0.37957987298485585
0.3534548640000139 0.5183194919394236 0.3756717147044455
0.35365482299994255 0.5183194919394236 0.38153395212506114
0.3538520420001987 0.5173424523693209 0.38251099169516367
0.3540425950000099 0.5095261358085001 0.38153395212506114
0.35423155499984205 0.5202735710796287 0.38446507083536874
0.3544189959998221 0.5202735710796287 0.38446507083536874
0.3546073819998128 0.5251587689301416 0.3913043478260869
0.3547942680002052 0.5310210063507572 0.3961895456765998
0.35498222700016413 0.5329750854909623 0.39912066438690763
0.3551701320002394 0.5446995603321934 0.4079140205178309
0.3553638879998289 0.5515388373229115 0.40889106008793363
0.35555164400011563 0.5534929164631168 0.4108451392281387
0.3557389369998418 0.5495847581827065 0.4176844162188569
0.3559259150001708 0.5388373229115779 0.42940889106008795
0.3561135420000028 0.533952125061065 0.431362970200293
0.3563010940001732 0.5153883732291158 0.43917928676111373
0.3564881840002272 0.5036638983878847 0.4430874450415241
0.3566754029998265 0.48900830483634583 0.4460185637518319
0.3568627889999334 0.4665363947239862 0.4557889594528579
0.35705145200017796 0.45188080117244755 0.4606741573033708
0.3572395599999254 0.42452369320957506 0.4587200781631655
0.3574277420002545 0.40009770395701016 0.46165119687347334
0.3576152209998327 0.3786028334147533 0.4636052760136786
0.3578027359999396 0.36003908158280407 0.46458231558378116
0.3579902149999725 0.34440644846116264 0.46458231558378116
0.358177693000016 0.33463605276013686 0.46458231558378116
0.3583654120002393 0.3356130923302394 0.46458231558378116
0.35855268700015586 0.33952125061064975 0.4665363947239862
0.3587400169999455 0.3512457254518808 0.4665363947239862
0.3589271060000101 0.3659013190034197 0.4684904738641915
0.35911399199994776 0.3776257938446508 0.47728382999511476
0.3593015629999172 0.3913043478260869 0.4802149487054226
0.35948878199997125 0.40205178309721545 0.486077186126038
0.3596775199998774 0.40889106008793363 0.4909623839765511
0.35986622100017485 0.41670737664875435 0.48998534440644836
0.3600536620001549 0.41963849535906195 0.48998534440644836
0.36024101100019834 0.4176844162188569 0.49682462139716654
0.36042889600003036 0.4176844162188569 0.4929164631167562
0.36061715300002106 0.41963849535906195 0.495847581827064
0.3608044829998107 0.42452369320957506 0.4880312652662433
0.36099218300023495 0.4284318514899854 0.48412310698583294
0.36118040200017276 0.431362970200293 0.48705422569614076
0.36136758500015276 0.43624816805080613 0.48216902784562765
0.3615556929999002 0.4352711284807034 0.4811919882755251
0.3617434669999966 0.4460185637518319 0.48705422569614076
0.36193114900015644 0.4382022471910112 0.48705422569614076
0.3621181829998932 0.43722520762090866 0.4909623839765511
0.362305865000053 0.4323400097703958 0.4929164631167562
0.3624930470000436 0.4284318514899854 0.4978016609672691
0.36268124800017176 0.41963849535906195 0.49975574010747437
0.3628685230000883 0.4157303370786516 0.49682462139716654
0.36305585299987797 0.4079140205178309 0.4938935026868587
0.3632429240001329 0.40009770395701016 0.4948705422569615
0.3634424950000721 0.40009770395701016 0.4948705422569615
0.36362951000000976 0.39912066438690763 0.49193942354665365
0.3638165810002647 0.4010747435271129 0.49193942354665365
0.3640037630002553 0.4049829018075233 0.49193942354665365
0.36419387100022504 0.4108451392281387 0.49682462139716654
0.3643813680000676 0.4206155349291647 0.49877870053737183
0.3645711240001219 0.4323400097703958 0.4909623839765511
0.3647592130000703 0.441133365901319 0.4909623839765511
0.3649466729998494 0.4460185637518319 0.48998534440644836
0.3651349480001045 0.457743038593063 0.4948705422569615
0.3653231120001692 0.4636052760136786 0.4948705422569615
0.3655101449999165 0.4665363947239862 0.49877870053737183
0.36569730900009745 0.4704445530043966 0.4909623839765511
0.36588456500021493 0.47142159257449934 0.4929164631167562
0.3660734139998567 0.467513434294089 0.4831460674157304
0.3662603550001222 0.4684904738641915 0.4782608695652173
0.3664476110002397 0.46458231558378116 0.47239863214460187
0.366634164000061 0.4655593551538837 0.4606741573033708
0.36682166099990354 0.46262823644357587 0.44992672203224227
0.36700921300007394 0.4606741573033708 0.4430874450415241
0.3671968580001703 0.4587200781631655 0.44211040547142155
0.36738450299981196 0.4557889594528579 0.4401563263312165
0.3675727410000036 0.4636052760136786 0.4352711284807034
0.36775986700013163 0.46165119687347334 0.43624816805080613
0.36794764200021746 0.457743038593063 0.4333170493404983
0.3681348979998802 0.45676599902296044 0.43722520762090866
0.36832287700008237 0.45481191988275516 0.4303859306301905
0.3685107070000413 0.45676599902296044 0.43429408891060084
0.36869766700010587 0.45676599902296044 0.42940889106008795
0.368885033999959 0.46165119687347334 0.4303859306301905
0.3690715120001187 0.46262823644357587 0.4255007327796776
0.3692589349998343 0.4665363947239862 0.42159257449926724
0.3694460430001527 0.4684904738641915 0.41182217879824123
0.36963296600015383 0.47239863214460187 0.41182217879824123
0.36982129599982727 0.46262823644357587 0.40693698094772834
0.37000860800026203 0.46165119687347334 0.4059599413776258
0.3701964010001575 0.45676599902296044 0.4079140205178309
0.3703846389998944 0.45481191988275516 0.40009770395701016
0.3705721910000648 0.4528578407425501 0.39716658524670256
0.37075983600016116 0.46165119687347334 0.3932584269662922
0.3709475740001835 0.4655593551538837 0.38935026868588185
0.3711345340002481 0.46946751343429405 0.3932584269662922
0.37133215999983804 0.4704445530043966 0.39228138739618945
0.37151993499992386 0.4782608695652173 0.3961895456765998
0.37170658000013646 0.4880312652662433 0.40009770395701016
0.3718934100002116 0.486077186126038 0.4010747435271129
0.3720816479999485 0.4909623839765511 0.4059599413776258
0.3722693109998545 0.49193942354665365 0.4059599413776258
0.3724571040002047 0.4909623839765511 0.4059599413776258
0.37264437900012126 0.48705422569614076 0.4059599413776258
0.3728317650002282 0.4909623839765511 0.4079140205178309
0.37301950300025055 0.48216902784562765 0.403028822667318
0.37320731399995566 0.48412310698583294 0.4059599413776258
0.3733936070002528 0.4880312652662433 0.40889106008793363
0.3735807900002328 0.47923790913532005 0.412799218368344
0.37376804599989555 0.4763067904250122 0.41475329750854906
0.3739553199998227 0.46946751343429405 0.4186614557889594
0.37414246500020454 0.46946751343429405 0.42256961406936977
0.37432948100013164 0.46946751343429405 0.42940889106008795
0.37451633000000584 0.4733756717147044 0.42940889106008795
0.37470332600014444 0.4704445530043966 0.4323400097703958
0.3748903229998177 0.46946751343429405 0.42940889106008795
0.37507833900008336 0.46946751343429405 0.431362970200293
0.37526568800012683 0.467513434294089 0.4303859306301905
0.37545327699990594 0.45676599902296044 0.4303859306301905
0.37564010699998107 0.4557889594528579 0.4303859306301905
0.37582695599985527 0.4557889594528579 0.42940889106008795
0.3760142490000362 0.4557889594528579 0.431362970200293
0.37620230199991056 0.4528578407425501 0.431362970200293
0.3763889649999328 0.4538348803126526 0.4352711284807034
0.3765758320000714 0.45676599902296044 0.441133365901319
0.37676247799981866 0.4538348803126526 0.4460185637518319
0.3769500670000525 0.44894968246213973 0.44992672203224227
0.37713732300017 0.44894968246213973 0.4509037616023448
0.37732476500013945 0.44894968246213973 0.45481191988275516
0.37751215000025695 0.44699560332193444 0.457743038593063
0.3777000360000784 0.4430874450415241 0.4557889594528579
0.3778877919999104 0.44211040547142155 0.4587200781631655
0.378074973999901 0.4479726428920372 0.4557889594528579
0.37826202699989153 0.4401563263312165 0.45188080117244755
0.37844982000024174 0.4460185637518319 0.4509037616023448
0.3786369280001054 0.4557889594528579 0.44992672203224227
0.37882510999997976 0.46262823644357587 0.45188080117244755
0.3790125700002136 0.46946751343429405 0.45188080117244755
0.37919926999984455 0.47239863214460187 0.4636052760136786
0.3793880819998776 0.47923790913532005 0.4704445530043966
0.37957552399984706 0.47923790913532005 0.4782608695652173
0.37976222399993276 0.4851001465559355 0.4802149487054226
0.3799493880001137 0.48900830483634583 0.4802149487054226
0.3801364589999139 0.4938935026868587 0.48216902784562765
0.38032493699984116 0.495847581827064 0.4811919882755251
0.380512082000223 0.4929164631167562 0.47728382999511476
0.3806995420000021 0.4909623839765511 0.48216902784562765
0.38088778000019374 0.4929164631167562 0.4831460674157304
0.3810751099999834 0.48998534440644836 0.4851001465559355
0.3812620879998576 0.4851001465559355 0.48998534440644836
0.38144999199994345 0.4831460674157304 0.4978016609672691
0.3816372300002513 0.47435271128480694 0.5017098192476794
0.38182417100006205 0.4704445530043966 0.5085490962383976
0.38201140899991515 0.46458231558378116 0.512457254518808
0.3822000909999588 0.46165119687347334 0.5144113336590133
0.38238905100024567 0.457743038593063 0.522227650219834
0.3825760290001199 0.4528578407425501 0.5202735710796287
0.38276276700025846 0.44992672203224227 0.524181729360039
0.38295039400009045 0.4450415241817294 0.522227650219834
0.3831380020001234 0.44406448461162684 0.5163654127992183
0.3833357580001575 0.44211040547142155 0.5173424523693209
0.38352488400005313 0.43722520762090866 0.5144113336590133
0.38371278800013897 0.43429408891060084 0.5105031753786029
0.3839002300001084 0.4323400097703958 0.5036638983878847
0.3840883749999193 0.4323400097703958 0.5007327796775769
0.3842757050001637 0.4206155349291647 0.5017098192476794
0.38446292400021775 0.412799218368344 0.4978016609672691
0.38465101300016613 0.403028822667318 0.4978016609672691
0.38483876999998756 0.403028822667318 0.495847581827064
0.3850263590002214 0.3932584269662922 0.5007327796775769
0.3852137080002649 0.3913043478260869 0.5036638983878847
0.3854014640000969 0.38641914997557403 0.5065950170981925
0.38558953500023563 0.38739618954567656 0.5065950170981925
0.3857773839999936 0.3952125061064973 0.5017098192476794
0.385964807000164 0.3932584269662922 0.495847581827064
0.38615254400019694 0.39716658524670256 0.4880312652662433
0.3863398739999866 0.40693698094772834 0.4763067904250122
0.38652655600026264 0.41182217879824123 0.4636052760136786
0.3867143130000841 0.4206155349291647 0.45481191988275516
0.386902143000043 0.4255007327796776 0.4382022471910112
0.3870890660000441 0.42745481191988266 0.4264777723497801
0.38727795100021467 0.43722520762090866 0.4176844162188569
0.38746572599984574 0.441133365901319 0.41182217879824123
0.38765283400016415 0.44699560332193444 0.41182217879824123
0.38784053500012305 0.4528578407425501 0.412799218368344
0.38802779100024054 0.4528578407425501 0.41475329750854906
0.3882149539999773 0.4509037616023448 0.42159257449926724
0.3884017479999784 0.4509037616023448 0.41963849535906195
0.38858904100015934 0.4479726428920372 0.42745481191988266
0.38877616699983264 0.4352711284807034 0.42256961406936977
0.3889632380000876 0.42745481191988266 0.41963849535906195
0.38915056899986666 0.4255007327796776 0.4137762579384465
0.3893375840002591 0.4255007327796776 0.40693698094772834
0.3895249510001122 0.4255007327796776 0.40205178309721545
0.38971191100017677 0.4255007327796776 0.39912066438690763
0.3898989449999135 0.4255007327796776 0.40205178309721545
0.39008572000011554 0.4264777723497801 0.4010747435271129
0.39027208700008487 0.4264777723497801 0.4010747435271129
0.3904587319998427 0.431362970200293 0.403028822667318
0.39064613600021403 0.43722520762090866 0.40205178309721545
0.39083413300022585 0.44406448461162684 0.403028822667318
0.39102198199998384 0.44894968246213973 0.4010747435271129
0.3912100160000591 0.4557889594528579 0.40205178309721545
0.39139838300025076 0.4636052760136786 0.40205178309721545
0.39158562100010386 0.47142159257449934 0.40205178309721545
0.3917728400001579 0.47728382999511476 0.3981436248168051
0.39196024400007445 0.48705422569614076 0.3961895456765998
0.3921475739998641 0.49193942354665365 0.40009770395701016
0.39233512700002393 0.49975574010747437 0.4040058622374205
0.3925220679998347 0.5036638983878847 0.41182217879824123
0.39271010199990997 0.5056179775280898 0.4186614557889594
0.39289711799983706 0.5114802149487054 0.4264777723497801
0.39308500300012383 0.5134342940889105 0.43917928676111373
0.3932727410001462 0.5134342940889105 0.44894968246213973
0.3934606080001686 0.5144113336590133 0.45676599902296044
0.39364834600019094 0.5105031753786029 0.46262823644357587
0.3938360649999595 0.5075720566682951 0.4665363947239862
0.394023321000077 0.5056179775280898 0.46262823644357587
0.39421089200004644 0.5085490962383976 0.4587200781631655
0.39439864799987845 0.5056179775280898 0.45188080117244755
0.3945858860001863 0.5017098192476794 0.4450415241817294
0.39477327199983847 0.4938935026868587 0.44211040547142155
0.39496008300011454 0.4938935026868587 0.4303859306301905
0.39514687700011564 0.47923790913532005 0.4235466536394723
0.39534294700024475 0.4704445530043966 0.4157303370786516
0.39552994399991803 0.46262823644357587 0.4157303370786516
0.3957157750000988 0.4606741573033708 0.4137762579384465
0.3959021229998143 0.46165119687347334 0.4137762579384465
0.3960890090002067 0.46458231558378116 0.41963849535906195
0.3962750059999962 0.4655593551538837 0.42256961406936977
0.39646376200016675 0.46946751343429405 0.4255007327796776
0.3966511660000833 0.467513434294089 0.4352711284807034
0.396845366999969 0.4665363947239862 0.44211040547142155
0.3970335120002346 0.46262823644357587 0.44992672203224227
0.39722076799989736 0.4655593551538837 0.4538348803126526
0.39740904300015245 0.46946751343429405 0.45969711773326827
0.3975959099998363 0.47142159257449934 0.4606741573033708
0.39778286999990087 0.46458231558378116 0.4655593551538837
0.3979694039999231 0.46165119687347334 0.4665363947239862
0.39815591900014624 0.45969711773326827 0.46946751343429405
0.3983437309998408 0.457743038593063 0.4733756717147044
0.39853126500020153 0.4538348803126526 0.4704445530043966
0.3987185400001181 0.457743038593063 0.47435271128480694
0.3989054070002567 0.44699560332193444 0.4753297508549097
0.39909256999999343 0.4430874450415241 0.4802149487054226
0.39928197500012175 0.441133365901319 0.4831460674157304
0.3994699350000701 0.43722520762090866 0.48900830483634583
0.3996569310002087 0.4323400097703958 0.48900830483634583
0.3998442800002522 0.4284318514899854 0.49193942354665365
0.40003077700021095 0.4255007327796776 0.49193942354665365
0.4002178850000746 0.4206155349291647 0.49193942354665365
0.40040508599986424 0.4186614557889594 0.4938935026868587
0.40059178599994993 0.4186614557889594 0.4978016609672691
0.40077887600000395 0.4176844162188569 0.49877870053737183
0.4009655019999627 0.4206155349291647 0.49877870053737183
0.4011527769998793 0.4186614557889594 0.49682462139716654
0.40134014400018714 0.42452369320957506 0.4978016609672691
0.4015274749999662 0.42256961406936977 0.5007327796775769
0.4017147119998299 0.41963849535906195 0.495847581827064
0.401901541999905 0.4157303370786516 0.49877870053737183
0.402088724999885 0.41670737664875435 0.49682462139716654
0.4022761100000025 0.4137762579384465 0.495847581827064
0.402463902999898 0.4108451392281387 0.48900830483634583
0.4026510670000789 0.412799218368344 0.4948705422569615
0.4028389159998369 0.4108451392281387 0.48998534440644836
0.4030258759999015 0.4049829018075233 0.48998534440644836
0.4032136320001882 0.4040058622374205 0.48900830483634583
0.40340253600015785 0.40889106008793363 0.4851001465559355
0.40358962600021187 0.4108451392281387 0.486077186126038
0.40377691899993806 0.41475329750854906 0.48705422569614076
0.4039726559999508 0.4206155349291647 0.48900830483634583
0.4043444459998682 0.4303859306301905 0.4909623839765511
0.4045744059999379 0.4401563263312165 0.4909623839765511
0.4047818469998674 0.44406448461162684 0.4938935026868587
0.4049873250000928 0.44992672203224227 0.49682462139716654
0.40521639500002493 0.45676599902296044 0.49193942354665365
0.40548102000002473 0.4557889594528579 0.4938935026868587
0.40571449800017945 0.4636052760136786 0.4880312652662433
0.4059316789998775 0.4538348803126526 0.4851001465559355
0.4061253059999217 0.45188080117244755 0.4811919882755251
0.40631504300017696 0.44992672203224227 0.4753297508549097
0.4065045030001784 0.44894968246213973 0.46946751343429405
0.4066928150000422 0.4450415241817294 0.4587200781631655
0.40688092300024437 0.44699560332193444 0.45188080117244755
0.40707379000014043 0.44699560332193444 0.44406448461162684
0.40730945299992527 0.44211040547142155 0.441133365901319
0.4075346529998569 0.4460185637518319 0.4382022471910112
0.4077314830001342 0.44699560332193444 0.4382022471910112
0.4079214610001145 0.457743038593063 0.4352711284807034
0.40811049500007357 0.44699560332193444 0.4323400097703958
0.40830049199985297 0.44699560332193444 0.4284318514899854
0.4084891930001504 0.44699560332193444 0.4255007327796776
0.40867770800014114 0.4509037616023448 0.42940889106008795
0.40886540900010004 0.44406448461162684 0.4303859306301905
0.4090534420001859 0.44406448461162684 0.42745481191988266
0.40924149500006024 0.4479726428920372 0.42745481191988266
0.40942954699994516 0.45188080117244755 0.4255007327796776
0.4096178400000099 0.4538348803126526 0.4235466536394723
0.4098075780002546 0.4557889594528579 0.42159257449926724
0.4099952790002135 0.45969711773326827 0.4206155349291647
0.41018305299985514 0.46458231558378116 0.4186614557889594
0.4103707909998775 0.47142159257449934 0.41475329750854906
0.41055830599998444 0.4733756717147044 0.41475329750854906
0.4107457660002183 0.4782608695652173 0.4157303370786516
0.4109334109998599 0.4802149487054226 0.4284318514899854
0.4111212040002101 0.48412310698583294 0.41670737664875435
0.4113129420002224 0.486077186126038 0.4176844162188569
0.41150166099987473 0.48998534440644836 0.4157303370786516
0.41168897299985474 0.49193942354665365 0.412799218368344
0.4118778030001522 0.4978016609672691 0.412799218368344
0.41206278100025884 0.49975574010747437 0.4108451392281387
0.41224746399984724 0.5036638983878847 0.4176844162188569
0.4124331269999857 0.5114802149487054 0.40986809965803617
0.4126180690000183 0.5163654127992183 0.4079140205178309
0.4128028059999451 0.522227650219834 0.4079140205178309
0.41298787699997774 0.5319980459208598 0.4059599413776258
0.41317267000022184 0.5378602833414754 0.40986809965803617
0.41335811199996897 0.5427454811919883 0.4049829018075233
0.4135428869999487 0.5495847581827065 0.4040058622374205
0.4137283280001611 0.5476306790425012 0.40205178309721545
0.4139134360002572 0.5476306790425012 0.40009770395701016
0.414098580999962 0.5417684416218858 0.3981436248168051
0.414283634000185 0.5388373229115779 0.3981436248168051
0.41446879700015415 0.5261358085002443 0.39912066438690763
0.4146534790002079 0.5144113336590133 0.40205178309721545
0.41483843900005013 0.5046409379579873 0.39912066438690763
0.4150233440000193 0.4948705422569615 0.39912066438690763
