0 0.41475329750854906 0.48998534440644836
0.0005342149997886736 0.42940889106008795 0.4948705422569615
0.0018497519999982615 0.4382022471910112 0.5466536394723986
0.0021054329999969923 0.43624816805080613 0.5515388373229115
0.002300726999692415 0.4333170493404983 0.5554469956033219
0.0024943720000010217 0.4303859306301905 0.5583781143136297
0.0026870919996326847 0.42745481191988266 0.5603321934538348
0.0028782929998669715 0.4264777723497801 0.5622862725940401
0.0031108270000004268 0.4303859306301905 0.5642403517342451
0.003301823999663611 0.4382022471910112 0.5642403517342451
0.0034950799999933224 0.4401563263312165 0.5652173913043479
0.00368750400002682 0.44699560332193444 0.5681485100146555
0.00387950100002854 0.4528578407425501 0.5710796287249633
0.004069682999670476 0.4665363947239862 0.5691255495847583
0.004261976999714534 0.47435271128480694 0.5701025891548608
0.00445284499983245 0.48216902784562765 0.5710796287249633
0.0046441009999398375 0.48900830483634583 0.5720566682950659
0.0048350989995924465 0.495847581827064 0.5720566682950659
0.005025780999858398 0.4929164631167562 0.5710796287249633
0.0052163529999234015 0.495847581827064 0.5691255495847583
0.005406608999692253 0.4929164631167562 0.5652173913043479
0.005601846999979898 0.48705422569614076 0.5613092330239375
0.0058098629997402895 0.4811919882755251 0.5564240351734244
0.006015249000029144 0.4636052760136786 0.5525158768930141
0.006242393999855267 0.44211040547142155 0.5359062042012701
0.006803477999710594 0.3981436248168051 0.5310210063507572
0.007143547999930888 0.4010747435271129 0.5310210063507572
0.007524078999722406 0.39912066438690763 0.5065950170981925
0.008028571999602718 0.358085002442599 0.4851001465559355
0.008287031999770988 0.3307278944797265 0.4684904738641915
0.008496657999785384 0.3209574987787005 0.45188080117244755
0.00869896999984121 0.3287738153395212 0.4401563263312165
0.008902560000024096 0.35906204201270153 0.4303859306301905
0.009108204999847658 0.38935026868588185 0.42452369320957506
0.009313683999607747 0.4264777723497801 0.4186614557889594
0.009512939999694936 0.4606741573033708 0.4137762579384465
0.009708696999950917 0.4880312652662433 0.4108451392281387
0.009903582999868377 0.5114802149487054 0.40986809965803617
0.010113894999904005 0.5212506106497312 0.412799218368344
0.010350854999614967 0.5251587689301416 0.4137762579384465
0.010945142999844393 0.5280898876404494 0.39716658524670256
0.011259822999818425 0.5280898876404494 0.38935026868588185
0.01146781999977975 0.5202735710796287 0.3737176355642404
0.011805778999587346 0.5105031753786029 0.36687835857352225
0.012055737999617122 0.495847581827064 0.36199316072300936
0.01225949399986348 0.4929164631167562 0.36003908158280407
0.012458602999686264 0.48705422569614076 0.3561309233023937
0.012657599999783997 0.4763067904250122 0.35417684416218864
0.012859948999903281 0.457743038593063 0.3561309233023937
0.013061390999610012 0.43624816805080613 0.3639472398632144
0.013263442999686959 0.41963849535906195 0.3610161211529066
0.013461532999826886 0.42452369320957506 0.3639472398632144
0.013661696999861306 0.42256961406936977 0.36687835857352225
0.01386113899980046 0.43917928676111373 0.3688324377137273
0.014057728999887331 0.45676599902296044 0.3678553981436248
0.014268650999838428 0.4763067904250122 0.36980947728383007
0.014466277999872545 0.49682462139716654 0.36492427943331696
0.014664886999980808 0.5173424523693209 0.3610161211529066
0.014864031999877625 0.5280898876404494 0.35906204201270153
0.015110139999706007 0.5144113336590133 0.3610161211529066
0.015307303999634314 0.5007327796775769 0.35222276502198335
0.015508318999764015 0.48998534440644836 0.35417684416218864
0.015708797999650415 0.4753297508549097 0.35417684416218864
0.015906850999726885 0.46165119687347334 0.3551538837322912
0.016109588999825064 0.44699560332193444 0.35710796287249624
0.01631304900001851 0.43722520762090866 0.36003908158280407
0.016675506999945355 0.4010747435271129 0.3659013190034197
0.016982446999918466 0.39716658524670256 0.3688324377137273
0.01723453599970526 0.4010747435271129 0.37469467513434296
0.01744527399978324 0.403028822667318 0.376648754274548
0.017648325999743975 0.40693698094772834 0.38251099169516367
0.017856174999906216 0.4186614557889594 0.3932584269662922
0.01806094999983543 0.4255007327796776 0.40205178309721545
0.018267261999881157 0.43429408891060084 0.41475329750854906
0.01846992599985242 0.4450415241817294 0.431362970200293
0.01867303399967568 0.4538348803126526 0.44406448461162684
0.018879531000038696 0.46262823644357587 0.45969711773326827
0.01912173199980316 0.47142159257449934 0.46458231558378116
0.01932130299974233 0.4733756717147044 0.4733756717147044
0.019520169999850623 0.47923790913532005 0.4811919882755251
0.019716093999704754 0.47923790913532005 0.4763067904250122
0.019931571999677544 0.4782608695652173 0.4782608695652173
0.02015929099979985 0.47142159257449934 0.4782608695652173
0.020361917999707657 0.4665363947239862 0.4733756717147044
0.020560637000016868 0.4557889594528579 0.4782608695652173
0.020760096999765665 0.4460185637518319 0.4763067904250122
0.020957149999958347 0.4401563263312165 0.48216902784562765
0.021158406999802537 0.43429408891060084 0.48998534440644836
0.02135905199975241 0.4303859306301905 0.5007327796775769
0.02155551199984984 0.431362970200293 0.5114802149487054
0.021750731999873096 0.43624816805080613 0.5183194919394236
0.02194880299975921 0.4323400097703958 0.5251587689301416
0.022146651999719325 0.43429408891060084 0.5359062042012701
0.022379686000022048 0.43917928676111373 0.540791402051783
0.022608552999827225 0.44211040547142155 0.5476306790425012
0.0228035129998716 0.44211040547142155 0.5554469956033219
0.023003843999958917 0.44406448461162684 0.5574010747435272
0.023195710999971197 0.4450415241817294 0.5544699560332194
0.023386542000025656 0.44211040547142155 0.5515388373229115
0.023576649999995425 0.43917928676111373 0.5525158768930141
0.023767313999996986 0.431362970200293 0.5564240351734244
0.023958755999956338 0.4206155349291647 0.5564240351734244
0.024150160999852233 0.4176844162188569 0.5613092330239375
0.024340602999927796 0.42256961406936977 0.5632633121641426
0.024531025999749545 0.43722520762090866 0.567171470444553
0.024727744999836432 0.4509037616023448 0.5710796287249633
0.024927408999701584 0.4704445530043966 0.5720566682950659
0.02512907299978906 0.4938935026868587 0.5730337078651686
0.025327106999611715 0.5134342940889105 0.5710796287249633
0.02553841899998588 0.5153883732291158 0.5691255495847583
0.02574115699962931 0.5114802149487054 0.567171470444553
0.025948320999759744 0.5026868588177822 0.5564240351734244
0.026173188000029768 0.4948705422569615 0.540791402051783
0.02679486499982886 0.46165119687347334 0.4909623839765511
0.02816278999989663 0.3932584269662922 0.48412310698583294
0.028603338999801053 0.4255007327796776 0.47142159257449934
0.028957092999917222 0.45188080117244755 0.46946751343429405
0.02923990399995091 0.46165119687347334 0.45969711773326827
0.029774266999993415 0.4733756717147044 0.4479726428920372
0.030120650999833742 0.4606741573033708 0.4382022471910112
0.030386980999992375 0.45481191988275516 0.39716658524670256
0.031401095999626705 0.4528578407425501 0.3756717147044455
0.03188921899982233 0.4323400097703958 0.3629702002931119
0.03219143699971028 0.441133365901319 0.35906204201270153
0.0324259889998757 0.4460185637518319 0.3561309233023937
0.0326677269999891 0.4479726428920372 0.3502686858817783
0.032970444999591564 0.45676599902296044 0.3453834880312652
0.033221718999811856 0.457743038593063 0.34636052760136793
0.033568546999958926 0.46262823644357587 0.32975085490962375
0.03433890699989206 0.4909623839765511 0.31998045920859797
0.03464960599967526 0.486077186126038 0.3150952613580851
0.03485939999973198 0.4763067904250122 0.31021006350757196
0.03511526599959325 0.46458231558378116 0.31998045920859797
0.0357288499999413 0.44211040547142155 0.32975085490962375
0.036219509999682487 0.4323400097703958 0.3502686858817783
0.036490153999693575 0.4479726428920372 0.3707865168539326
0.03709696099986104 0.4655593551538837 0.4352711284807034
0.038958285999797226 0.43624816805080613 0.48216902784562765
0.040680706999864924 0.5026868588177822 0.5007327796775769
0.04105447899974024 0.48216902784562765 0.5163654127992183
0.04129806799983271 0.4704445530043966 0.5359062042012701
0.04150626899991039 0.4606741573033708 0.5398143624816805
0.041713895999691886 0.457743038593063 0.5486077186126037
0.04191639299961025 0.4538348803126526 0.5515388373229115
0.042107408999982 0.44992672203224227 0.5525158768930141
0.042295609999655426 0.4450415241817294 0.5593551538837322
0.04248477399960393 0.4382022471910112 0.5593551538837322
0.0426731969996581 0.43429408891060084 0.5701025891548608
0.04286095399993428 0.4284318514899854 0.5583781143136297
0.043100913999751356 0.42745481191988266 0.5564240351734244
0.04329631799964773 0.4264777723497801 0.5534929164631168
0.043485185999998066 0.42256961406936977 0.5613092330239375
0.04367320199980895 0.4186614557889594 0.5525158768930141
0.04387488399970607 0.4108451392281387 0.5574010747435272
0.044072362999941106 0.403028822667318 0.5544699560332194
0.0442722119996688 0.3981436248168051 0.5593551538837322
0.04447639399995751 0.40009770395701016 0.5622862725940401
0.04469814999993105 0.40889106008793363 0.5691255495847583
0.04489664799984894 0.4157303370786516 0.5749877870053737
0.045095570999819756 0.4255007327796776 0.5642403517342451
0.04529425299961076 0.4323400097703958 0.567171470444553
0.04549880599961398 0.42745481191988266 0.5681485100146555
0.045697117999679904 0.42159257449926724 0.5691255495847583
0.04590150399963022 0.4137762579384465 0.5642403517342451
0.04611674199986737 0.4040058622374205 0.5574010747435272
0.046330293999744754 0.3981436248168051 0.5525158768930141
0.04657347599959394 0.39423546653639474 0.5427454811919883
0.046772120999776234 0.4040058622374205 0.5476306790425012
0.04696352599967213 0.4255007327796776 0.5427454811919883
0.04719063399988954 0.4333170493404983 0.5437225207620908
0.047379686999647674 0.44894968246213973 0.5427454811919883
0.04756670300002952 0.4655593551538837 0.5427454811919883
0.04775534800000969 0.47728382999511476 0.533952125061065
0.04794960499975787 0.4831460674157304 0.5232046897899365
0.04813736099958987 0.486077186126038 0.5105031753786029
0.048324544000024616 0.486077186126038 0.4978016609672691
0.048511429999962274 0.4880312652662433 0.486077186126038
0.04869842799962498 0.49682462139716654 0.47142159257449934
0.04888664700001755 0.49877870053737183 0.45676599902296044
0.04907412599959571 0.5046409379579873 0.4450415241817294
0.04926251200004117 0.5153883732291158 0.43624816805080613
0.049450379999598226 0.5290669272105519 0.4255007327796776
0.04963761799990607 0.5427454811919883 0.4255007327796776
0.0498243559995899 0.5427454811919883 0.4186614557889594
0.050011056999665016 0.5417684416218858 0.41475329750854906
0.050197720999676676 0.5319980459208598 0.412799218368344
0.050388182000006054 0.5202735710796287 0.40986809965803617
0.05059167899980821 0.5046409379579873 0.3903273082559844
0.051214651000009326 0.44992672203224227 0.3707865168539326
0.05144681499996295 0.4352711284807034 0.36003908158280407
0.051638720000028115 0.42159257449926724 0.3561309233023937
0.05182956899989222 0.4186614557889594 0.348314606741573
0.05203469599973687 0.4186614557889594 0.3434294088910601
0.05227789599985044 0.4157303370786516 0.3385442110405472
0.05251833700003772 0.4010747435271129 0.33756717147044446
0.052722426999935124 0.3932584269662922 0.34636052760136793
0.052912182999989454 0.38446507083536874 0.34733756717147046
0.053100402999916696 0.37957987298485585 0.3512457254518808
0.053289695999865216 0.38251099169516367 0.36003908158280407
0.05347721199996158 0.3903273082559844 0.36199316072300936
0.05366387599997324 0.4010747435271129 0.36492427943331696
0.05386081799997555 0.412799218368344 0.3688324377137273
0.054049870999733685 0.4235466536394723 0.36492427943331696
0.05423740499963969 0.43917928676111373 0.3659013190034197
0.05442625499972564 0.45676599902296044 0.36492427943331696
0.05461488199989617 0.47435271128480694 0.3610161211529066
0.054804100999717775 0.5026868588177822 0.35906204201270153
0.05504196799984129 0.5114802149487054 0.35710796287249624
0.055237242999737646 0.5310210063507572 0.36003908158280407
0.05542622199982361 0.5359062042012701 0.3639472398632144
0.05561334899994108 0.5417684416218858 0.36687835857352225
0.05580054999973072 0.5398143624816805 0.36003908158280407
0.05598823299987998 0.533952125061065 0.35906204201270153
0.05617602599977545 0.5114802149487054 0.3561309233023937
0.05636283800004094 0.48412310698583294 0.3551538837322912
0.056556779999937135 0.4557889594528579 0.35222276502198335
0.05675785099992936 0.4235466536394723 0.3502686858817783
0.0569519779996881 0.40693698094772834 0.34636052760136793
0.05714560499973231 0.3981436248168051 0.34440644846116264
0.057334602999617346 0.39228138739618945 0.35417684416218864
0.0575233780000417 0.3932584269662922 0.3551538837322912
0.0577093199999581 0.3981436248168051 0.3659013190034197
0.057903649999843765 0.4137762579384465 0.38251099169516367
0.05810173999998369 0.43429408891060084 0.3903273082559844
0.05830344099967988 0.45188080117244755 0.4040058622374205
0.05870408299961127 0.4733756717147044 0.43624816805080613
0.05899268999974083 0.4831460674157304 0.44699560332193444
0.05920792799997798 0.4811919882755251 0.44992672203224227
0.05942010999979175 0.4811919882755251 0.45676599902296044
0.05965869999999995 0.46946751343429405 0.46262823644357587
0.05986895599971831 0.4655593551538837 0.46458231558378116
0.06007147199989049 0.4636052760136786 0.4733756717147044
0.06027541299999939 0.4636052760136786 0.47239863214460187
0.060471465999853535 0.45481191988275516 0.4782608695652173
0.060664462999739044 0.4460185637518319 0.48412310698583294
0.06085373799987792 0.43917928676111373 0.4948705422569615
0.06104077299960409 0.43429408891060084 0.5095261358085001
0.06122810399983791 0.4303859306301905 0.5232046897899365
0.06141645299976517 0.41963849535906195 0.5349291646311676
0.061607042999639816 0.41670737664875435 0.5437225207620908
0.06180889199958983 0.41182217879824123 0.5525158768930141
0.06204299999990326 0.4079140205178309 0.5583781143136297
0.06223692300000039 0.4079140205178309 0.5593551538837322
0.062425641999652726 0.40986809965803617 0.5603321934538348
0.06261406599969632 0.41670737664875435 0.5603321934538348
0.06280076699977144 0.4206155349291647 0.5583781143136297
0.06301104099975419 0.4284318514899854 0.5564240351734244
0.06320181699993555 0.4333170493404983 0.5534929164631168
0.06339205499989475 0.43917928676111373 0.550561797752809
0.06357949599987478 0.44406448461162684 0.5515388373229115
0.0637670490000346 0.4538348803126526 0.5593551538837322
0.06395489899978202 0.4587200781631655 0.5622862725940401
0.06414241499987838 0.467513434294089 0.5652173913043479
0.06432941200000641 0.4733756717147044 0.5681485100146555
0.06451651999987007 0.4733756717147044 0.5701025891548608
0.06470370299985007 0.47142159257449934 0.5779189057156815
0.064890867000031 0.46458231558378116 0.5808500244259893
0.06507862399985243 0.45676599902296044 0.578895945285784
0.06526634299962097 0.45188080117244755 0.5749877870053737
0.06545426599996063 0.44406448461162684 0.5720566682950659
0.06564183799991952 0.4382022471910112 0.5681485100146555
0.06583329799968851 0.4333170493404983 0.5632633121641426
0.0660224250000283 0.4323400097703958 0.5593551538837322
0.06621049699970172 0.431362970200293 0.5554469956033219
0.06642895599998155 0.4333170493404983 0.540791402051783
0.0666974709997703 0.441133365901319 0.5388373229115779
0.06709040999976423 0.44992672203224227 0.5310210063507572
0.06735235099995407 0.43917928676111373 0.5271128480703469
0.06757221799989566 0.43722520762090866 0.5202735710796287
0.06778804899977331 0.42940889106008795 0.5173424523693209
0.067996156999925 0.42452369320957506 0.5046409379579873
0.06823152399965693 0.41963849535906195 0.4929164631167562
0.06845503899967298 0.4235466536394723 0.4782608695652173
0.06865618399979212 0.43722520762090866 0.4636052760136786
0.06892780999987735 0.4587200781631655 0.4323400097703958
0.0695695419999538 0.4782608695652173 0.4206155349291647
0.06979464999994889 0.47923790913532005 0.4206155349291647
0.07056593499964947 0.47923790913532005 0.41182217879824123
0.07083207999994556 0.4763067904250122 0.4040058622374205
0.0711191309997048 0.45969711773326827 0.3913043478260869
0.07132607299990923 0.44699560332193444 0.38153395212506114
0.07151829199983695 0.4323400097703958 0.37176355642403514
0.071710807999807 0.42159257449926724 0.36492427943331696
0.07190339799990397 0.40693698094772834 0.3610161211529066
0.07209578399988459 0.3961895456765998 0.35222276502198335
0.07228637399975923 0.38739618954567656 0.34929164631167553
0.07247711199988771 0.3883732291157791 0.3512457254518808
0.07266764699988926 0.3834880312652662 0.3453834880312652
0.072858291999637 0.3854421104054715 0.35222276502198335
0.07304790099988168 0.3883732291157791 0.34929164631167553
0.07324102799975662 0.3961895456765998 0.34929164631167553
0.07342996899978971 0.41182217879824123 0.3512457254518808
0.07362091100003454 0.4323400097703958 0.35222276502198335
0.07381155699977171 0.4557889594528579 0.34929164631167553
0.07400110899970969 0.47728382999511476 0.348314606741573
0.07419062500002838 0.4929164631167562 0.3531998045920859
0.07438043799993466 0.5056179775280898 0.34440644846116264
0.07457034199978807 0.5036638983878847 0.34440644846116264
0.07476009899983183 0.5075720566682951 0.3434294088910601
0.07495183699984409 0.5007327796775769 0.3404982901807523
0.0751599819996045 0.4938935026868587 0.33952125061064975
0.0753563309999663 0.48705422569614076 0.34440644846116264
0.07554675399978805 0.4811919882755251 0.34636052760136793
0.07573860399998011 0.47435271128480694 0.348314606741573
0.07592974899989713 0.47435271128480694 0.3512457254518808
0.0761200239999198 0.47923790913532005 0.35417684416218864
0.07631002199968862 0.48216902784562765 0.358085002442599
0.07649881499992262 0.4909623839765511 0.36492427943331696
0.07669605299997784 0.4978016609672691 0.36687835857352225
0.07689743899982204 0.5085490962383976 0.3678553981436248
0.07708858499972848 0.5134342940889105 0.3688324377137273
0.07727850799983571 0.512457254518808 0.36980947728383007
0.07746909799971036 0.512457254518808 0.3776257938446508
0.07765839099965888 0.5056179775280898 0.3786028334147533
0.07784705599988229 0.49682462139716654 0.38641914997557403
0.07803631199976735 0.4851001465559355 0.3952125061064973
0.07822536499998023 0.4704445530043966 0.40693698094772834
0.07841384399989693 0.457743038593063 0.4206155349291647
0.07860337800002526 0.4528578407425501 0.4333170493404983
0.07879383899989989 0.4509037616023448 0.4479726428920372
0.0790053729997453 0.4479726428920372 0.4606741573033708
0.07919707399969411 0.44992672203224227 0.467513434294089
0.07938692299967443 0.4528578407425501 0.4733756717147044
0.07957662399985566 0.45188080117244755 0.4782608695652173
0.0797659729996667 0.44699560332193444 0.486077186126038
0.0799557850000383 0.4352711284807034 0.486077186126038
0.08014507899997625 0.42452369320957506 0.486077186126038
0.08033448399964982 0.4137762579384465 0.48705422569614076
0.0805237589997887 0.4049829018075233 0.48900830483634583
0.08071423799992772 0.4040058622374205 0.49193942354665365
0.0809042529999715 0.40205178309721545 0.5085490962383976
0.0810937510000258 0.3952125061064973 0.5202735710796287
0.0812837479998052 0.403028822667318 0.5271128480703469
0.08147378199964805 0.40693698094772834 0.5359062042012701
0.0816637059997447 0.4206155349291647 0.5437225207620908
0.08185294399982013 0.4303859306301905 0.5486077186126037
0.08204379299968423 0.441133365901319 0.5554469956033219
0.08223408699996071 0.4528578407425501 0.5593551538837322
0.08242317599979287 0.45481191988275516 0.5632633121641426
0.08261452599981567 0.4587200781631655 0.5642403517342451
0.08280346699984875 0.4557889594528579 0.5661944308744504
0.08299600199961787 0.4538348803126526 0.5613092330239375
0.08318594399997892 0.44992672203224227 0.5593551538837322
0.083377329999621 0.43429408891060084 0.5574010747435272
0.08356749399990804 0.4284318514899854 0.5554469956033219
0.0837579909998567 0.4264777723497801 0.5574010747435272
0.08394932199962568 0.42452369320957506 0.5583781143136297
0.08414028199968016 0.4264777723497801 0.5613092330239375
0.08432972399987193 0.4284318514899854 0.5613092330239375
0.08451929499960897 0.4284318514899854 0.5613092330239375
0.08470953300002293 0.4284318514899854 0.567171470444553
0.08490093799991882 0.42940889106008795 0.5642403517342451
0.08509365800000523 0.4284318514899854 0.5603321934538348
0.0852856179999435 0.43722520762090866 0.5564240351734244
0.08547665199967014 0.43429408891060084 0.5554469956033219
0.08566633500004173 0.4352711284807034 0.5564240351734244
0.08585522099974696 0.43722520762090866 0.5486077186126037
0.08604403299978003 0.43722520762090866 0.5398143624816805
0.0862338639999507 0.44211040547142155 0.5388373229115779
0.0864236389998041 0.4430874450415241 0.5359062042012701
0.08661406199962585 0.44992672203224227 0.5368832437713726
0.08680346699975416 0.45969711773326827 0.5271128480703469
0.08699537199981933 0.4636052760136786 0.5280898876404494
0.08718812799997977 0.4763067904250122 0.524181729360039
0.08737827400000242 0.4831460674157304 0.5232046897899365
0.08756754899968655 0.48412310698583294 0.5144113336590133
0.08775597199974072 0.4938935026868587 0.5085490962383976
0.08794476599996415 0.4938935026868587 0.5007327796775769
0.08813376299985975 0.4831460674157304 0.4929164631167562
0.08832237099977647 0.4733756717147044 0.47923790913532005
0.08851168399996823 0.4684904738641915 0.47435271128480694
0.08870036600001185 0.45676599902296044 0.46262823644357587
0.08888888199999201 0.4509037616023448 0.4606741573033708
0.08907723099991927 0.44992672203224227 0.4450415241817294
0.08926656199992067 0.4528578407425501 0.44406448461162684
0.08945629999971061 0.4587200781631655 0.4382022471910112
0.08964714900002946 0.46458231558378116 0.4352711284807034
0.08983675799981938 0.4587200781631655 0.4333170493404983
0.09002564399997937 0.45676599902296044 0.4333170493404983
0.09021449299962114 0.4557889594528579 0.43429408891060084
0.09040310199998203 0.4460185637518319 0.4303859306301905
0.09059270999978253 0.44211040547142155 0.42940889106008795
0.09078178099980505 0.44406448461162684 0.41963849535906195
0.09099572299965075 0.43429408891060084 0.4059599413776258
0.09118577599974742 0.4323400097703958 0.39423546653639474
0.09137677299986535 0.42452369320957506 0.38251099169516367
0.09158147399966765 0.41963849535906195 0.37274059599413767
0.09179313799995725 0.4186614557889594 0.36492427943331696
0.09201550499983568 0.41963849535906195 0.3561309233023937
0.0922182059998704 0.4255007327796776 0.3512457254518808
0.09240773999999874 0.43917928676111373 0.34440644846116264
0.09259777399984159 0.45188080117244755 0.34733756717147046
0.09278855000002295 0.4684904738641915 0.348314606741573
0.09297993599966503 0.47435271128480694 0.3453834880312652
0.0931687479996981 0.4811919882755251 0.348314606741573
0.09335798599977352 0.4811919882755251 0.3512457254518808
0.09354731699977492 0.4851001465559355 0.35222276502198335
0.09373718400001962 0.4831460674157304 0.3512457254518808
0.09392638500003159 0.47923790913532005 0.3531998045920859
0.09411617899968405 0.4753297508549097 0.35222276502198335
0.09430656499989709 0.4684904738641915 0.348314606741573
0.09449898799994116 0.4636052760136786 0.3414753297508548
0.09468998599959377 0.4636052760136786 0.33268197361993157
0.09487996500001827 0.45188080117244755 0.32486565705911086
0.09509701699971629 0.44699560332193444 0.3209574987787005
0.09528619999991861 0.4479726428920372 0.31900341963849543
0.09547506699982478 0.457743038593063 0.3287738153395212
0.09566404599991074 0.45676599902296044 0.32486565705911086
0.09585361799963721 0.45969711773326827 0.3336590131900341
0.09604259599973375 0.4587200781631655 0.3414753297508548
0.09624431599968375 0.46458231558378116 0.3512457254518808
0.09644516499974998 0.46165119687347334 0.3629702002931119
0.09664316199996392 0.4606741573033708 0.37176355642403514
0.09683726999992359 0.4684904738641915 0.376648754274548
0.0970430449997366 0.467513434294089 0.3786028334147533
0.09724389399980282 0.4684904738641915 0.38935026868588185
0.09761061099970902 0.46458231558378116 0.3952125061064973
0.09786245999976018 0.46165119687347334 0.4010747435271129
0.09807314199997563 0.45969711773326827 0.41182217879824123
0.09826623199978712 0.46458231558378116 0.42159257449926724
0.09845467399964036 0.47142159257449934 0.4303859306301905
0.09864355999980035 0.47728382999511476 0.4401563263312165
0.09883040899967455 0.48998534440644836 0.44699560332193444
0.09902160999990883 0.5017098192476794 0.45676599902296044
0.09921110799996313 0.5105031753786029 0.4636052760136786
0.09939893799992205 0.5163654127992183 0.467513434294089
0.0995994349996181 0.5163654127992183 0.47239863214460187
0.09979054399991583 0.5134342940889105 0.47728382999511476
0.09997837499986417 0.5056179775280898 0.4831460674157304
0.10016526099980183 0.4978016609672691 0.4831460674157304
0.10035540599983506 0.49193942354665365 0.48900830483634583
0.1005547739996473 0.48998534440644836 0.4929164631167562
0.10074382699986018 0.48998534440644836 0.5007327796775769
0.10093249099963941 0.4831460674157304 0.5095261358085001
0.10111950700002126 0.47142159257449934 0.5173424523693209
0.10130709699978979 0.4636052760136786 0.5280898876404494
0.1014946309996958 0.4528578407425501 0.5300439667806547
0.10168273999988742 0.441133365901319 0.5349291646311676
0.1018707739999627 0.43917928676111373 0.5417684416218858
0.1020590859998265 0.4333170493404983 0.5456765999022961
0.10224686099991231 0.4264777723497801 0.5495847581827065
0.10243478499978664 0.4176844162188569 0.5476306790425012
0.1026231339997139 0.4059599413776258 0.550561797752809
0.10281138999971517 0.3932584269662922 0.5486077186126037
0.10300009100001262 0.3834880312652662 0.5495847581827065
0.10318910699970729 0.3639472398632144 0.5476306790425012
0.10337980799977231 0.3531998045920859 0.5446995603321934
0.10356821300001684 0.3502686858817783 0.5456765999022961
0.10375589599971136 0.35710796287249624 0.5486077186126037
0.10394415199971263 0.36492427943331696 0.5495847581827065
0.10413140899981954 0.37957987298485585 0.5554469956033219
0.10431896199997936 0.39228138739618945 0.5574010747435272
0.10450623699989592 0.40693698094772834 0.5681485100146555
0.10469334499975957 0.4137762579384465 0.5710796287249633
0.10488041700000394 0.41963849535906195 0.5701025891548608
0.10506822899969848 0.42256961406936977 0.5730337078651686
0.10525502299969958 0.42745481191988266 0.5710796287249633
0.10544746400000804 0.42940889106008795 0.567171470444553
0.10563616599984016 0.4264777723497801 0.5642403517342451
0.10582342199995765 0.42745481191988266 0.5593551538837322
0.1060106420000011 0.4323400097703958 0.5554469956033219
0.10628576799990697 0.4284318514899854 0.5349291646311676
0.10691888799965454 0.43624816805080613 0.5280898876404494
0.10711997799990058 0.43917928676111373 0.5261358085002443
0.10730867899974328 0.43917928676111373 0.5271128480703469
0.10749649099989256 0.43624816805080613 0.5144113336590133
0.10768354399988311 0.4352711284807034 0.5075720566682951
0.10787131899996893 0.4323400097703958 0.5007327796775769
0.10805983499994909 0.4303859306301905 0.4909623839765511
0.10824712899966471 0.4303859306301905 0.47728382999511476
0.10843594099969778 0.4264777723497801 0.46262823644357587
0.10862234599971998 0.42159257449926724 0.4538348803126526
0.10881063899978471 0.4176844162188569 0.4460185637518319
0.10899939599994468 0.4157303370786516 0.43429408891060084
0.10918743000001996 0.41182217879824123 0.4255007327796776
0.10937416899969321 0.4079140205178309 0.41963849535906195
0.10956186999965212 0.40693698094772834 0.4157303370786516
0.10974816299994927 0.4010747435271129 0.412799218368344
0.1099352349997389 0.4040058622374205 0.4137762579384465
0.11012184299988803 0.40693698094772834 0.4176844162188569
0.1103088779996142 0.41475329750854906 0.40986809965803617
0.11049593099960475 0.4206155349291647 0.41182217879824123
0.11068244699981733 0.4284318514899854 0.40986809965803617
0.110869239999829 0.4528578407425501 0.4010747435271129
0.1110968299999513 0.467513434294089 0.3903273082559844
0.11128371599988895 0.4811919882755251 0.3854421104054715
0.11147128699985842 0.49193942354665365 0.38153395212506114
0.11166339600003994 0.5026868588177822 0.37469467513434296
0.11185067099995649 0.512457254518808 0.3688324377137273
0.11203883500002121 0.5114802149487054 0.3659013190034197
0.11222779499985336 0.5144113336590133 0.3629702002931119
0.11241462599991792 0.5134342940889105 0.3610161211529066
0.11260212299976047 0.5105031753786029 0.36003908158280407
0.11278882399983559 0.5085490962383976 0.36003908158280407
0.11297526599992125 0.5036638983878847 0.3659013190034197
0.11316239300003872 0.4978016609672691 0.3678553981436248
0.11335044599991306 0.4929164631167562 0.3678553981436248
0.11354686899994704 0.49193942354665365 0.36687835857352225
0.1137346069999694 0.49193942354665365 0.36687835857352225
0.1139205489998858 0.48998534440644836 0.3629702002931119
0.1141082499998447 0.48998534440644836 0.36003908158280407
0.11429467399966597 0.4948705422569615 0.35710796287249624
0.11448213399989982 0.48705422569614076 0.3531998045920859
0.1146684649997951 0.4929164631167562 0.3531998045920859
0.11485633199981748 0.4909623839765511 0.34733756717147046
0.11504964499999915 0.49877870053737183 0.34636052760136793
0.11523732699970424 0.48900830483634583 0.348314606741573
0.11542474999987462 0.4851001465559355 0.348314606741573
0.11561167399986516 0.4811919882755251 0.34733756717147046
0.11579931899996154 0.4782608695652173 0.3502686858817783
0.11598572399998375 0.4802149487054226 0.3561309233023937
0.1161728319998474 0.4763067904250122 0.3551538837322912
0.11636786700000812 0.47923790913532005 0.358085002442599
0.11655517899998813 0.47435271128480694 0.3639472398632144
0.11674308399960864 0.4763067904250122 0.36199316072300936
0.1169297659998847 0.4763067904250122 0.36003908158280407
0.11711709699966377 0.47728382999511476 0.3610161211529066
0.11730313099997147 0.4763067904250122 0.36492427943331696
0.11748973999965528 0.47435271128480694 0.37469467513434296
0.11767623699961405 0.47239863214460187 0.38446507083536874
0.11786275299982663 0.47435271128480694 0.3952125061064973
0.11805282499972236 0.4753297508549097 0.4059599413776258
0.1182404520000091 0.47435271128480694 0.42452369320957506
0.1184282079998411 0.4704445530043966 0.43722520762090866
0.11861505699971531 0.46946751343429405 0.441133365901319
0.11880296199979057 0.4665363947239862 0.45188080117244755
0.118999199999962 0.46458231558378116 0.4587200781631655
0.11918895700000576 0.4606741573033708 0.46262823644357587
0.11937717599994357 0.46165119687347334 0.467513434294089
0.11956406299987066 0.45969711773326827 0.4704445530043966
0.1197508749996814 0.4528578407425501 0.4753297508549097
0.11993879800002105 0.4528578407425501 0.47728382999511476
0.12012559200002215 0.4460185637518319 0.4802149487054226
0.12031253399982234 0.44406448461162684 0.48216902784562765
0.12049901199998203 0.43917928676111373 0.4851001465559355
0.1206852139998773 0.43429408891060084 0.4909623839765511
0.12087174799989953 0.42940889106008795 0.5017098192476794
0.1210583189999852 0.4235466536394723 0.5144113336590133
0.12124448399981702 0.42452369320957506 0.5300439667806547
0.12143161099993449 0.42452369320957506 0.5378602833414754
0.12161827499994615 0.4255007327796776 0.5427454811919883
0.12180516099988381 0.4284318514899854 0.5466536394723986
0.12199184299970511 0.4333170493404983 0.5544699560332194
0.12217839599998115 0.4382022471910112 0.5574010747435272
0.12236563399983424 0.44894968246213973 0.567171470444553
0.1225524100000257 0.457743038593063 0.5632633121641426
0.12273998099999517 0.46458231558378116 0.5652173913043479
0.12292727499971079 0.4684904738641915 0.5642403517342451
0.12311584600001879 0.4684904738641915 0.5642403517342451
0.12330293599961806 0.46458231558378116 0.5652173913043479
0.12349028499966153 0.46458231558378116 0.5642403517342451
0.1236770229998001 0.45481191988275516 0.5730337078651686
0.12386374299967429 0.44894968246213973 0.5691255495847583
0.12405064799986576 0.4460185637518319 0.5730337078651686
0.12423684899977161 0.44211040547142155 0.5710796287249633
0.12442362399997364 0.43429408891060084 0.5720566682950659
0.12461082499976328 0.41963849535906195 0.5749877870053737
0.12479778599981728 0.3932584269662922 0.5749877870053737
0.12498459799962802 0.37176355642403514 0.5681485100146555
0.12517222499991476 0.3531998045920859 0.5661944308744504
0.12535890699973606 0.3502686858817783 0.5593551538837322
0.12554614499958916 0.348314606741573 0.5554469956033219
0.12573288299972774 0.35906204201270153 0.5495847581827065
0.12591936199987686 0.376648754274548 0.5388373229115779
0.12610665599959248 0.3981436248168051 0.5310210063507572
0.12629354199998488 0.42159257449926724 0.5261358085002443
0.12648029899992252 0.441133365901319 0.5192965315095261
0.12666692599987073 0.4430874450415241 0.5173424523693209
0.12686140499999965 0.4430874450415241 0.5085490962383976
0.12706808699977046 0.4352711284807034 0.5056179775280898
0.12725865799984604 0.4323400097703958 0.5065950170981925
0.1274478409995936 0.431362970200293 0.5017098192476794
0.12763700499999686 0.4323400097703958 0.4929164631167562
0.127826279999681 0.431362970200293 0.48705422569614076
0.12801644399996803 0.4450415241817294 0.4802149487054226
0.12820564499998 0.457743038593063 0.4753297508549097
0.12839454999993904 0.4704445530043966 0.4665363947239862
0.12858378800001447 0.48216902784562765 0.45481191988275516
0.1288480619996335 0.495847581827064 0.44894968246213973
0.12907485499999893 0.49975574010747437 0.4382022471910112
0.1293007409999518 0.495847581827064 0.43624816805080613
0.12949631199990108 0.4851001465559355 0.431362970200293
0.12968764299967006 0.4665363947239862 0.4303859306301905
0.1298794919998727 0.45188080117244755 0.42745481191988266
0.13007117400002244 0.4382022471910112 0.4264777723497801
0.13026568999976007 0.4303859306301905 0.42452369320957506
0.13045789099987815 0.4235466536394723 0.42452369320957506
0.13064822199976334 0.4186614557889594 0.41963849535906195
0.13083784899981765 0.42256961406936977 0.41182217879824123
0.13103125399993587 0.41670737664875435 0.4049829018075233
0.1312223059999269 0.4206155349291647 0.3952125061064973
0.1314130819996535 0.42452369320957506 0.38739618954567656
0.13160289400002512 0.42159257449926724 0.3805569125549584
0.13179614999990008 0.4186614557889594 0.3756717147044455
0.13198716599981708 0.4176844162188569 0.3707865168539326
0.1321789229996284 0.41670737664875435 0.3678553981436248
0.1323695679998309 0.4186614557889594 0.36003908158280407
0.13255919499988522 0.42256961406936977 0.36003908158280407
0.13274921099991843 0.4284318514899854 0.36003908158280407
0.13293957899986708 0.4303859306301905 0.358085002442599
0.13312974299969937 0.4382022471910112 0.3561309233023937
0.13332418399977541 0.4460185637518319 0.358085002442599
0.13351549599974533 0.4538348803126526 0.3551538837322912
0.13370634599959885 0.4606741573033708 0.35222276502198335
0.133896342999833 0.46946751343429405 0.34440644846116264
0.13408669199998258 0.47728382999511476 0.34440644846116264
0.13427650399989943 0.486077186126038 0.33463605276013686
0.13446705699971062 0.495847581827064 0.32975085490962375
0.13465703599968037 0.5026868588177822 0.3287738153395212
0.13484708899977704 0.5075720566682951 0.32681973619931615
0.1350373639997997 0.5085490962383976 0.32681973619931615
0.13522724999984348 0.5065950170981925 0.3307278944797265
0.13541778499984503 0.5036638983878847 0.3356130923302394
0.13560748600002626 0.49975574010747437 0.33952125061064975
0.13579776099959417 0.4929164631167562 0.3434294088910601
0.13598827699979665 0.48900830483634583 0.34733756717147046
0.13617895899960786 0.4851001465559355 0.35417684416218864
0.13636897499964107 0.4811919882755251 0.36003908158280407
0.13655841699983284 0.46946751343429405 0.36492427943331696
0.1367488399996546 0.46262823644357587 0.36687835857352225
0.13693909699986762 0.4587200781631655 0.3688324377137273
0.1371292789999643 0.4538348803126526 0.3707865168539326
0.13731914699974368 0.45188080117244755 0.3776257938446508
0.13750836600002003 0.4538348803126526 0.38251099169516367
0.13769788199988398 0.46262823644357587 0.3913043478260869
0.13788791699971625 0.467513434294089 0.4010747435271129
0.13807828399967548 0.4753297508549097 0.40986809965803617
0.13826896699993085 0.4802149487054226 0.4255007327796776
0.13845968599980552 0.4880312652662433 0.43722520762090866
0.13864922099992327 0.486077186126038 0.4430874450415241
0.13883923699995648 0.486077186126038 0.45481191988275516
0.13903023399961967 0.48900830483634583 0.4655593551538837
0.1392203239997798 0.4948705422569615 0.46946751343429405
0.139410783999665 0.4909623839765511 0.4811919882755251
0.1396015959999204 0.48998534440644836 0.4763067904250122
0.1397913900000276 0.48216902784562765 0.48216902784562765
0.139981608999733 0.47239863214460187 0.4802149487054226
0.14017182899988256 0.46458231558378116 0.4831460674157304
0.14036180799985232 0.4557889594528579 0.4831460674157304
0.1405513049999172 0.44894968246213973 0.486077186126038
0.1407412469998235 0.4479726428920372 0.4948705422569615
0.1409308739998778 0.43917928676111373 0.5153883732291158
0.14112055599980522 0.431362970200293 0.5192965315095261
0.14131131299973276 0.4255007327796776 0.5290669272105519
0.14150195799993526 0.4157303370786516 0.5368832437713726
0.14169286299966188 0.41963849535906195 0.5446995603321934
0.14188354599991726 0.4176844162188569 0.5495847581827065
0.14207407999992938 0.4255007327796776 0.5564240351734244
0.1422646139999415 0.4333170493404983 0.5632633121641426
0.1424549449998267 0.4509037616023448 0.5603321934538348
0.14264486799993392 0.44894968246213973 0.5613092330239375
0.14283432899992476 0.44211040547142155 0.5544699560332194
0.14302565899970432 0.43722520762090866 0.5534929164631168
0.14321550899967406 0.42940889106008795 0.5515388373229115
0.14340569099977074 0.42256961406936977 0.5495847581827065
0.1435959659997934 0.41670737664875435 0.5525158768930141
0.14378598199982662 0.4137762579384465 0.5525158768930141
0.14397616499991273 0.41670737664875435 0.5534929164631168
0.1441665689999354 0.4108451392281387 0.5554469956033219
0.14435708499968314 0.4137762579384465 0.5574010747435272
0.14454724899997018 0.41475329750854906 0.5632633121641426
0.1447370979999505 0.4176844162188569 0.5603321934538348
0.14492653999968752 0.4255007327796776 0.5622862725940401
0.14511672299977363 0.42940889106008795 0.5652173913043479
0.14530697899999723 0.431362970200293 0.5593551538837322
0.14549649499986117 0.43722520762090866 0.5564240351734244
0.14568582599986257 0.44211040547142155 0.5515388373229115
0.145874971000012 0.44211040547142155 0.5466536394723986
0.14606539399983376 0.4460185637518319 0.5427454811919883
0.1462554659997295 0.44699560332193444 0.5427454811919883
0.14644596299967816 0.44894968246213973 0.5368832437713726
0.1466364230000181 0.4509037616023448 0.5349291646311676
0.1468263649999244 0.44894968246213973 0.5349291646311676
0.1470198629999686 0.4430874450415241 0.5310210063507572
0.14720982299968455 0.4401563263312165 0.5388373229115779
0.14739993099965432 0.4382022471910112 0.524181729360039
0.14758913199966628 0.4333170493404983 0.5173424523693209
0.14777851899998495 0.42940889106008795 0.5105031753786029
0.1479674789998171 0.4303859306301905 0.5017098192476794
0.1481566429997656 0.4284318514899854 0.48900830483634583
0.14834610299976703 0.42745481191988266 0.4763067904250122
0.1485355449999588 0.42940889106008795 0.47142159257449934
0.1487250979998862 0.43429408891060084 0.4528578407425501
0.14891427999964435 0.4352711284807034 0.4450415241817294
0.14910349999991013 0.44211040547142155 0.43917928676111373
0.14929275699978461 0.4509037616023448 0.4333170493404983
0.1494827719998284 0.45481191988275516 0.431362970200293
0.14967156599959708 0.4606741573033708 0.4264777723497801
0.14986111899997923 0.46458231558378116 0.42452369320957506
0.15005028299992773 0.46946751343429405 0.42159257449926724
0.15024050299962255 0.46946751343429405 0.4186614557889594
0.1504301850000047 0.467513434294089 0.4137762579384465
0.1506197379999321 0.46165119687347334 0.412799218368344
0.15080906899993352 0.4587200781631655 0.3981436248168051
0.15100473299980877 0.4587200781631655 0.3834880312652662
0.15119524800002182 0.4587200781631655 0.37274059599413767
0.15138552299958974 0.4587200781631655 0.3659013190034197
0.15157385399970735 0.4538348803126526 0.35906204201270153
0.15176318499970876 0.4538348803126526 0.3561309233023937
0.15195223799992164 0.4528578407425501 0.3531998045920859
0.15214175399978558 0.45969711773326827 0.3512457254518808
0.15233175100001972 0.45969711773326827 0.34929164631167553
0.152522136999778 0.457743038593063 0.3512457254518808
0.15271115299992744 0.46262823644357587 0.3531998045920859
0.15290014999982304 0.467513434294089 0.358085002442599
0.15308875899972918 0.47239863214460187 0.3629702002931119
0.15327795999974114 0.47728382999511476 0.3678553981436248
0.1534672539996791 0.4909623839765511 0.3678553981436248
0.15365625100002944 0.48998534440644836 0.36492427943331696
0.15384608199974537 0.495847581827064 0.3629702002931119
0.15403626399984205 0.495847581827064 0.3610161211529066
0.15422729800002344 0.4978016609672691 0.358085002442599
0.15441823999981352 0.4929164631167562 0.358085002442599
0.15460862600002656 0.486077186126038 0.3453834880312652
0.1547985309998694 0.4802149487054226 0.33952125061064975
0.15498969500004023 0.45676599902296044 0.3404982901807523
0.1551809519996823 0.44211040547142155 0.3385442110405472
0.15537130099983187 0.4323400097703958 0.3404982901807523
0.15556176099971708 0.42452369320957506 0.3424523693209576
0.15575253599990901 0.4206155349291647 0.3424523693209576
0.15594188499972006 0.4255007327796776 0.35222276502198335
0.15613199399967925 0.4352711284807034 0.35710796287249624
0.1563222129998394 0.44894968246213973 0.36687835857352225
0.15651219199980915 0.4636052760136786 0.3688324377137273
0.15670289299987417 0.47239863214460187 0.37176355642403514
0.15689259399960065 0.4811919882755251 0.37274059599413767
0.15708248099963384 0.486077186126038 0.37176355642403514
0.15727271899959305 0.48998534440644836 0.37274059599413767
0.1574628829998801 0.49193942354665365 0.3786028334147533
0.1576530469997124 0.48705422569614076 0.3805569125549584
0.15784337699960815 0.4811919882755251 0.3854421104054715
0.15803363399982118 0.4704445530043966 0.3952125061064973
0.15822470499961128 0.4655593551538837 0.4010747435271129
0.1584146659997714 0.45481191988275516 0.4137762579384465
0.15860449599995263 0.44406448461162684 0.4255007327796776
0.1587945309997849 0.441133365901319 0.4401563263312165
0.15899786099998892 0.441133365901319 0.44894968246213973
0.15919011799996952 0.43917928676111373 0.457743038593063
0.15938098499964326 0.4430874450415241 0.46262823644357587
0.15957077899975047 0.45188080117244755 0.47239863214460187
0.15976029499961442 0.45969711773326827 0.4753297508549097
0.15995069999962652 0.47142159257449934 0.4763067904250122
0.16014040099980775 0.47239863214460187 0.4782608695652173
0.16032978699968226 0.47728382999511476 0.4802149487054226
0.16052102499998 0.4802149487054226 0.486077186126038
0.16071066999984396 0.4753297508549097 0.4948705422569615
0.1609004269998877 0.4733756717147044 0.5046409379579873
0.1610899059996882 0.4684904738641915 0.5163654127992183
0.16127947699988 0.46458231558378116 0.5261358085002443
0.16146993799975462 0.4606741573033708 0.5319980459208598
0.16165984199960803 0.457743038593063 0.5319980459208598
0.16185000599989507 0.4557889594528579 0.5359062042012701
0.1620403549995899 0.44992672203224227 0.5398143624816805
0.1622305559999404 0.4460185637518319 0.5398143624816805
0.1624214979997305 0.4430874450415241 0.540791402051783
0.16261218099998587 0.4479726428920372 0.5417684416218858
0.16280301099959615 0.4450415241817294 0.5388373229115779
0.16299304599988318 0.44699560332193444 0.5359062042012701
0.1631826729999375 0.44699560332193444 0.5329750854909623
0.16337292899970635 0.4509037616023448 0.5368832437713726
0.16356264899968664 0.44406448461162684 0.5427454811919883
0.16375364599980458 0.441133365901319 0.5486077186126037
0.16394388399976378 0.43722520762090866 0.5583781143136297
0.16413393699986045 0.4303859306301905 0.5574010747435272
0.16432428600001003 0.42159257449926724 0.5574010747435272
0.16451372799974706 0.41475329750854906 0.5642403517342451
0.1647035959999812 0.412799218368344 0.5740107474352711
0.16489287099966532 0.40889106008793363 0.576941866145579
0.1650821459998042 0.4108451392281387 0.5759648265754762
0.1652723839997634 0.4079140205178309 0.5808500244259893
0.1654628439996486 0.4059599413776258 0.5749877870053737
0.16565495299983013 0.403028822667318 0.5710796287249633
0.16584524599966244 0.4040058622374205 0.567171470444553
0.16603515099996002 0.403028822667318 0.5632633121641426
0.16622574099983467 0.40693698094772834 0.5534929164631168
0.16641625700003715 0.4010747435271129 0.5456765999022961
0.16660655099985888 0.4040058622374205 0.5437225207620908
0.1667966219997652 0.4079140205178309 0.5368832437713726
0.16699589699965145 0.40986809965803617 0.5359062042012701
0.1671863939996001 0.4157303370786516 0.5329750854909623
0.1673762809996333 0.41475329750854906 0.5271128480703469
0.16756618499994147 0.41670737664875435 0.5232046897899365
0.1677558679998583 0.4206155349291647 0.5144113336590133
0.16794558699984918 0.4235466536394723 0.5046409379579873
0.16813525099996696 0.4235466536394723 0.49193942354665365
0.16832487800002127 0.42940889106008795 0.4811919882755251
0.16851374599991686 0.4352711284807034 0.467513434294089
0.1687035769996328 0.441133365901319 0.45969711773326827
0.16889268499971877 0.43722520762090866 0.45188080117244755
0.16908210799965673 0.44211040547142155 0.44406448461162684
0.16927180999982738 0.441133365901319 0.43917928676111373
0.16946054799973354 0.4450415241817294 0.4382022471910112
0.16964967499961858 0.44699560332193444 0.43429408891060084
0.1698393759997998 0.44894968246213973 0.431362970200293
0.17002957699969556 0.45188080117244755 0.431362970200293
0.17021883300003537 0.4557889594528579 0.4264777723497801
0.1704084419998253 0.4587200781631655 0.42159257449926724
0.17059751299984782 0.45969711773326827 0.4137762579384465
0.1707875659999445 0.4606741573033708 0.40205178309721545
0.1709927849997257 0.46262823644357587 0.38641914997557403
0.17118524599982265 0.46165119687347334 0.36980947728383007
0.17137622399968677 0.4636052760136786 0.358085002442599
0.17156583299993144 0.46458231558378116 0.3453834880312652
0.17175577499983774 0.4636052760136786 0.3385442110405472
0.17194573500000843 0.46165119687347334 0.33756717147044446
0.17213593599990418 0.4587200781631655 0.33170493404982904
0.17232496999986324 0.457743038593063 0.33268197361993157
0.17251506000002337 0.4538348803126526 0.33268197361993157
0.17270514999972875 0.45676599902296044 0.3356130923302394
0.17289523999988887 0.4479726428920372 0.3404982901807523
0.17308544099978462 0.44211040547142155 0.34440644846116264
0.17327501299996584 0.441133365901319 0.34733756717147046
0.1734644909997769 0.4382022471910112 0.348314606741573
0.1736545069998101 0.43722520762090866 0.34733756717147046
0.17384448599977986 0.43722520762090866 0.34636052760136793
0.1740347799996016 0.44406448461162684 0.34733756717147046
0.17422522099968774 0.44992672203224227 0.348314606741573
0.17441512599998532 0.45481191988275516 0.3404982901807523
0.1746045309996589 0.467513434294089 0.33463605276013686
0.17479404699997758 0.47435271128480694 0.3336590131900341
0.17499069199993755 0.4811919882755251 0.33463605276013686
0.17518080099989675 0.48216902784562765 0.33463605276013686
0.17537116799985597 0.4802149487054226 0.33756717147044446
0.1755607769996459 0.4831460674157304 0.3385442110405472
0.17575075599961565 0.47728382999511476 0.3404982901807523
0.175940196999818 0.4831460674157304 0.3414753297508548
0.17613002799998867 0.4851001465559355 0.3531998045920859
0.1763194879999901 0.48900830483634583 0.3531998045920859
0.17650894899998093 0.48998534440644836 0.35906204201270153
0.17669907599974977 0.4909623839765511 0.36003908158280407
0.17688972099995226 0.4929164631167562 0.35906204201270153
0.1770866259998911 0.4948705422569615 0.3610161211529066
0.17727590100003 0.495847581827064 0.36492427943331696
0.17746582399968247 0.49877870053737183 0.37274059599413767
0.1776552289998108 0.5007327796775769 0.37957987298485585
0.17784513399965363 0.5007327796775769 0.3883732291157791
0.17803546400000414 0.5036638983878847 0.4010747435271129
0.17822477599975173 0.49682462139716654 0.41475329750854906
0.17841456999985894 0.4948705422569615 0.4255007327796776
0.17860367899993435 0.48900830483634583 0.4382022471910112
0.1787927129998934 0.4851001465559355 0.4479726428920372
0.17899300599992785 0.4753297508549097 0.45969711773326827
0.1791838369999823 0.46946751343429405 0.467513434294089
0.17937324199965587 0.4665363947239862 0.4704445530043966
0.17956266499959384 0.45969711773326827 0.4753297508549097
0.17975162499988073 0.45481191988275516 0.4782608695652173
0.17994238199980828 0.4538348803126526 0.47923790913532005
0.18013141599976734 0.45676599902296044 0.4851001465559355
0.18032065399984276 0.4528578407425501 0.486077186126038
0.1805097809997278 0.4557889594528579 0.49193942354665365
0.1806990379996023 0.4509037616023448 0.5007327796775769
0.18088888700003736 0.44894968246213973 0.5163654127992183
0.1810786249998273 0.4450415241817294 0.5251587689301416
0.1812685859999874 0.44406448461162684 0.533952125061065
0.18145848999984082 0.4430874450415241 0.5427454811919883
0.18164826499969422 0.44406448461162684 0.5466536394723986
0.18183820699960052 0.44406448461162684 0.5495847581827065
0.18202796399964427 0.4430874450415241 0.5525158768930141
0.18221716499965623 0.441133365901319 0.5574010747435272
0.1824067549996471 0.44211040547142155 0.5593551538837322
0.1825972339997861 0.4401563263312165 0.5574010747435272
0.182788860999608 0.441133365901319 0.5583781143136297
0.18298746899972684 0.4352711284807034 0.5544699560332194
0.1831779109998024 0.4352711284807034 0.5534929164631168
0.1833680749996347 0.4352711284807034 0.5515388373229115
0.18355783099968903 0.43624816805080613 0.5564240351734244
0.18374760599999718 0.43429408891060084 0.5583781143136297
0.18393730699972366 0.4303859306301905 0.5593551538837322
0.18412671199985198 0.42940889106008795 0.5603321934538348
0.1843163209996419 0.42940889106008795 0.5642403517342451
0.18450676199972804 0.4284318514899854 0.5661944308744504
0.1846967599999516 0.4284318514899854 0.5691255495847583
0.18488762699962535 0.4284318514899854 0.567171470444553
0.1850771619997431 0.4333170493404983 0.5642403517342451
0.185266214999956 0.4333170493404983 0.5661944308744504
0.18545578599969303 0.43429408891060084 0.5632633121641426
0.1856452279998848 0.4333170493404983 0.5642403517342451
0.18583487299974877 0.43429408891060084 0.5583781143136297
0.18602485199971852 0.42940889106008795 0.5574010747435272
0.1862149049998152 0.42745481191988266 0.5515388373229115
0.18640540199976385 0.431362970200293 0.5476306790425012
0.18659565899997688 0.42745481191988266 0.540791402051783
0.18678574899968226 0.42745481191988266 0.540791402051783
0.18698383899982218 0.4323400097703958 0.5368832437713726
0.1871750579998661 0.43624816805080613 0.5417684416218858
0.18736427799967714 0.44211040547142155 0.5329750854909623
0.18755320099990058 0.44894968246213973 0.5232046897899365
0.187742309999976 0.4528578407425501 0.5134342940889105
0.18793156599986105 0.4538348803126526 0.5026868588177822
0.18812113799958752 0.44894968246213973 0.486077186126038
0.1883096349997686 0.44992672203224227 0.46946751343429405
0.18849868799998148 0.44894968246213973 0.457743038593063
0.1886883150000358 0.441133365901319 0.4479726428920372
0.18887760799998432 0.43429408891060084 0.4352711284807034
0.18906608699990102 0.4284318514899854 0.4264777723497801
0.18925499199986007 0.4176844162188569 0.4255007327796776
0.18944332299997768 0.4040058622374205 0.4157303370786516
0.18963172699977804 0.39912066438690763 0.4176844162188569
0.18982053999980053 0.38641914997557403 0.412799218368344
0.19000990699987597 0.3913043478260869 0.41475329750854906
0.1901996449996659 0.40205178309721545 0.4206155349291647
0.19038840199982587 0.4079140205178309 0.4206155349291647
0.19057784400001765 0.41963849535906195 0.4108451392281387
0.190766340999744 0.4255007327796776 0.403028822667318
0.1909624309996616 0.43429408891060084 0.39423546653639474
0.19116220599971712 0.43624816805080613 0.3834880312652662
0.1913531659997716 0.43722520762090866 0.3737176355642404
0.19154299699994226 0.4382022471910112 0.3688324377137273
0.1917321789997004 0.441133365901319 0.36687835857352225
0.19192115799978637 0.44894968246213973 0.3610161211529066
0.19211069299990413 0.45969711773326827 0.3561309233023937
0.1923001159998421 0.4655593551538837 0.35417684416218864
0.1924895759998435 0.4782608695652173 0.35222276502198335
0.19267920299989783 0.486077186126038 0.3502686858817783
0.19286864499963485 0.49682462139716654 0.3512457254518808
0.19305847599980552 0.5036638983878847 0.3531998045920859
0.19324869499996566 0.5056179775280898 0.35710796287249624
0.19343867399993542 0.5114802149487054 0.35417684416218864
0.19362763399976757 0.512457254518808 0.34929164631167553
0.19381759499992768 0.5134342940889105 0.35222276502198335
0.19400733299971762 0.5192965315095261 0.35417684416218864
0.1941972189997614 0.5144113336590133 0.35417684416218864
0.19438797599968893 0.5105031753786029 0.3502686858817783
0.1945776399998067 0.5105031753786029 0.34440644846116264
0.1947668039997552 0.5017098192476794 0.3434294088910601
0.1949561339997672 0.49682462139716654 0.3424523693209576
0.19515464999994947 0.48705422569614076 0.34440644846116264
0.19534414700001435 0.4811919882755251 0.348314606741573
0.19553445899964572 0.47435271128480694 0.3512457254518808
0.19572356799972113 0.4655593551538837 0.35417684416218864
0.1959125469998071 0.46165119687347334 0.35906204201270153
0.19610189599961814 0.4606741573033708 0.36199316072300936
0.19629115299994737 0.4587200781631655 0.3688324377137273
0.19648048299995935 0.46165119687347334 0.3786028334147533
0.19666972100003477 0.457743038593063 0.3805569125549584
0.19685897799990926 0.45969711773326827 0.38739618954567656
0.19704801199986832 0.45481191988275516 0.38935026868588185
0.1972374359997957 0.45969711773326827 0.39423546653639474
0.19742695099967023 0.4557889594528579 0.4010747435271129
0.19761646699998892 0.45481191988275516 0.4079140205178309
0.19780583499959903 0.45676599902296044 0.41475329750854906
0.19799738799974875 0.457743038593063 0.4235466536394723
0.19818701499980307 0.4587200781631655 0.4333170493404983
0.19837638299986793 0.45969711773326827 0.44211040547142155
0.19856576899974243 0.457743038593063 0.4509037616023448
0.19875456199997643 0.45969711773326827 0.457743038593063
0.1989434489996711 0.4509037616023448 0.4655593551538837
0.19913376099975721 0.44992672203224227 0.4704445530043966
0.19932338799981153 0.4450415241817294 0.4802149487054226
0.19951238499970714 0.4460185637518319 0.4831460674157304
0.19970156799990946 0.4460185637518319 0.48705422569614076
0.19989043499981562 0.44699560332193444 0.486077186126038
0.20007959899976413 0.44894968246213973 0.4929164631167562
0.20026892999976553 0.4538348803126526 0.4909623839765511
0.2004575199998726 0.45481191988275516 0.49193942354665365
0.20064679500001148 0.4557889594528579 0.49975574010747437
0.20083675499972742 0.4528578407425501 0.5105031753786029
0.20102723399986644 0.4538348803126526 0.5163654127992183
0.20121669499985728 0.4538348803126526 0.5251587689301416
0.20140602499986926 0.45676599902296044 0.5300439667806547
0.20159526299994468 0.4557889594528579 0.5319980459208598
0.20178461199975573 0.45481191988275516 0.533952125061065
0.2019749989999582 0.4538348803126526 0.5349291646311676
0.20216440299964233 0.4528578407425501 0.5349291646311676
0.20235447499999282 0.4509037616023448 0.5378602833414754
0.20254462000002604 0.44894968246213973 0.5329750854909623
0.20273389499971017 0.43722520762090866 0.5300439667806547
0.2029233739999654 0.4284318514899854 0.5261358085002443
0.2031139269997766 0.42159257449926724 0.5202735710796287
0.2033033129996511 0.41182217879824123 0.5202735710796287
0.2034931999996843 0.4079140205178309 0.5212506106497312
0.2036826599996857 0.40986809965803617 0.5251587689301416
0.20387273099959202 0.412799218368344 0.5280898876404494
0.2040629509997416 0.4157303370786516 0.5319980459208598
0.20425259599960555 0.4157303370786516 0.5398143624816805
0.20444227899997713 0.41475329750854906 0.5466536394723986
0.204631868999968 0.41670737664875435 0.550561797752809
0.20482219899986376 0.41670737664875435 0.5583781143136297
0.20501282599980186 0.4206155349291647 0.5622862725940401
0.20520263899970814 0.42452369320957506 0.5622862725940401
0.205392228999699 0.4255007327796776 0.5583781143136297
0.20558146699977442 0.42940889106008795 0.5593551538837322
0.20577088999971238 0.43722520762090866 0.5544699560332194
0.20596099799968215 0.431362970200293 0.5554469956033219
0.20615018099988447 0.4264777723497801 0.5456765999022961
0.20633945600002335 0.42159257449926724 0.5368832437713726
0.20652889799976037 0.4206155349291647 0.5349291646311676
0.20671811700003673 0.4176844162188569 0.533952125061065
0.2069070589996045 0.4186614557889594 0.5310210063507572
0.20709801899965896 0.4206155349291647 0.5280898876404494
0.20728690599980837 0.4235466536394723 0.522227650219834
0.20747560699965106 0.42452369320957506 0.5153883732291158
0.20766412299963122 0.4323400097703958 0.5065950170981925
0.2078528419997383 0.43722520762090866 0.5017098192476794
0.20804204299975027 0.44211040547142155 0.48998534440644836
0.20823031800000535 0.4450415241817294 0.4763067904250122
0.2084183709998797 0.4557889594528579 0.4655593551538837
0.20860634999962713 0.45676599902296044 0.4557889594528579
0.20879475499987166 0.457743038593063 0.4460185637518319
0.2089837149997038 0.45969711773326827 0.43624816805080613
0.20917310100003306 0.4528578407425501 0.431362970200293
0.2093618389999392 0.4538348803126526 0.4264777723497801
0.2095504109997819 0.44894968246213973 0.4235466536394723
0.20973929699994187 0.44699560332193444 0.42256961406936977
0.20992801700003838 0.44406448461162684 0.4186614557889594
0.21011677299975418 0.44406448461162684 0.4176844162188569
0.21030582599996706 0.4401563263312165 0.4186614557889594
0.2104948239998521 0.441133365901319 0.41670737664875435
0.2106836539996948 0.4382022471910112 0.4049829018075233
0.2108776149998448 0.43917928676111373 0.39716658524670256
0.2110796119995939 0.44406448461162684 0.3854421104054715
0.21126933100003953 0.44406448461162684 0.376648754274548
0.21145888399996693 0.44699560332193444 0.3688324377137273
0.21164873299994724 0.44992672203224227 0.3659013190034197
0.21183865699958915 0.45188080117244755 0.36199316072300936
0.21202767199974915 0.45481191988275516 0.35710796287249624
0.2122178179997718 0.45676599902296044 0.3531998045920859
0.21240711199970974 0.45969711773326827 0.35222276502198335
0.21259758999985934 0.45969711773326827 0.35222276502198335
0.2127871799998502 0.4587200781631655 0.3512457254518808
0.21297662199958722 0.46262823644357587 0.35417684416218864
0.21316602699971554 0.4636052760136786 0.35222276502198335
0.2133553949997804 0.4665363947239862 0.3531998045920859
0.2135447989999193 0.46946751343429405 0.35222276502198335
0.21373407399960342 0.47435271128480694 0.3512457254518808
0.21392342399985864 0.4763067904250122 0.3502686858817783
0.2141133099999024 0.4802149487054226 0.34929164631167553
0.21430304799969235 0.4831460674157304 0.348314606741573
0.21449224899970432 0.4831460674157304 0.33952125061064975
0.21468126499985374 0.48705422569614076 0.3385442110405472
0.21487103999970714 0.486077186126038 0.3414753297508548
0.21507386999974187 0.486077186126038 0.3336590131900341
0.21526392299983854 0.4880312652662433 0.3356130923302394
0.2154532169997765 0.4831460674157304 0.3385442110405472
0.21564271399984136 0.4851001465559355 0.3414753297508548
0.21583148899981097 0.47923790913532005 0.34440644846116264
0.21602083899961144 0.4802149487054226 0.35417684416218864
0.21620972499977142 0.47728382999511476 0.36003908158280407
0.21639912999989974 0.4782608695652173 0.3678553981436248
0.2165883309999117 0.47923790913532005 0.3737176355642404
0.2167772539996804 0.48216902784562765 0.3737176355642404
0.21696632499970292 0.48705422569614076 0.37469467513434296
0.21715563799989468 0.48705422569614076 0.37957987298485585
0.217345172000023 0.4851001465559355 0.3834880312652662
0.21753450300002442 0.4851001465559355 0.3913043478260869
0.217723592999846 0.4802149487054226 0.39423546653639474
0.2179133859999638 0.4733756717147044 0.4040058622374205
0.21810247599978538 0.4684904738641915 0.41475329750854906
0.2182923249997657 0.4606741573033708 0.4255007327796776
0.2184818779996931 0.44992672203224227 0.4382022471910112
0.2186714499998743 0.4430874450415241 0.44894968246213973
0.21886083599974882 0.43722520762090866 0.457743038593063
0.21905881499969837 0.431362970200293 0.467513434294089
0.21924870099974214 0.431362970200293 0.47142159257449934
0.2194383089999974 0.43429408891060084 0.47435271128480694
0.21962751000000935 0.441133365901319 0.47923790913532005
0.21981615599997895 0.44992672203224227 0.48216902784562765
0.22000611599969488 0.45481191988275516 0.48412310698583294
0.22019581699987612 0.45969711773326827 0.4880312652662433
0.22038503699968714 0.4636052760136786 0.48900830483634583
0.22057468200000585 0.4606741573033708 0.4978016609672691
0.22076386499975342 0.45969711773326827 0.5105031753786029
0.22095312099963849 0.4528578407425501 0.5163654127992183
0.22114265599975624 0.45188080117244755 0.5280898876404494
0.2213321719996202 0.4528578407425501 0.5368832437713726
0.2215217240000129 0.4479726428920372 0.5437225207620908
0.22171123999987685 0.44699560332193444 0.5486077186126037
0.22190073799993115 0.4450415241817294 0.5486077186126037
0.22209049399998548 0.4430874450415241 0.5544699560332194
0.22227921399962725 0.4382022471910112 0.5603321934538348
0.22246856299989304 0.43624816805080613 0.5583781143136297
0.2226585969997359 0.4323400097703958 0.5583781143136297
0.22284898399993835 0.43429408891060084 0.5574010747435272
0.22303949899969666 0.4255007327796776 0.5544699560332194
0.2232298119997722 0.42452369320957506 0.5554469956033219
0.22341945699963617 0.42159257449926724 0.5544699560332194
0.2236086949997116 0.42256961406936977 0.5564240351734244
0.223798247999639 0.42256961406936977 0.5603321934538348
0.2239882819999366 0.42745481191988266 0.5622862725940401
0.22417770599986397 0.43429408891060084 0.5622862725940401
0.22436736999998175 0.4382022471910112 0.5622862725940401
0.22455692299990915 0.4430874450415241 0.5681485100146555
0.22474675299963565 0.43722520762090866 0.5661944308744504
0.2249357319997216 0.4382022471910112 0.5632633121641426
0.22512493299973357 0.4352711284807034 0.5661944308744504
0.22531400499974552 0.43429408891060084 0.5613092330239375
0.22550283499958823 0.431362970200293 0.5583781143136297
0.22569194399966364 0.42940889106008795 0.5544699560332194
0.22588195999969685 0.42745481191988266 0.5593551538837322
0.22607125299964537 0.4255007327796776 0.5437225207620908
0.22626171299998532 0.42452369320957506 0.540791402051783
0.2264511919997858 0.41670737664875435 0.5319980459208598
0.22664050399998814 0.41182217879824123 0.5280898876404494
0.2268300759997146 0.4040058622374205 0.5271128480703469
0.2270207209999171 0.39912066438690763 0.5271128480703469
0.2272211999998035 0.39716658524670256 0.5212506106497312
0.22741193799993198 0.3981436248168051 0.5202735710796287
0.22760080599982757 0.4010747435271129 0.5192965315095261
0.22778915499975483 0.4049829018075233 0.5046409379579873
0.22797807799997827 0.41475329750854906 0.495847581827064
0.2281673529996624 0.4186614557889594 0.48900830483634583
0.22835720299963214 0.42940889106008795 0.4733756717147044
0.22854723699992974 0.43722520762090866 0.4606741573033708
0.22873612299963497 0.44406448461162684 0.4509037616023448
0.22892473199999586 0.45481191988275516 0.441133365901319
0.22911411799987036 0.44992672203224227 0.43429408891060084
0.229302577999988 0.4557889594528579 0.42940889106008795
0.2294911129997672 0.45481191988275516 0.4255007327796776
0.22967916499965213 0.457743038593063 0.42159257449926724
0.22986756999989666 0.45969711773326827 0.4186614557889594
0.23005627099973935 0.4557889594528579 0.412799218368344
0.23024763900002654 0.457743038593063 0.4108451392281387
0.2304374509999434 0.4606741573033708 0.4079140205178309
0.2306263929999659 0.4538348803126526 0.39912066438690763
0.2308149460000095 0.45676599902296044 0.3903273082559844
0.23100755399991613 0.457743038593063 0.38153395212506114
0.23119693999979063 0.457743038593063 0.3688324377137273
0.23138664199996128 0.4587200781631655 0.3629702002931119
0.23157569399973 0.457743038593063 0.35906204201270153
0.23176437699976304 0.45676599902296044 0.35906204201270153
0.23195387399982792 0.4557889594528579 0.35222276502198335
0.23214376099986112 0.45481191988275516 0.3512457254518808
0.23233336899966162 0.45676599902296044 0.35222276502198335
0.23252192199970523 0.4557889594528579 0.3502686858817783
0.2327110299997912 0.45481191988275516 0.3551538837322912
0.2329005089995917 0.4557889594528579 0.3561309233023937
0.2330892289996882 0.45676599902296044 0.35710796287249624
0.23327855899970018 0.46262823644357587 0.358085002442599
0.23346740899978613 0.4665363947239862 0.3551538837322912
0.23365653599967118 0.47142159257449934 0.3512457254518808
0.23384632899978897 0.467513434294089 0.3531998045920859
0.2340354009998009 0.4665363947239862 0.35222276502198335
0.23422630499999286 0.4665363947239862 0.34733756717147046
0.23441583999965587 0.467513434294089 0.34636052760136793
0.2346053739997842 0.4733756717147044 0.3424523693209576
0.23479513099982796 0.47435271128480694 0.33952125061064975
0.23499568299985185 0.4831460674157304 0.33952125061064975
0.23518618099978994 0.49877870053737183 0.3453834880312652
0.23537610399989717 0.4978016609672691 0.3414753297508548
0.23556500899985622 0.5056179775280898 0.3434294088910601
0.23575443199979418 0.5144113336590133 0.348314606741573
0.2359434479999436 0.5192965315095261 0.3512457254518808
0.23613268600001902 0.522227650219834 0.3551538837322912
0.23632205399962913 0.522227650219834 0.358085002442599
0.2365113839996411 0.522227650219834 0.3629702002931119
0.23670064099997035 0.5153883732291158 0.3639472398632144
0.23689008299970737 0.512457254518808 0.36492427943331696
0.23707911699966644 0.5075720566682951 0.36980947728383007
0.23726833699993222 0.5007327796775769 0.3737176355642404
0.23745839000002888 0.48998534440644836 0.37957987298485585
0.23764849799999865 0.4782608695652173 0.38446507083536874
0.23783805099992605 0.4684904738641915 0.39423546653639474
0.23802715900001203 0.4509037616023448 0.4049829018075233
0.23821663799981252 0.43917928676111373 0.4176844162188569
0.23840596899981392 0.42745481191988266 0.4284318514899854
0.23859578099973078 0.4157303370786516 0.43917928676111373
0.23878472299975328 0.40889106008793363 0.45188080117244755
0.23898214599967105 0.4049829018075233 0.45969711773326827
0.23917269899993698 0.41475329750854906 0.467513434294089
0.23936228899992784 0.4235466536394723 0.4763067904250122
0.2395523229997707 0.4333170493404983 0.48216902784562765
0.23974219100000482 0.44211040547142155 0.4851001465559355
0.23993152200000623 0.4460185637518319 0.48705422569614076
0.2401212409999971 0.4528578407425501 0.486077186126038
0.2403110159998505 0.45676599902296044 0.4851001465559355
0.2405001059996721 0.457743038593063 0.48412310698583294
0.24068915899988497 0.45676599902296044 0.4938935026868587
0.240878507999696 0.4538348803126526 0.5046409379579873
0.24106765399983487 0.44699560332193444 0.5134342940889105
0.24125744699995266 0.441133365901319 0.5232046897899365
0.24144701899967913 0.431362970200293 0.5310210063507572
0.24163633099988147 0.42159257449926724 0.5329750854909623
0.2418264579996503 0.41670737664875435 0.5427454811919883
0.2420161779996306 0.403028822667318 0.5495847581827065
0.2422059159998753 0.40009770395701016 0.5525158768930141
0.24239506100002473 0.40205178309721545 0.5544699560332194
0.2425846329997512 0.4108451392281387 0.5593551538837322
0.24277461099973152 0.41963849535906195 0.5554469956033219
0.2429642749998493 0.4323400097703958 0.5564240351734244
0.24316708699961964 0.4430874450415241 0.5593551538837322
0.24335673299992777 0.44894968246213973 0.5583781143136297
0.24354628599985517 0.45969711773326827 0.5622862725940401
0.24373657899968748 0.457743038593063 0.5652173913043479
0.2439268169996467 0.457743038593063 0.5642403517342451
0.2441161479996481 0.45676599902296044 0.5661944308744504
0.2443050899996706 0.44992672203224227 0.5691255495847583
0.24449504999984129 0.441133365901319 0.5710796287249633
0.2446856960000332 0.4333170493404983 0.5710796287249633
0.24487563699995007 0.4284318514899854 0.5710796287249633
0.24506556099959198 0.42256961406936977 0.5652173913043479
0.2452550209995934 0.4186614557889594 0.5632633121641426
0.24544438899965826 0.4137762579384465 0.5603321934538348
0.2456343119997655 0.41475329750854906 0.5564240351734244
0.24582419799980926 0.4186614557889594 0.5534929164631168
0.24601380699959918 0.4186614557889594 0.5466536394723986
0.24620278499969572 0.42452369320957506 0.5417684416218858
0.24639274599985583 0.42940889106008795 0.5368832437713726
0.24658213199973034 0.4303859306301905 0.5329750854909623
0.2467727959997319 0.4333170493404983 0.5359062042012701
0.24696292299995548 0.44211040547142155 0.5300439667806547
0.24716003100002126 0.4430874450415241 0.5212506106497312
0.2473494920000121 0.4450415241817294 0.512457254518808
0.24753811899972789 0.4509037616023448 0.5017098192476794
0.24772778299984566 0.4538348803126526 0.49193942354665365
0.24791922399981559 0.4528578407425501 0.48412310698583294
0.24810790699984864 0.45481191988275516 0.46946751343429405
0.24829658899989226 0.4509037616023448 0.4636052760136786
0.24848514199993588 0.44406448461162684 0.4528578407425501
0.248674065999694 0.4401563263312165 0.4401563263312165
0.24886219299969525 0.42940889106008795 0.4323400097703958
0.24905083799967542 0.4255007327796776 0.4255007327796776
0.24923957600003632 0.42159257449926724 0.4157303370786516
0.24942890700003773 0.42452369320957506 0.41670737664875435
0.24961790399993333 0.4157303370786516 0.41475329750854906
0.249806919999628 0.42256961406936977 0.4108451392281387
0.2499956579999889 0.43722520762090866 0.40986809965803617
0.25018515499959904 0.45188080117244755 0.4108451392281387
0.25037450499985425 0.4665363947239862 0.40986809965803617
0.2505635389998133 0.4831460674157304 0.4040058622374205
0.25075244399977237 0.49682462139716654 0.3952125061064973
0.250941662999594 0.49877870053737183 0.3913043478260869
0.25113386399971205 0.5026868588177822 0.37469467513434296
0.25132360199995674 0.5046409379579873 0.36980947728383007
0.25151315499988414 0.5007327796775769 0.3629702002931119
0.251703059999727 0.5026868588177822 0.3629702002931119
0.25189287199964383 0.49682462139716654 0.3561309233023937
0.25208310999960304 0.4938935026868587 0.3512457254518808
0.2522726629999852 0.48998534440644836 0.34929164631167553
0.2524632899999233 0.4880312652662433 0.34733756717147046
0.252651990999766 0.4782608695652173 0.34929164631167553
0.2528416739996828 0.47142159257449934 0.34929164631167553
0.25303200400003334 0.46946751343429405 0.3531998045920859
0.25322211299999253 0.4538348803126526 0.3561309233023937
0.2534114249997401 0.4479726428920372 0.3531998045920859
0.253600921999805 0.4460185637518319 0.3512457254518808
0.2537906229999862 0.44699560332193444 0.3502686858817783
0.2539797499998713 0.4538348803126526 0.35222276502198335
0.2541693769999256 0.45676599902296044 0.34733756717147046
0.25435965199994826 0.467513434294089 0.34636052760136793
0.25454929799980164 0.467513434294089 0.34440644846116264
0.25473823999982415 0.46946751343429405 0.34440644846116264
0.25492714399979377 0.467513434294089 0.34636052760136793
0.25511764199973186 0.4665363947239862 0.34929164631167553
0.2553075649998391 0.4665363947239862 0.35417684416218864
0.25549676599985105 0.4655593551538837 0.35906204201270153
0.25568678199988426 0.4636052760136786 0.3610161211529066
0.25587763099974836 0.4587200781631655 0.3629702002931119
0.25606679499969687 0.4636052760136786 0.3737176355642404
0.25625708899997335 0.4606741573033708 0.3776257938446508
0.25644691899969985 0.46165119687347334 0.3786028334147533
0.25663649099988106 0.4665363947239862 0.3786028334147533
0.25682615499999883 0.46946751343429405 0.3834880312652662
0.2570149489997675 0.4704445530043966 0.38641914997557403
0.25720401999979003 0.46946751343429405 0.38739618954567656
0.2573940729998867 0.4704445530043966 0.39228138739618945
0.2575832369998352 0.47142159257449934 0.40009770395701016
0.2577734009996675 0.47142159257449934 0.40693698094772834
0.25796282399960546 0.4655593551538837 0.4206155349291647
0.2581522839996069 0.4557889594528579 0.42940889106008795
0.2583415409999361 0.44211040547142155 0.44406448461162684
0.2585313159997895 0.431362970200293 0.44992672203224227
0.2587209619996429 0.4323400097703958 0.4606741573033708
0.2589102369997818 0.42940889106008795 0.46946751343429405
0.2591003079996881 0.4382022471910112 0.4733756717147044
0.2592904169996473 0.4460185637518319 0.47923790913532005
0.25948037699981796 0.45481191988275516 0.4802149487054226
0.25966985599961845 0.467513434294089 0.4851001465559355
0.2598586679996515 0.4665363947239862 0.48998534440644836
0.26004829499970583 0.4753297508549097 0.48705422569614076
0.2602376439999716 0.4753297508549097 0.48900830483634583
0.2604276779998145 0.47435271128480694 0.4929164631167562
0.26061760199991113 0.47239863214460187 0.49975574010747437
0.26080715499983853 0.46946751343429405 0.5105031753786029
0.2609965779997765 0.46165119687347334 0.5183194919394236
0.2611863709998943 0.45481191988275516 0.5271128480703469
0.26137555399964185 0.457743038593063 0.5319980459208598
0.26156438499992873 0.4479726428920372 0.5378602833414754
0.2617538079998667 0.4401563263312165 0.5378602833414754
0.2619428609996248 0.4333170493404983 0.540791402051783
0.26213302499991187 0.42452369320957506 0.5476306790425012
0.2623221889998604 0.4186614557889594 0.5486077186126037
0.2625142419997246 0.4176844162188569 0.550561797752809
0.2627039059998424 0.41670737664875435 0.5446995603321934
0.2628931989997909 0.4157303370786516 0.5427454811919883
0.2630854740000359 0.412799218368344 0.5437225207620908
0.2632750089996989 0.40986809965803617 0.540791402051783
0.26346461699995416 0.40889106008793363 0.5427454811919883
0.26365363299964883 0.4040058622374205 0.5446995603321934
0.2638426679995973 0.4010747435271129 0.5534929164631168
0.2640319429997362 0.4010747435271129 0.5515388373229115
0.26422130999981164 0.4059599413776258 0.5564240351734244
0.26441019699996104 0.40693698094772834 0.567171470444553
0.264599748999899 0.41182217879824123 0.5642403517342451
0.2647891729998264 0.41670737664875435 0.5652173913043479
0.2649785769999653 0.4186614557889594 0.567171470444553
0.2651681119996283 0.42159257449926724 0.5661944308744504
0.26535720199990465 0.42256961406936977 0.5661944308744504
0.26554697699975804 0.42452369320957506 0.5613092330239375
0.26573599299990747 0.42159257449926724 0.5534929164631168
0.2659256379997714 0.4235466536394723 0.5495847581827065
0.266116079999847 0.4255007327796776 0.5446995603321934
0.2663055589996475 0.4264777723497801 0.5388373229115779
0.26649475999965944 0.4352711284807034 0.5368832437713726
0.2666850349996821 0.4352711284807034 0.5368832437713726
0.26687490299991623 0.4401563263312165 0.5388373229115779
0.2670761039998979 0.44406448461162684 0.533952125061065
0.2672645640000155 0.4479726428920372 0.5319980459208598
0.2674526910000168 0.45676599902296044 0.5251587689301416
0.26764131799973256 0.4538348803126526 0.5173424523693209
0.2678296669996598 0.457743038593063 0.5085490962383976
0.26801838699975633 0.4538348803126526 0.49682462139716654
0.2682068099998105 0.4587200781631655 0.4802149487054226
0.268396195999685 0.4538348803126526 0.467513434294089
0.26858506400003535 0.44699560332193444 0.4557889594528579
0.268773857999804 0.4382022471910112 0.4460185637518319
0.26896320699961507 0.4352711284807034 0.4333170493404983
0.2691520559997116 0.42940889106008795 0.4235466536394723
0.2693413130000408 0.42745481191988266 0.4176844162188569
0.2695299949996297 0.4284318514899854 0.4137762579384465
0.26971856699992713 0.4255007327796776 0.4108451392281387
0.2699074339998333 0.4264777723497801 0.4059599413776258
0.2700960799998029 0.431362970200293 0.4079140205178309
0.2702853179998783 0.43917928676111373 0.4040058622374205
0.27047475999961534 0.4450415241817294 0.4010747435271129
0.2706635899999128 0.4538348803126526 0.3961895456765998
0.2708519949997026 0.46165119687347334 0.3854421104054715
0.27104284400002143 0.46946751343429405 0.38153395212506114
0.2712337859998115 0.4733756717147044 0.3688324377137273
0.2714228759996331 0.47239863214460187 0.3629702002931119
0.2716119839997191 0.4733756717147044 0.3561309233023937
0.27180118499973105 0.47435271128480694 0.35222276502198335
0.271991737999997 0.47239863214460187 0.3502686858817783
0.27218127299966 0.4753297508549097 0.3502686858817783
0.2723712140000316 0.47435271128480694 0.3453834880312652
0.27256071199963117 0.47923790913532005 0.3512457254518808
0.27274913499968534 0.47728382999511476 0.3531998045920859
0.2729383920000146 0.48216902784562765 0.3610161211529066
0.2731277409998256 0.4802149487054226 0.3659013190034197
0.27331658999992214 0.48216902784562765 0.35710796287249624
0.273506086999987 0.48412310698583294 0.3610161211529066
0.27369547399985095 0.486077186126038 0.35906204201270153
0.27388537799970436 0.48412310698583294 0.358085002442599
0.27407520899987503 0.4851001465559355 0.358085002442599
0.274264631999813 0.4851001465559355 0.3502686858817783
0.2744532589999835 0.48412310698583294 0.348314606741573
0.27464264599984745 0.486077186126038 0.3404982901807523
0.27483164299974305 0.4831460674157304 0.33952125061064975
0.27502158499964935 0.48216902784562765 0.33952125061064975
0.2752100640000208 0.47923790913532005 0.3404982901807523
0.2753991159997895 0.47923790913532005 0.3414753297508548
0.27558863199965344 0.4753297508549097 0.34440644846116264
0.2757777779997923 0.4763067904250122 0.35222276502198335
0.2759666459996879 0.4753297508549097 0.35417684416218864
0.2761559389996364 0.4753297508549097 0.36199316072300936
0.27634619599984944 0.4733756717147044 0.3639472398632144
0.2765359339996394 0.4753297508549097 0.36687835857352225
0.2767246720000003 0.47435271128480694 0.3678553981436248
0.2769141879998642 0.4753297508549097 0.36687835857352225
0.27710409299970706 0.4733756717147044 0.36687835857352225
0.27729749699983586 0.467513434294089 0.36980947728383007
0.2774890319997212 0.4655593551538837 0.3786028334147533
0.2776791589999448 0.457743038593063 0.3834880312652662
0.27786934100004146 0.4509037616023448 0.39423546653639474
0.2780588569999054 0.44992672203224227 0.4049829018075233
0.2782484649997059 0.4430874450415241 0.4176844162188569
0.27843755499998224 0.4430874450415241 0.431362970200293
0.27862807099972997 0.4450415241817294 0.44406448461162684
0.27881819799995355 0.44992672203224227 0.4557889594528579
0.2790108619997227 0.4557889594528579 0.4636052760136786
0.2792000999997981 0.4636052760136786 0.46946751343429405
0.27938944899960916 0.47239863214460187 0.47239863214460187
0.2795789839997269 0.47923790913532005 0.4763067904250122
0.27976912899976014 0.4831460674157304 0.47728382999511476
0.27995958899964535 0.4880312652662433 0.48216902784562765
0.2801490679999006 0.49193942354665365 0.4831460674157304
0.28033854699970107 0.486077186126038 0.486077186126038
0.2805279519998294 0.4802149487054226 0.4948705422569615
0.28071691199966153 0.47435271128480694 0.5056179775280898
0.28090600199993787 0.467513434294089 0.5202735710796287
0.28109572199991817 0.45969711773326827 0.5319980459208598
0.28128560799996194 0.4509037616023448 0.5398143624816805
0.28147467899998446 0.44699560332193444 0.5446995603321934
0.28166564000002836 0.44406448461162684 0.550561797752809
0.2818556180000087 0.4401563263312165 0.5593551538837322
0.2820452269997986 0.43624816805080613 0.5603321934538348
0.28223398299996916 0.43429408891060084 0.5593551538837322
0.28242357299996 0.4333170493404983 0.5622862725940401
0.28261323699962304 0.42940889106008795 0.5583781143136297
0.2828036789996986 0.4284318514899854 0.5574010747435272
0.28299389899984817 0.42452369320957506 0.5544699560332194
0.2831831179996698 0.42452369320957506 0.5525158768930141
0.283372911999777 0.42256961406936977 0.5544699560332194
0.28356255699964095 0.42256961406936977 0.5593551538837322
0.2837518139999702 0.42256961406936977 0.5613092330239375
0.2839403670000138 0.4235466536394723 0.5632633121641426
0.2841302159999941 0.42745481191988266 0.5603321934538348
0.2843198429995937 0.4323400097703958 0.5661944308744504
0.284509025999796 0.4352711284807034 0.567171470444553
0.2846985969999878 0.441133365901319 0.5642403517342451
0.2848885019998306 0.44406448461162684 0.5661944308744504
0.28507801799969457 0.44211040547142155 0.5613092330239375
0.28526757099962197 0.4450415241817294 0.5642403517342451
0.2854571599996234 0.44894968246213973 0.5564240351734244
0.2856466579996777 0.44992672203224227 0.5534929164631168
0.2858363219997955 0.4509037616023448 0.550561797752809
0.28602628199996616 0.4587200781631655 0.5446995603321934
0.2862157979998301 0.45676599902296044 0.540791402051783
0.2864059429998633 0.45676599902296044 0.5378602833414754
0.2865951439998753 0.44992672203224227 0.5378602833414754
0.2867851419996441 0.43917928676111373 0.5319980459208598
0.28698484300002747 0.4284318514899854 0.5329750854909623
0.2871754329999021 0.4157303370786516 0.5271128480703469
0.2873641339997448 0.4049829018075233 0.5192965315095261
0.2875535379998837 0.40009770395701016 0.5114802149487054
0.2877426279997053 0.39716658524670256 0.5026868588177822
0.28793168099991817 0.39228138739618945 0.4880312652662433
0.2881203449996974 0.39716658524670256 0.4753297508549097
0.28830873199967755 0.39912066438690763 0.4636052760136786
0.288497561999975 0.40205178309721545 0.4509037616023448
0.28868622599975424 0.412799218368344 0.44211040547142155
0.28887533499982965 0.4157303370786516 0.43429408891060084
0.28906457299990507 0.41475329750854906 0.4264777723497801
0.2892534779998641 0.41475329750854906 0.4235466536394723
0.28944152999974904 0.41670737664875435 0.4186614557889594
0.289630823999687 0.41670737664875435 0.41670737664875435
0.28981965499997386 0.4157303370786516 0.4137762579384465
0.2900083370000175 0.4264777723497801 0.41475329750854906
0.29019735299971217 0.42159257449926724 0.40986809965803617
0.2903862019998087 0.42940889106008795 0.40693698094772834
0.29057518099989466 0.43722520762090866 0.4049829018075233
0.29076373399993827 0.4479726428920372 0.39716658524670256
0.2909602309996444 0.45188080117244755 0.38153395212506114
0.29116000599969993 0.45188080117244755 0.3737176355642404
0.2913498189996062 0.45481191988275516 0.3688324377137273
0.2915393339999355 0.4636052760136786 0.3639472398632144
0.2917284799996196 0.47435271128480694 0.3629702002931119
0.2919179589998748 0.48705422569614076 0.36199316072300936
0.29210732599995026 0.49975574010747437 0.36003908158280407
0.2922963789997084 0.5134342940889105 0.35710796287249624
0.29248598799995307 0.5280898876404494 0.3639472398632144
0.29267507799977466 0.540791402051783 0.3629702002931119
0.2928639449996808 0.5398143624816805 0.3659013190034197
0.2930536649996611 0.5368832437713726 0.3688324377137273
0.29324282899960963 0.5378602833414754 0.3678553981436248
0.29343191899988597 0.5290669272105519 0.36492427943331696
0.2936214349997499 0.5261358085002443 0.36687835857352225
0.29381080199982534 0.5153883732291158 0.35906204201270153
0.2939997069997844 0.5114802149487054 0.35906204201270153
0.2941889449998598 0.5085490962383976 0.3551538837322912
0.2943774979999034 0.5026868588177822 0.3453834880312652
0.29456671799971446 0.49682462139716654 0.33952125061064975
0.29475899299995945 0.48998534440644836 0.3404982901807523
0.2949489529996754 0.48705422569614076 0.3414753297508548
0.29513932099962403 0.47923790913532005 0.3356130923302394
0.29532865199962544 0.47142159257449934 0.3356130923302394
0.2955184269999336 0.4665363947239862 0.3404982901807523
0.29570755399981863 0.47142159257449934 0.3453834880312652
0.29589630999998917 0.46458231558378116 0.35222276502198335
0.2960854559996733 0.467513434294089 0.3561309233023937
0.2962794719996964 0.4665363947239862 0.36199316072300936
0.29648169099982624 0.467513434294089 0.3659013190034197
0.296682817999681 0.4704445530043966 0.3659013190034197
0.2968732219997037 0.4753297508549097 0.36980947728383007
0.2970626829996945 0.4763067904250122 0.3776257938446508
0.29725253199967483 0.47435271128480694 0.3786028334147533
0.2974416590000146 0.4763067904250122 0.38641914997557403
0.2976320819998364 0.4733756717147044 0.3932584269662922
0.2978355609998289 0.47728382999511476 0.4059599413776258
0.29803537299994787 0.46458231558378116 0.4176844162188569
0.2982256659997802 0.45969711773326827 0.42940889106008795
0.29841471899999306 0.4528578407425501 0.441133365901319
0.2986033279998992 0.4479726428920372 0.45188080117244755
0.2987924919998477 0.441133365901319 0.45969711773326827
0.29899317399986103 0.4352711284807034 0.467513434294089
0.2991851899996618 0.43624816805080613 0.4753297508549097
0.2993746129995998 0.4323400097703958 0.4763067904250122
0.2995634999997492 0.4255007327796776 0.48216902784562765
0.29975299699981406 0.4264777723497801 0.4831460674157304
0.29994217900002695 0.42745481191988266 0.486077186126038
0.30013075099986963 0.4323400097703958 0.4831460674157304
0.3003205820000403 0.43917928676111373 0.48900830483634583
0.3005101339999783 0.4430874450415241 0.4948705422569615
0.30070077999971545 0.4430874450415241 0.5036638983878847
0.3008900739996534 0.4460185637518319 0.5144113336590133
0.30107957099971827 0.4430874450415241 0.5271128480703469
0.3012691979997726 0.44406448461162684 0.5349291646311676
0.3014595839999856 0.43917928676111373 0.5388373229115779
0.3016487669997332 0.43722520762090866 0.5446995603321934
0.3018380419998721 0.43722520762090866 0.550561797752809
0.30202690899977824 0.4352711284807034 0.5574010747435272
0.302216572999896 0.4333170493404983 0.5525158768930141
0.30240603399988686 0.4352711284807034 0.5544699560332194
0.30259475299999394 0.4333170493404983 0.5525158768930141
0.30278391699994245 0.4382022471910112 0.5515388373229115
0.3029815069999131 0.44211040547142155 0.550561797752809
0.3031738380000206 0.44406448461162684 0.5495847581827065
0.3033630759996413 0.4430874450415241 0.5476306790425012
0.3035523509997802 0.44406448461162684 0.5534929164631168
0.3037413669999296 0.44211040547142155 0.5534929164631168
0.303930605000005 0.44406448461162684 0.5525158768930141
0.3041196389999641 0.4401563263312165 0.5613092330239375
0.30430854399992313 0.43917928676111373 0.5583781143136297
0.30449835599984 0.43722520762090866 0.5652173913043479
0.30468724199999997 0.4352711284807034 0.5632633121641426
0.30487609199963117 0.43624816805080613 0.567171470444553
0.3050653109999075 0.4333170493404983 0.5652173913043479
0.30525454899998294 0.4323400097703958 0.5632633121641426
0.3054429909998362 0.4352711284807034 0.5583781143136297
0.30563265499995396 0.4333170493404983 0.5583781143136297
0.30582237499993425 0.4303859306301905 0.5525158768930141
0.3060124089997771 0.4284318514899854 0.5417684416218858
0.3062021839996305 0.4303859306301905 0.5398143624816805
0.3063920889999281 0.42745481191988266 0.5290669272105519
0.30658256799961237 0.42745481191988266 0.5232046897899365
0.30677123199984635 0.4235466536394723 0.5183194919394236
0.30696039599979486 0.4264777723497801 0.5183194919394236
0.30715913399990313 0.4333170493404983 0.5114802149487054
0.30734837199997855 0.4206155349291647 0.5046409379579873
0.3075369619996309 0.42159257449926724 0.49877870053737183
0.3077254959998754 0.4235466536394723 0.4948705422569615
0.3079144379998979 0.4264777723497801 0.4831460674157304
0.3081027319999521 0.4255007327796776 0.47923790913532005
0.30829146999985824 0.42256961406936977 0.4655593551538837
0.3084804479999548 0.4255007327796776 0.4636052760136786
0.30866964999995616 0.4264777723497801 0.4460185637518319
0.3088583879998623 0.4323400097703958 0.4382022471910112
0.30904684799997995 0.441133365901319 0.4333170493404983
0.30923579000000245 0.4460185637518319 0.42940889106008795
0.30942526899980294 0.4528578407425501 0.42745481191988266
0.3096140069997091 0.46458231558378116 0.4255007327796776
0.30980344799991144 0.47142159257449934 0.42256961406936977
0.3099922239998705 0.4802149487054226 0.42256961406936977
0.31018094299997756 0.48216902784562765 0.42159257449926724
0.3103698289996828 0.48705422569614076 0.4206155349291647
0.3105583079995995 0.4880312652662433 0.4137762579384465
0.310746268999992 0.48705422569614076 0.4059599413776258
0.3109362840000358 0.48216902784562765 0.39228138739618945
0.31112665199998446 0.4802149487054226 0.38641914997557403
0.3113165009999648 0.47435271128480694 0.376648754274548
0.3115058879998287 0.4665363947239862 0.37274059599413767
0.31169525499990414 0.4606741573033708 0.3678553981436248
0.3118847339997046 0.4528578407425501 0.36199316072300936
0.31207402799964257 0.44699560332193444 0.36003908158280407
0.312263043999792 0.44211040547142155 0.3561309233023937
0.3124522260000049 0.4352711284807034 0.35906204201270153
0.31264185299960445 0.43624816805080613 0.36003908158280407
0.3128308689997539 0.4352711284807034 0.35906204201270153
0.31302036599981875 0.4450415241817294 0.3629702002931119
0.31320914099978836 0.4538348803126526 0.36199316072300936
0.31339795399981085 0.4557889594528579 0.36199316072300936
0.31358746899968537 0.46262823644357587 0.35906204201270153
0.3137766329996339 0.467513434294089 0.36003908158280407
0.3139659089997622 0.4733756717147044 0.35710796287249624
0.31415533199970014 0.4802149487054226 0.3551538837322912
0.314344606999839 0.47728382999511476 0.3531998045920859
0.31453390099977696 0.4782608695652173 0.34733756717147046
0.31472245299983115 0.4811919882755251 0.348314606741573
0.31491170999970564 0.4811919882755251 0.35222276502198335
0.31510243000002447 0.4782608695652173 0.35222276502198335
0.31529213099975095 0.4782608695652173 0.3551538837322912
0.3154807759997311 0.4753297508549097 0.35710796287249624
0.3156692919997113 0.4733756717147044 0.3639472398632144
0.31585736299985 0.4684904738641915 0.3678553981436248
0.31604648999973506 0.4636052760136786 0.3756717147044455
0.31623632099990573 0.4655593551538837 0.376648754274548
0.31642570699978023 0.4684904738641915 0.3805569125549584
0.31661533399983455 0.4753297508549097 0.3786028334147533
0.3168053869999312 0.4811919882755251 0.37957987298485585
0.31699462500000664 0.48705422569614076 0.37957987298485585
0.31718525199994474 0.495847581827064 0.3834880312652662
0.3173747309997452 0.5036638983878847 0.39228138739618945
0.31756389499969373 0.5085490962383976 0.39716658524670256
0.3177533179996317 0.5085490962383976 0.4079140205178309
0.3179435749998447 0.5056179775280898 0.41475329750854906
0.3181331279997721 0.5026868588177822 0.4323400097703958
0.31832312500000626 0.49682462139716654 0.4401563263312165
0.3185127519996058 0.4938935026868587 0.4509037616023448
0.31870215699973414 0.49193942354665365 0.46262823644357587
0.31889258000001064 0.48705422569614076 0.4753297508549097
0.3190835589998642 0.48216902784562765 0.47728382999511476
0.3192730189998656 0.4763067904250122 0.4831460674157304
0.31946294299996225 0.4606741573033708 0.48216902784562765
0.3196518289996675 0.4450415241817294 0.4851001465559355
0.31984014099998603 0.4157303370786516 0.47923790913532005
0.32002924899961727 0.3932584269662922 0.48900830483634583
0.320220579999841 0.3707865168539326 0.47923790913532005
0.3204098919995886 0.3561309233023937 0.4782608695652173
0.320599000999664 0.34440644846116264 0.4851001465559355
0.32078838699999324 0.34440644846116264 0.4948705422569615
0.3209778659997937 0.3453834880312652 0.5075720566682951
0.3211672699999326 0.35222276502198335 0.5144113336590133
0.32135617499989166 0.36687835857352225 0.5192965315095261
0.3215457649998825 0.3776257938446508 0.5280898876404494
0.32173448499997903 0.3981436248168051 0.5329750854909623
0.3219250379997902 0.4206155349291647 0.5417684416218858
0.3221139789998233 0.44211040547142155 0.5437225207620908
0.32230334699988816 0.46458231558378116 0.5446995603321934
0.3224929559996781 0.48705422569614076 0.5456765999022961
0.32268239699988044 0.5017098192476794 0.540791402051783
0.32287141300002986 0.5065950170981925 0.5310210063507572
0.32307381800001167 0.5036638983878847 0.5271128480703469
0.3232628890000342 0.4948705422569615 0.524181729360039
0.3234523679998347 0.4880312652662433 0.5232046897899365
0.32364088399981483 0.4802149487054226 0.5232046897899365
0.3238301779997528 0.4733756717147044 0.5319980459208598
0.324020007999934 0.46946751343429405 0.533952125061065
0.32421052399968175 0.4636052760136786 0.5378602833414754
0.32439974399994753 0.44992672203224227 0.5417684416218858
0.3245891669998855 0.44211040547142155 0.5476306790425012
0.3247783859997071 0.431362970200293 0.5495847581827065
0.32496745799971904 0.4264777723497801 0.5476306790425012
0.3251564919996781 0.4264777723497801 0.5486077186126037
0.32534585999974297 0.42452369320957506 0.5476306790425012
0.3255356169997867 0.41670737664875435 0.5437225207620908
0.3257250579999891 0.4108451392281387 0.5437225207620908
0.3259142039996732 0.4108451392281387 0.5329750854909623
0.3261030899998332 0.4059599413776258 0.5310210063507572
0.3262918279997393 0.40693698094772834 0.5271128480703469
0.32648067699983585 0.40693698094772834 0.5271128480703469
0.32666971199978434 0.4108451392281387 0.5261358085002443
0.3268595419999656 0.412799218368344 0.5300439667806547
0.32706159500003196 0.4186614557889594 0.5261358085002443
0.3272518889998537 0.4206155349291647 0.522227650219834
0.3274515899997823 0.4284318514899854 0.5134342940889105
0.32764180899994244 0.42940889106008795 0.5085490962383976
0.3278302509997957 0.4303859306301905 0.4978016609672691
0.3280191740000191 0.42940889106008795 0.48998534440644836
0.3282078569995974 0.4284318514899854 0.47239863214460187
0.32839672499994776 0.4284318514899854 0.4587200781631655
0.32858518499961065 0.431362970200293 0.4528578407425501
0.3287736639999821 0.4323400097703958 0.441133365901319
0.3289622719998988 0.4303859306301905 0.43429408891060084
0.3291505099996357 0.43722520762090866 0.431362970200293
0.32933871099976386 0.44406448461162684 0.4284318514899854
0.3295277829997758 0.44699560332193444 0.4264777723497801
0.32971613199970307 0.4557889594528579 0.4235466536394723
0.3299049259999265 0.45969711773326827 0.4235466536394723
0.3300937559997692 0.4655593551538837 0.42452369320957506
0.33028260599985515 0.46458231558378116 0.42745481191988266
0.33047123200003625 0.46946751343429405 0.41182217879824123
0.33065930399970966 0.4704445530043966 0.4040058622374205
0.33084794899968983 0.4753297508549097 0.3913043478260869
0.3310390949995963 0.4733756717147044 0.3834880312652662
0.3312277959998937 0.4782608695652173 0.37274059599413767
0.3314166079999268 0.4733756717147044 0.3678553981436248
0.3316056049998224 0.4733756717147044 0.3639472398632144
0.33179452900003525 0.4733756717147044 0.36003908158280407
0.33198337799967703 0.47435271128480694 0.35710796287249624
0.33217268999987937 0.4763067904250122 0.36003908158280407
0.3323621319996164 0.46946751343429405 0.36199316072300936
0.33255168499999854 0.4636052760136786 0.3629702002931119
0.3327412559997356 0.45676599902296044 0.3639472398632144
0.3329302539996206 0.457743038593063 0.3639472398632144
0.3331195839996326 0.4538348803126526 0.3639472398632144
0.33330896999996185 0.45481191988275516 0.3659013190034197
0.3334979859996565 0.4528578407425501 0.3639472398632144
0.33368761299971084 0.45676599902296044 0.3639472398632144
0.3338770549999026 0.45676599902296044 0.3629702002931119
0.3340663119997771 0.46165119687347334 0.358085002442599
0.33425614199995834 0.4636052760136786 0.35222276502198335
0.3344452689998434 0.4704445530043966 0.3434294088910601
0.33463378499982355 0.4831460674157304 0.3434294088910601
0.33482328299987785 0.4763067904250122 0.3434294088910601
0.3350133349999851 0.4763067904250122 0.3434294088910601
0.3352025919998596 0.4782608695652173 0.348314606741573
0.33539186699999846 0.47728382999511476 0.34929164631167553
0.33558071599964023 0.4763067904250122 0.3531998045920859
0.3357700100000329 0.47728382999511476 0.358085002442599
0.3359599329996854 0.47728382999511476 0.3629702002931119
0.3361492079998243 0.47728382999511476 0.36687835857352225
0.3363378719996035 0.4782608695652173 0.37176355642403514
0.33652696199987986 0.4851001465559355 0.37274059599413767
0.3367159409999658 0.4802149487054226 0.37274059599413767
0.3369047899996076 0.4782608695652173 0.37469467513434296
0.3370945839997148 0.48216902784562765 0.3786028334147533
0.3372838409995893 0.48705422569614076 0.3805569125549584
0.33747320799966474 0.4802149487054226 0.38641914997557403
0.3376624089996767 0.4802149487054226 0.3952125061064973
0.33785233299977335 0.47728382999511476 0.40693698094772834
0.3380425519999335 0.4733756717147044 0.4186614557889594
0.33823167899981854 0.4655593551538837 0.42940889106008795
0.33842186199990465 0.46165119687347334 0.4460185637518319
0.33861171099988496 0.45969711773326827 0.4538348803126526
0.3388009119998969 0.4538348803126526 0.45969711773326827
0.3389913539999725 0.4528578407425501 0.4655593551538837
0.33918124000001626 0.4509037616023448 0.4684904738641915
0.3393705149997004 0.4528578407425501 0.47728382999511476
0.3395598639999662 0.4557889594528579 0.4782608695652173
0.33974871299960796 0.45481191988275516 0.47923790913532005
0.3399385069997152 0.4528578407425501 0.486077186126038
0.3401282079998964 0.4528578407425501 0.4831460674157304
0.3403179089996229 0.45481191988275516 0.48900830483634583
0.3405070919998252 0.45188080117244755 0.49682462139716654
0.3406961450000381 0.4509037616023448 0.5065950170981925
0.34088601199982804 0.44992672203224227 0.5183194919394236
0.34107486099992457 0.4509037616023448 0.5319980459208598
0.3412642479997885 0.4509037616023448 0.5359062042012701
0.3414543750000121 0.44992672203224227 0.5456765999022961
0.3416438159997597 0.45481191988275516 0.5554469956033219
0.34183318399982454 0.4528578407425501 0.5554469956033219
0.34202205199972013 0.44894968246213973 0.5564240351734244
0.3422109749999436 0.44699560332193444 0.5603321934538348
0.3424006019999979 0.4401563263312165 0.5603321934538348
0.3425895249997666 0.43722520762090866 0.5603321934538348
0.3427794669996729 0.441133365901319 0.5534929164631168
0.34298035299980256 0.43429408891060084 0.550561797752809
0.34317194300001574 0.4323400097703958 0.5554469956033219
0.34336160699967877 0.4323400097703958 0.5486077186126037
0.3435508449997542 0.4323400097703958 0.5564240351734244
0.34374011999989307 0.4333170493404983 0.5564240351734244
0.343929506999757 0.4352711284807034 0.5564240351734244
0.3441203190000124 0.4303859306301905 0.5613092330239375
0.34431957499964483 0.4303859306301905 0.5622862725940401
0.3445084059999317 0.42745481191988266 0.567171470444553
0.34469764400000713 0.4323400097703958 0.5652173913043479
0.34488701199961724 0.43624816805080613 0.5613092330239375
0.3450764909998725 0.43429408891060084 0.5534929164631168
0.345265561999895 0.43429408891060084 0.5534929164631168
0.34545554099986475 0.4264777723497801 0.5495847581827065
0.3456449639998027 0.4206155349291647 0.5417684416218858
0.3458340719998887 0.41963849535906195 0.540791402051783
0.3460240699996575 0.4079140205178309 0.5319980459208598
0.3462137339997753 0.4040058622374205 0.5251587689301416
0.3464029719998507 0.40205178309721545 0.5251587689301416
0.34659200599980977 0.4010747435271129 0.5310210063507572
0.3467810779998217 0.39716658524670256 0.5271128480703469
0.3469806299999618 0.4049829018075233 0.524181729360039
0.3471715719997519 0.412799218368344 0.522227650219834
0.3473604579999119 0.4235466536394723 0.5163654127992183
0.34754988199983927 0.4382022471910112 0.5085490962383976
0.34773799000004146 0.44894968246213973 0.49975574010747437
0.3479260429999158 0.4606741573033708 0.48900830483634583
0.3481151329997374 0.4665363947239862 0.4831460674157304
0.3483040749997599 0.46458231558378116 0.4684904738641915
0.34849305399984587 0.4606741573033708 0.4587200781631655
0.3486815139999635 0.45188080117244755 0.4479726428920372
0.3488702709996687 0.4479726428920372 0.4382022471910112
0.34905889799983925 0.441133365901319 0.4352711284807034
0.34924743199962904 0.4401563263312165 0.4323400097703958
0.3494355220000216 0.4382022471910112 0.42745481191988266
0.34962387099994885 0.441133365901319 0.4255007327796776
0.34981196099988665 0.4401563263312165 0.4206155349291647
0.3500001809998139 0.4430874450415241 0.4186614557889594
0.35018875199966715 0.45188080117244755 0.41963849535906195
0.3503774349997002 0.4450415241817294 0.412799218368344
0.3505657649998284 0.4460185637518319 0.403028822667318
0.35075483699984034 0.4450415241817294 0.39228138739618945
0.35094353799968303 0.4509037616023448 0.38251099169516367
0.3511347939997904 0.45188080117244755 0.3756717147044455
0.3513240699999187 0.4557889594528579 0.3659013190034197
0.3515138630000365 0.457743038593063 0.3629702002931119
0.3517033979996995 0.4606741573033708 0.35710796287249624
0.3518929499996375 0.4655593551538837 0.3512457254518808
0.3520823740000196 0.46946751343429405 0.34733756717147046
0.3522719640000105 0.47142159257449934 0.3512457254518808
0.3524608869997792 0.46946751343429405 0.348314606741573
0.35264938399996026 0.46458231558378116 0.3453834880312652
0.3528384369997184 0.4684904738641915 0.34929164631167553
0.353027433999614 0.46946751343429405 0.3502686858817783
0.35321617299996433 0.4753297508549097 0.35417684416218864
0.35340580000001864 0.46946751343429405 0.35417684416218864
0.35359496399996715 0.4733756717147044 0.35417684416218864
0.3537847200000215 0.47239863214460187 0.3551538837322912
0.35397469899999123 0.4763067904250122 0.35222276502198335
0.354164456000035 0.4802149487054226 0.34929164631167553
0.35435358299992004 0.4831460674157304 0.3453834880312652
0.35454296899979454 0.4851001465559355 0.3414753297508548
0.3547331699996903 0.48412310698583294 0.3424523693209576
0.3549224629996388 0.48412310698583294 0.34440644846116264
0.35511194199989404 0.48216902784562765 0.34440644846116264
0.35530117999996946 0.4802149487054226 0.348314606741573
0.3554908439996325 0.47728382999511476 0.348314606741573
0.3556795079998665 0.47239863214460187 0.35222276502198335
0.3558693579998362 0.4733756717147044 0.3561309233023937
0.3560595219996685 0.4753297508549097 0.36003908158280407
0.3562492039995959 0.4763067904250122 0.3659013190034197
0.3564391639997666 0.4753297508549097 0.36687835857352225
0.35662892099981036 0.4782608695652173 0.3707865168539326
0.35681888099998105 0.4802149487054226 0.37274059599413767
0.35700841599964406 0.4802149487054226 0.3805569125549584
0.3571978569998464 0.48216902784562765 0.38739618954567656
0.3573876509999536 0.48216902784562765 0.3952125061064973
0.35757653699965886 0.4851001465559355 0.40009770395701016
0.35776557199960735 0.4802149487054226 0.4108451392281387
0.35795519899966166 0.4802149487054226 0.42159257449926724
0.3581441769997582 0.48412310698583294 0.4333170493404983
0.3583332299999711 0.4851001465559355 0.4430874450415241
0.358522523999909 0.4851001465559355 0.4528578407425501
0.35871226199969897 0.48216902784562765 0.46165119687347334
0.35890412999970067 0.486077186126038 0.47142159257449934
0.35909577499978695 0.47435271128480694 0.4782608695652173
0.35928886499959845 0.47435271128480694 0.4811919882755251
0.3594788619998326 0.4733756717147044 0.48216902784562765
0.3596681189997071 0.47239863214460187 0.48705422569614076
0.3598575239998354 0.4665363947239862 0.49682462139716654
0.36004735400001664 0.4587200781631655 0.486077186126038
0.36023688899967965 0.4528578407425501 0.486077186126038
0.3604263309998714 0.44699560332193444 0.4929164631167562
0.36061530899996797 0.4382022471910112 0.5065950170981925
0.360804972999631 0.4303859306301905 0.5163654127992183
0.36099395199971696 0.4264777723497801 0.524181729360039
0.36118344999977126 0.42159257449926724 0.5359062042012701
0.36137335399962467 0.4186614557889594 0.5388373229115779
0.36156262999975297 0.41182217879824123 0.5427454811919883
0.3617534789996171 0.4079140205178309 0.5466536394723986
0.3619433089997983 0.403028822667318 0.5515388373229115
0.3621326399997997 0.4010747435271129 0.5544699560332194
0.36232271099970603 0.4010747435271129 0.5574010747435272
0.3625120980000247 0.40693698094772834 0.5554469956033219
0.36270157599983577 0.40693698094772834 0.5534929164631168
0.3628911849996257 0.4137762579384465 0.5486077186126037
0.3630904599999667 0.42159257449926724 0.5515388373229115
0.36328017899995757 0.42745481191988266 0.5515388373229115
0.3634696949998215 0.4323400097703958 0.5534929164631168
0.3636586739999075 0.441133365901319 0.5593551538837322
0.3638481339999089 0.4333170493404983 0.5544699560332194
0.3640374100000372 0.4352711284807034 0.5564240351734244
0.3642272959996262 0.4333170493404983 0.5642403517342451
0.3644163489998391 0.4323400097703958 0.5564240351734244
0.36460569799965015 0.42745481191988266 0.5603321934538348
0.3647955839996939 0.42159257449926724 0.5574010747435272
0.36498567399985404 0.4235466536394723 0.5554469956033219
0.36517567099963344 0.412799218368344 0.5564240351734244
0.36536548399999447 0.40693698094772834 0.5544699560332194
0.3655547589996786 0.4010747435271129 0.5554469956033219
0.3657438860000184 0.40205178309721545 0.5515388373229115
0.36593345699975544 0.4040058622374205 0.5515388373229115
0.36612291699975685 0.4059599413776258 0.5437225207620908
0.3663124519998746 0.41475329750854906 0.5417684416218858
0.3665013939998971 0.4264777723497801 0.5388373229115779
0.3666917239997929 0.4382022471910112 0.5437225207620908
0.36688060999995287 0.44894968246213973 0.5378602833414754
0.3670789039997544 0.4587200781631655 0.5359062042012701
0.3672686419999991 0.47142159257449934 0.5271128480703469
0.3674580099996092 0.4802149487054226 0.5183194919394236
0.3676470629998221 0.48998534440644836 0.512457254518808
0.3678356709997388 0.495847581827064 0.5085490962383976
0.36802481699987766 0.4978016609672691 0.4880312652662433
0.3682137769997098 0.5007327796775769 0.4763067904250122
0.36840251499961596 0.48900830483634583 0.4655593551538837
0.36859054899969124 0.4782608695652173 0.45188080117244755
0.36877849099982996 0.4655593551538837 0.44211040547142155
0.3689666369996303 0.45481191988275516 0.441133365901319
0.369154800999695 0.43722520762090866 0.4303859306301905
0.3693448169997282 0.4235466536394723 0.4235466536394723
0.3695340729996133 0.41670737664875435 0.42159257449926724
0.3697234589999425 0.40986809965803617 0.42159257449926724
0.36991260499962664 0.4108451392281387 0.42452369320957506
0.37010076899969135 0.40009770395701016 0.4186614557889594
0.3702897849998408 0.3961895456765998 0.4157303370786516
0.3704791899999691 0.39912066438690763 0.40889106008793363
0.37066876099970614 0.3952125061064973 0.39716658524670256
0.3708581839996441 0.3952125061064973 0.3883732291157791
0.3710667000000285 0.39423546653639474 0.376648754274548
0.3712562529999559 0.3961895456765998 0.36492427943331696
0.3714454719997775 0.3961895456765998 0.35710796287249624
0.3716346729997895 0.3981436248168051 0.3502686858817783
0.37182426299978033 0.4010747435271129 0.33952125061064975
0.37201342699972884 0.4049829018075233 0.33268197361993157
0.3722019619999628 0.4040058622374205 0.33463605276013686
0.3723909779996575 0.40693698094772834 0.33170493404982904
0.37258017899966944 0.4108451392281387 0.33268197361993157
0.3727693979999458 0.42256961406936977 0.3356130923302394
0.37295858099969337 0.4284318514899854 0.3414753297508548
0.37314768899977935 0.44406448461162684 0.34440644846116264
0.37333751999995 0.4636052760136786 0.34440644846116264
0.37352686899976106 0.48216902784562765 0.35222276502198335
0.37371568099979413 0.5007327796775769 0.34929164631167553
0.3739047529998061 0.5183194919394236 0.34929164631167553
0.374093935000019 0.5319980459208598 0.35222276502198335
0.37428256199973475 0.5437225207620908 0.3453834880312652
0.3744714849999582 0.5476306790425012 0.34733756717147046
0.3746609089998856 0.5495847581827065 0.348314606741573
0.3748505169996861 0.5486077186126037 0.34929164631167553
0.3750407180000366 0.5495847581827065 0.35710796287249624
0.37523091899993233 0.540791402051783 0.3561309233023937
0.37542060199984917 0.5319980459208598 0.358085002442599
0.3756099509996602 0.5232046897899365 0.3629702002931119
0.3757994669999789 0.5163654127992183 0.3610161211529066
0.3759894830000121 0.5105031753786029 0.36492427943331696
0.3761787949997597 0.5036638983878847 0.3678553981436248
0.37636777399984567 0.5017098192476794 0.3707865168539326
0.3765563269998893 0.5007327796775769 0.36980947728383007
0.37674543499997526 0.5026868588177822 0.37176355642403514
0.37693457999966995 0.5046409379579873 0.3756717147044455
0.37712354099994627 0.49975574010747437 0.3805569125549584
0.3773132789997362 0.495847581827064 0.3913043478260869
0.37750640599961116 0.48998534440644836 0.39423546653639474
0.3776986989996658 0.4851001465559355 0.40889106008793363
0.3778882519995932 0.4831460674157304 0.41475329750854906
0.37807817599968985 0.48705422569614076 0.42452369320957506
0.37826746899963837 0.4782608695652173 0.4352711284807034
0.3784563179997349 0.486077186126038 0.44699560332193444
0.37864544499961994 0.4909623839765511 0.45481191988275516
0.3788346090000232 0.4909623839765511 0.4636052760136786
0.37902456999972856 0.495847581827064 0.47142159257449934
0.3792140859995925 0.48705422569614076 0.4733756717147044
0.37940291599988996 0.4733756717147044 0.4753297508549097
0.37959187699971153 0.4665363947239862 0.4782608695652173
0.37978087399960714 0.45676599902296044 0.48216902784562765
0.3799701859998095 0.44406448461162684 0.4802149487054226
0.3801594239998849 0.42940889106008795 0.48705422569614076
0.38034860699963247 0.4157303370786516 0.48900830483634583
0.38053778899984536 0.4049829018075233 0.49682462139716654
0.3807270089996564 0.40009770395701016 0.5095261358085001
0.380915783999626 0.3981436248168051 0.5251587689301416
0.3811050780000187 0.40009770395701016 0.5349291646311676
0.38129411199997776 0.3952125061064973 0.540791402051783
0.38148397999975714 0.3961895456765998 0.5446995603321934
0.38167327299970566 0.40009770395701016 0.5486077186126037
0.3818626590000349 0.4079140205178309 0.5486077186126037
0.38205224900002577 0.412799218368344 0.5564240351734244
0.3822415619997628 0.4206155349291647 0.5603321934538348
0.3824307439999757 0.4255007327796776 0.567171470444553
0.3826212039998609 0.4352711284807034 0.5613092330239375
0.3828108869997777 0.4352711284807034 0.5574010747435272
0.38300164299971584 0.4401563263312165 0.5583781143136297
0.3831907699996009 0.43624816805080613 0.5583781143136297
0.3833800639999936 0.4382022471910112 0.5593551538837322
0.3835694129998046 0.43429408891060084 0.5583781143136297
0.3837585399996897 0.4303859306301905 0.5593551538837322
0.3839472409999871 0.431362970200293 0.5593551538837322
0.3841364979998616 0.41182217879824123 0.5583781143136297
0.38432540299982065 0.4040058622374205 0.5613092330239375
0.38451488199962114 0.3952125061064973 0.5564240351734244
0.38470373099971766 0.38153395212506114 0.5613092330239375
0.3848930239996662 0.36980947728383007 0.5574010747435272
0.3850817439997627 0.3551538837322912 0.5554469956033219
0.385271277999891 0.3561309233023937 0.5534929164631168
0.3854604049997761 0.3659013190034197 0.5476306790425012
0.3856501989998833 0.38153395212506114 0.550561797752809
0.3858393629998318 0.39912066438690763 0.5456765999022961
0.38602848999971684 0.4206155349291647 0.5388373229115779
0.3862177459996019 0.4382022471910112 0.5378602833414754
0.38640746600003695 0.4528578407425501 0.533952125061065
0.386596499999996 0.4655593551538837 0.5319980459208598
0.38678549799988104 0.47435271128480694 0.5329750854909623
0.3869830319999892 0.48216902784562765 0.5319980459208598
0.38717273299971566 0.47239863214460187 0.5280898876404494
0.3873611379999602 0.4704445530043966 0.5212506106497312
0.38754970899981345 0.4684904738641915 0.5163654127992183
0.3877378549996138 0.4655593551538837 0.5085490962383976
0.38792649999959394 0.4606741573033708 0.4978016609672691
0.38811494199990193 0.45676599902296044 0.4851001465559355
0.38830327300001954 0.45481191988275516 0.4704445530043966
0.38849147399969297 0.4528578407425501 0.4636052760136786
0.388680045000001 0.45188080117244755 0.4538348803126526
0.388869171999886 0.44406448461162684 0.44406448461162684
0.38905809599964414 0.4430874450415241 0.4382022471910112
0.3892471299996032 0.4450415241817294 0.43722520762090866
0.38943605299982664 0.44406448461162684 0.43722520762090866
0.3896247169996059 0.4479726428920372 0.4284318514899854
0.38981291799973405 0.4528578407425501 0.42745481191988266
0.39000195299968254 0.4509037616023448 0.42745481191988266
0.3901904129998002 0.45188080117244755 0.4255007327796776
0.390378724999664 0.4479726428920372 0.4186614557889594
0.3905672969999614 0.4528578407425501 0.40986809965803617
0.3907554419997723 0.4528578407425501 0.40693698094772834
0.3909441619998688 0.4538348803126526 0.3883732291157791
0.391134621999754 0.45481191988275516 0.3805569125549584
0.3913238039999669 0.45481191988275516 0.3756717147044455
0.39151678299958803 0.45676599902296044 0.37274059599413767
0.3917069099998116 0.45969711773326827 0.36980947728383007
0.39189535199966485 0.4587200781631655 0.36687835857352225
0.3920841089998248 0.46165119687347334 0.36199316072300936
0.3922730319995935 0.4665363947239862 0.3610161211529066
0.3924623069997324 0.4684904738641915 0.3639472398632144
0.3926520269997127 0.47239863214460187 0.36492427943331696
0.39284091299987267 0.467513434294089 0.3659013190034197
0.3930297059996519 0.46946751343429405 0.3659013190034197
0.39321879599992826 0.4733756717147044 0.35710796287249624
0.3934076460000142 0.4733756717147044 0.35417684416218864
0.39359710600001563 0.47142159257449934 0.35222276502198335
0.39378582499966797 0.4704445530043966 0.34929164631167553
0.39397474899988083 0.47435271128480694 0.3414753297508548
0.3941638569999668 0.47923790913532005 0.33952125061064975
0.3943524289998095 0.4811919882755251 0.3356130923302394
0.3945414449999589 0.47923790913532005 0.3307278944797265
0.39473081200003435 0.47728382999511476 0.32681973619931615
0.3949202730000252 0.4811919882755251 0.32681973619931615
0.395109250999667 0.4811919882755251 0.3229115779189058
0.39529778599990095 0.48216902784562765 0.3238886174890083
0.3954865789996802 0.4880312652662433 0.3287738153395212
0.39567583600000944 0.4851001465559355 0.33170493404982904
0.39586516700001084 0.48412310698583294 0.3365901319003419
0.39605414599964206 0.4802149487054226 0.3434294088910601
0.39624330999959056 0.4782608695652173 0.34929164631167553
0.396432769999592 0.47923790913532005 0.35222276502198335
0.39662160099987886 0.47435271128480694 0.35417684416218864
0.396810338999785 0.4704445530043966 0.3561309233023937
0.3969998169995961 0.4733756717147044 0.36003908158280407
0.3971886849999464 0.4782608695652173 0.3659013190034197
0.39737783099963053 0.4684904738641915 0.37274059599413767
0.397566439000002 0.46458231558378116 0.3805569125549584
0.39775512200003504 0.467513434294089 0.38935026868588185
0.3979442299996663 0.4636052760136786 0.40205178309721545
0.39813350499980515 0.4606741573033708 0.412799218368344
0.39832255800001803 0.45969711773326827 0.4255007327796776
0.39851277799971285 0.45676599902296044 0.43722520762090866
0.3987019789997248 0.45481191988275516 0.44699560332193444
0.3988915499999166 0.45481191988275516 0.4557889594528579
0.3990828809996856 0.4538348803126526 0.46262823644357587
0.399272247999761 0.4557889594528579 0.4684904738641915
0.39946133800003736 0.45969711773326827 0.47239863214460187
0.39965037299998585 0.45969711773326827 0.4782608695652173
0.39983946299980744 0.45676599902296044 0.48412310698583294
0.40002921899986177 0.4538348803126526 0.4880312652662433
0.40021817999968334 0.44894968246213973 0.4938935026868587
0.4004076209998857 0.44699560332193444 0.5017098192476794
0.40059685999995054 0.441133365901319 0.5114802149487054
0.4007855049999307 0.43624816805080613 0.5261358085002443
0.40097516899959373 0.4333170493404983 0.5349291646311676
0.40116503699982786 0.42452369320957506 0.5427454811919883
0.40135381199979747 0.42256961406936977 0.550561797752809
0.40154323499973543 0.42452369320957506 0.5544699560332194
0.4017319360000329 0.4284318514899854 0.5554469956033219
0.40192135899997083 0.431362970200293 0.5613092330239375
0.40211304199965525 0.43429408891060084 0.5593551538837322
0.40230222399986815 0.44211040547142155 0.5613092330239375
0.4024912769996263 0.441133365901319 0.5593551538837322
0.4026804599998286 0.43917928676111373 0.5525158768930141
0.40286941999966075 0.4450415241817294 0.5456765999022961
0.40307200999995985 0.44406448461162684 0.540791402051783
0.40326169199988726 0.4479726428920372 0.5446995603321934
0.40345048599965594 0.4509037616023448 0.5456765999022961
0.40363933499975246 0.4430874450415241 0.5476306790425012
0.4038289069999337 0.44211040547142155 0.5456765999022961
0.40401816299981874 0.43917928676111373 0.5534929164631168
0.4042078089996721 0.43429408891060084 0.5534929164631168
0.4043969360000119 0.4333170493404983 0.5593551538837322
0.40458574799959024 0.42940889106008795 0.5642403517342451
0.40477507899959164 0.4235466536394723 0.5642403517342451
0.40496448299973054 0.4235466536394723 0.567171470444553
0.4051543329997003 0.4255007327796776 0.5691255495847583
0.40534321899986026 0.431362970200293 0.567171470444553
0.4055322719996184 0.42745481191988266 0.5661944308744504
0.4057214169997678 0.42940889106008795 0.5603321934538348
0.40591080299964233 0.4255007327796776 0.5564240351734244
0.406100189999961 0.42159257449926724 0.5486077186126037
0.40628944599984607 0.4137762579384465 0.540791402051783
0.40647892499964655 0.4059599413776258 0.5417684416218858
0.4066684039999018 0.39423546653639474 0.5329750854909623
0.4068578090000301 0.38641914997557403 0.5319980459208598
0.4070540650000112 0.38739618954567656 0.522227650219834
0.4072437289996742 0.38935026868588185 0.5114802149487054
0.40743263399963325 0.403028822667318 0.5017098192476794
0.40762074199983545 0.4176844162188569 0.4938935026868587
0.40780992500003777 0.431362970200293 0.48705422569614076
0.4079982189996372 0.44211040547142155 0.4733756717147044
0.40818665999995574 0.45676599902296044 0.4655593551538837
0.40837580599963985 0.4684904738641915 0.45481191988275516
0.40856413699975747 0.4753297508549097 0.4460185637518319
0.40875217099983274 0.4851001465559355 0.4382022471910112
0.40894101999992927 0.4880312652662433 0.431362970200293
0.40913040599980377 0.4948705422569615 0.4255007327796776
0.4093194219999532 0.4909623839765511 0.4235466536394723
0.40950814199959495 0.4831460674157304 0.41475329750854906
0.4096966209999664 0.48412310698583294 0.41475329750854906
0.4098849879997033 0.4753297508549097 0.4137762579384465
0.41007337499968344 0.46946751343429405 0.4108451392281387
0.4102617979997376 0.4665363947239862 0.40205178309721545
0.4104503879998447 0.4636052760136786 0.40205178309721545
