0 0.4587200781631655 0.46946751343429405
0.0008098779999272665 0.467513434294089 0.412799218368344
0.0014092579999669397 0.46946751343429405 0.37469467513434296
0.0018781409999064635 0.4665363947239862 0.31704934049829014
0.002304541999819776 0.46458231558378116 0.24767953102100626
0.002707666999867797 0.4557889594528579 0.2085979482169027
0.003118179000011878 0.457743038593063 0.23790913531998048
0.0035179889996470592 0.46262823644357587 0.29946262823644365
0.003915778999726172 0.46165119687347334 0.3287738153395212
0.004318069999953877 0.46458231558378116 0.3512457254518808
0.0047158979996311245 0.4606741573033708 0.37274059599413767
0.0051133560000380385 0.4606741573033708 0.3805569125549584
0.005553478999900108 0.4587200781631655 0.37469467513434296
0.006009805999838136 0.45188080117244755 0.37469467513434296
0.006985458999679395 0.45676599902296044 0.42745481191988266
0.007670782999866788 0.45676599902296044 0.524181729360039
0.008962727999914932 0.46165119687347334 0.4851001465559355
0.009849511999618699 0.4606741573033708 0.4733756717147044
0.010294579999936104 0.45481191988275516 0.5134342940889105
0.010732870999618171 0.44992672203224227 0.5691255495847583
0.011175234999882377 0.4460185637518319 0.6062530532486565
0.011606320999817399 0.44699560332193444 0.6189545676599901
0.012022890000025654 0.44699560332193444 0.5837811431362969
0.012434179999672779 0.4450415241817294 0.5251587689301416
0.012837933999890083 0.441133365901319 0.47728382999511476
0.013258538999707525 0.441133365901319 0.4655593551538837
0.013755420999586931 0.4333170493404983 0.5163654127992183
0.01445683799965991 0.42940889106008795 0.533952125061065
0.015539618999810045 0.4255007327796776 0.4323400097703958
0.016216831999827264 0.42940889106008795 0.457743038593063
0.016934691999722418 0.42940889106008795 0.47435271128480694
0.017372926999996707 0.43917928676111373 0.47923790913532005
0.01779306899970834 0.441133365901319 0.47728382999511476
0.0182144899999912 0.44992672203224227 0.4753297508549097
0.018625743000029615 0.45188080117244755 0.46946751343429405
0.019134440000016184 0.45481191988275516 0.4528578407425501
0.019544285999927524 0.4557889594528579 0.42745481191988266
0.01994900299996516 0.4538348803126526 0.4059599413776258
0.020349441999769624 0.45676599902296044 0.3854421104054715
0.020748194999669067 0.46165119687347334 0.37176355642403514
0.021162986000035744 0.4684904738641915 0.3737176355642404
0.021572146999915276 0.46458231558378116 0.3786028334147533
0.021977103999688552 0.4606741573033708 0.38935026868588185
0.022385561999726633 0.4587200781631655 0.38935026868588185
0.022819869999693765 0.4606741573033708 0.38739618954567656
0.023298734000036347 0.46262823644357587 0.3854421104054715
0.02372759899981247 0.4655593551538837 0.38935026868588185
0.024139352000020153 0.47239863214460187 0.39228138739618945
0.02455008699962491 0.4733756717147044 0.38935026868588185
0.02496650699958991 0.47142159257449934 0.3786028334147533
0.025386630999946647 0.467513434294089 0.3512457254518808
0.025850531999822124 0.4655593551538837 0.3063019052271616
0.026279766999778076 0.46458231558378116 0.28480703468490476
0.02670772399960697 0.46458231558378116 0.31216414264777725
0.02714099599961628 0.45969711773326827 0.3834880312652662
0.02756093499965573 0.45676599902296044 0.4606741573033708
0.027976280999610026 0.4509037616023448 0.5144113336590133
0.028396200999850407 0.45676599902296044 0.5534929164631168
0.028815083999688795 0.45481191988275516 0.5720566682950659
0.0292352819997177 0.4587200781631655 0.567171470444553
0.029651683999873057 0.4538348803126526 0.5564240351734244
0.030075121999743715 0.45188080117244755 0.5300439667806547
0.030485782999676303 0.441133365901319 0.4831460674157304
0.030905925999832107 0.43722520762090866 0.4323400097703958
0.03133380799999941 0.441133365901319 0.4460185637518319
0.032476607999797125 0.4401563263312165 0.512457254518808
0.03299411899979532 0.43722520762090866 0.5446995603321934
0.033415520999824366 0.4323400097703958 0.5642403517342451
0.03382388499994704 0.4323400097703958 0.576941866145579
0.034246471999722417 0.42745481191988266 0.5749877870053737
0.034672521999709716 0.42745481191988266 0.5593551538837322
0.03513784899996608 0.4323400097703958 0.5417684416218858
0.035546657999930176 0.43429408891060084 0.5280898876404494
0.03595476299960865 0.4352711284807034 0.5134342940889105
0.03637666499980696 0.43722520762090866 0.5114802149487054
0.03688165799985654 0.44211040547142155 0.5085490962383976
0.03729702299960991 0.44406448461162684 0.5056179775280898
0.037699386999975104 0.44894968246213973 0.5017098192476794
0.03810386299983293 0.45188080117244755 0.486077186126038
0.03850528399971154 0.45481191988275516 0.46946751343429405
0.03891587099997196 0.4557889594528579 0.46946751343429405
0.03931786499970258 0.4538348803126526 0.48412310698583294
0.03971315599983427 0.457743038593063 0.512457254518808
0.04011029799994503 0.4636052760136786 0.5271128480703469
0.04051160799963327 0.46946751343429405 0.5114802149487054
0.04091006499993455 0.46946751343429405 0.45188080117244755
0.041310336999686115 0.4636052760136786 0.3805569125549584
0.041726794999704 0.46165119687347334 0.33268197361993157
0.04214369599958445 0.4509037616023448 0.30727894479726436
0.04407574399965597 0.4587200781631655 0.24865657059110902
0.04467264300001261 0.4606741573033708 0.2887151929653151
0.04533941199997571 0.45676599902296044 0.3258426966292134
0.04664530099989861 0.4655593551538837 0.5173424523693209
0.04795820899971659 0.4528578407425501 0.5144113336590133
0.04935015199998816 0.4528578407425501 0.5232046897899365
0.0504216749995976 0.4479726428920372 0.5613092330239375
0.05220205799969335 0.4509037616023448 0.5456765999022961
0.05342157799987035 0.4382022471910112 0.5319980459208598
0.055066943999918294 0.4401563263312165 0.540791402051783
0.05620033599961971 0.4382022471910112 0.5574010747435272
0.05703549099962402 0.441133365901319 0.5642403517342451
0.05855058099996313 0.45676599902296044 0.5583781143136297
0.05931664499985345 0.4684904738641915 0.495847581827064
0.05983282299985149 0.46262823644357587 0.26233512457254515
0.06201594100002694 0.441133365901319 0.31216414264777725
0.0624652859996786 0.4450415241817294 0.32975085490962375
0.06281433699996342 0.44992672203224227 0.2984855886663409
0.06317522099971029 0.4538348803126526 0.26233512457254515
0.0634677909997663 0.45676599902296044 0.24767953102100626
0.06376860199998191 0.4655593551538837 0.23497801660967266
0.06406370900003822 0.46458231558378116 0.23400097703957012
0.06435592699972403 0.46946751343429405 0.24474841231069866
0.06464286699974764 0.46946751343429405 0.26917440156326333
0.06497926999963965 0.47142159257449934 0.3014167073766487
0.06537669099998311 0.47239863214460187 0.3336590131900341
0.0657427229998575 0.46458231558378116 0.3776257938446508
0.06628839999984848 0.4655593551538837 0.39228138739618945
0.06678211600001305 0.4655593551538837 0.4059599413776258
0.06727596099972288 0.46458231558378116 0.44894968246213973
0.06763760399962848 0.4587200781631655 0.4763067904250122
0.06792628499988496 0.4587200781631655 0.49975574010747437
0.0682205029997931 0.457743038593063 0.5163654127992183
0.06851038799959497 0.45676599902296044 0.5271128480703469
0.06878443999994488 0.45676599902296044 0.533952125061065
0.06914971299966055 0.4557889594528579 0.5212506106497312
0.06945761599990874 0.4509037616023448 0.5065950170981925
0.06975074100000711 0.44894968246213973 0.4938935026868587
0.07003449699959674 0.45188080117244755 0.4851001465559355
0.07032758499963165 0.44992672203224227 0.4811919882755251
0.07064039599981697 0.44699560332193444 0.47142159257449934
0.07097398399992016 0.44699560332193444 0.4587200781631655
0.07127729399962845 0.4450415241817294 0.46262823644357587
0.07174262099988482 0.4460185637518319 0.48705422569614076
0.07206141300002855 0.44211040547142155 0.5144113336590133
0.0723513909997564 0.4460185637518319 0.5456765999022961
0.07263392400000157 0.44699560332193444 0.5779189057156815
0.07292134599993005 0.44894968246213973 0.6072300928187591
0.073201489999974 0.441133365901319 0.5867122618466047
0.0744882310000321 0.43917928676111373 0.5036638983878847
0.07495881799968629 0.4382022471910112 0.44894968246213973
0.0752746279999883 0.43624816805080613 0.43624816805080613
0.075754417999633 0.4323400097703958 0.45188080117244755
0.07604909899964696 0.431362970200293 0.47142159257449934
0.07632629899990206 0.4264777723497801 0.49682462139716654
0.07659997999962798 0.42452369320957506 0.5144113336590133
0.07687429099996734 0.4255007327796776 0.5192965315095261
0.07715082400000028 0.4264777723497801 0.5183194919394236
0.0774244319995887 0.42745481191988266 0.5017098192476794
0.0776990759995897 0.4382022471910112 0.4909623839765511
0.07798188699962338 0.441133365901319 0.4802149487054226
0.07825829099965631 0.44406448461162684 0.47435271128480694
0.07853460199976325 0.4479726428920372 0.47142159257449934
0.07881291299963777 0.4509037616023448 0.46458231558378116
0.07910453799968309 0.4538348803126526 0.4587200781631655
0.07939234899959047 0.457743038593063 0.4587200781631655
0.07966712300003564 0.45481191988275516 0.45188080117244755
0.0799418409997088 0.45676599902296044 0.4528578407425501
0.08021872599965718 0.4606741573033708 0.44699560332193444
0.08049370399976397 0.46262823644357587 0.4382022471910112
0.08076714499975424 0.4684904738641915 0.42940889106008795
0.08104017799996655 0.46458231558378116 0.42256961406936977
0.08131304499966063 0.4684904738641915 0.4186614557889594
0.08158704099969327 0.46458231558378116 0.4206155349291647
0.08196523899960084 0.4655593551538837 0.4049829018075233
0.08231732699960048 0.467513434294089 0.3952125061064973
0.08262647099991227 0.467513434294089 0.3903273082559844
0.08291774500003157 0.46165119687347334 0.39228138739618945
0.08319346299958852 0.4684904738641915 0.3981436248168051
0.08346840399963185 0.4665363947239862 0.3932584269662922
0.08374389999971754 0.4753297508549097 0.3629702002931119
0.08402100699959192 0.4684904738641915 0.3160723009281876
0.0842957629997727 0.4665363947239862 0.28285295554469947
0.08456818499962537 0.4636052760136786 0.2633121641426477
0.08484449599973232 0.45969711773326827 0.26233512457254515
0.08511912199992366 0.4557889594528579 0.27503663898387876
0.08539124799972342 0.4587200781631655 0.2984855886663409
0.08566239199990378 0.4587200781631655 0.3229115779189058
0.08593642499999987 0.4587200781631655 0.348314606741573
0.08620847699967271 0.45969711773326827 0.3678553981436248
0.0864809729996523 0.4655593551538837 0.39716658524670256
0.08675256199967407 0.46946751343429405 0.43722520762090866
0.08739005300003555 0.45969711773326827 0.5398143624816805
0.08784232499965583 0.457743038593063 0.5818270639960919
0.08821426399981647 0.4587200781631655 0.5935515388373229
0.08850950099986221 0.44992672203224227 0.5847581827063997
0.08881662599969786 0.44992672203224227 0.5544699560332194
0.08911301099988123 0.45188080117244755 0.5183194919394236
0.08941745099991749 0.4538348803126526 0.4802149487054226
0.08970548399975087 0.45481191988275516 0.4538348803126526
0.08998512899961497 0.4587200781631655 0.4382022471910112
0.09026269899959516 0.4557889594528579 0.4323400097703958
0.09054519499977687 0.45188080117244755 0.4460185637518319
0.09082469099985246 0.4479726428920372 0.47239863214460187
0.09117681599991556 0.4460185637518319 0.5036638983878847
0.09152736699979869 0.4460185637518319 0.5300439667806547
0.09180295599981037 0.441133365901319 0.5427454811919883
0.09207561799985342 0.4401563263312165 0.5456765999022961
0.09235126299972762 0.43722520762090866 0.5437225207620908
0.09262411099962264 0.4382022471910112 0.5368832437713726
0.09289820000003601 0.43722520762090866 0.524181729360039
0.09317051099969831 0.43722520762090866 0.5212506106497312
0.09344943299993247 0.43624816805080613 0.5192965315095261
0.09372424399998636 0.4382022471910112 0.524181729360039
0.09399648099997648 0.43917928676111373 0.5319980459208598
0.09426781000001938 0.441133365901319 0.5378602833414754
0.09454238099988288 0.44211040547142155 0.533952125061065
0.09481917299990528 0.4430874450415241 0.5271128480703469
0.09517961299980016 0.4430874450415241 0.5163654127992183
0.09545547899961093 0.44211040547142155 0.49682462139716654
0.09572706799963271 0.4430874450415241 0.49193942354665365
0.09599802699995053 0.4382022471910112 0.49682462139716654
0.09626856099976067 0.43429408891060084 0.495847581827064
0.09654370499993092 0.43429408891060084 0.49193942354665365
0.09681466399979399 0.43917928676111373 0.48216902784562765
0.0970863089996783 0.4401563263312165 0.47239863214460187
0.09735652699964703 0.44211040547142155 0.457743038593063
0.09763411599988103 0.4450415241817294 0.44699560332193444
0.097916389999682 0.4528578407425501 0.42159257449926724
0.09846573400000125 0.4538348803126526 0.4206155349291647
0.09874841499959075 0.4509037616023448 0.4137762579384465
0.09905431799961661 0.4528578407425501 0.4108451392281387
0.09932981499969173 0.45188080117244755 0.40205178309721545
0.09960086599994611 0.4479726428920372 0.4049829018075233
0.09987376999970365 0.4528578407425501 0.41182217879824123
0.10014517399986289 0.4509037616023448 0.4137762579384465
0.10041507699997965 0.4528578407425501 0.4137762579384465
0.10068511099962052 0.45676599902296044 0.41963849535906195
0.10095590299988544 0.4606741573033708 0.4303859306301905
0.10122928800001318 0.4587200781631655 0.431362970200293
0.10150009899962242 0.46165119687347334 0.4333170493404983
0.10177257699979236 0.46165119687347334 0.4323400097703958
0.10204227699978219 0.4587200781631655 0.4255007327796776
0.1023125329998038 0.46262823644357587 0.42256961406936977
0.10258797300002698 0.46165119687347334 0.41963849535906195
0.10288348799986125 0.4587200781631655 0.403028822667318
0.10317711299967414 0.4606741573033708 0.3756717147044455
0.10345340599997144 0.46165119687347334 0.34440644846116264
0.10372736499994062 0.46458231558378116 0.3209574987787005
0.1040105649999532 0.4684904738641915 0.3004396678065462
0.10430593099999896 0.46458231558378116 0.29653150952613583
0.10459988999991765 0.4684904738641915 0.30923302393746943
0.10487320099991848 0.4763067904250122 0.3229115779189058
0.10514721599975019 0.47142159257449934 0.33952125061064975
0.1054189899996345 0.4704445530043966 0.3531998045920859
0.10568970799977251 0.47239863214460187 0.35710796287249624
0.10596129699979429 0.4684904738641915 0.36003908158280407
0.10623116399983701 0.4665363947239862 0.3561309233023937
0.1065043449998484 0.4684904738641915 0.36003908158280407
0.10677484199959508 0.467513434294089 0.37274059599413767
0.10706863399991562 0.4655593551538837 0.3913043478260869
0.10734201899958862 0.4636052760136786 0.41963849535906195
0.10765510700002778 0.45969711773326827 0.43917928676111373
0.10792715899970062 0.45481191988275516 0.45676599902296044
0.10819895099984933 0.45676599902296044 0.4665363947239862
0.10847026299961726 0.4538348803126526 0.47435271128480694
0.10874105499988218 0.45188080117244755 0.4851001465559355
0.10901190300000962 0.4557889594528579 0.4909623839765511
0.10928267700001015 0.457743038593063 0.49682462139716654
0.10955209899975671 0.457743038593063 0.5036638983878847
0.10982181800000035 0.4587200781631655 0.5153883732291158
0.11009368499981065 0.45676599902296044 0.5329750854909623
0.11037329199962187 0.45188080117244755 0.5534929164631168
0.11064362099978098 0.44699560332193444 0.5701025891548608
0.11095365399978618 0.4460185637518319 0.5740107474352711
0.11124839099966266 0.441133365901319 0.5828041035661944
0.11152555399985431 0.4450415241817294 0.5847581827063997
0.11179675399989719 0.44406448461162684 0.5896433805569126
0.11206741699970735 0.4401563263312165 0.5867122618466047
0.112337930999729 0.4460185637518319 0.5828041035661944
0.11261055699969802 0.4479726428920372 0.5759648265754762
0.11288166499980434 0.4460185637518319 0.5730337078651686
0.11315216100001635 0.44406448461162684 0.5681485100146555
0.11342260199990051 0.44699560332193444 0.5525158768930141
0.11369315299998561 0.4450415241817294 0.5290669272105519
0.11396315000001778 0.4460185637518319 0.5144113336590133
0.11425105299986171 0.4460185637518319 0.5105031753786029
0.11594658499961952 0.43917928676111373 0.5075720566682951
0.11765143200000239 0.4430874450415241 0.3786028334147533
0.11940887099990505 0.4528578407425501 0.403028822667318
0.11982323599977462 0.44992672203224227 0.4049829018075233
0.12015593499972965 0.4557889594528579 0.3913043478260869
0.12048255999980029 0.45969711773326827 0.3834880312652662
0.12117853199970341 0.46165119687347334 0.412799218368344
0.12245794000000387 0.4587200781631655 0.40693698094772834
0.1227681020000091 0.46165119687347334 0.4040058622374205
0.12314752299971587 0.4606741573033708 0.39228138739618945
0.12342444499972771 0.4606741573033708 0.37469467513434296
0.1236966639999082 0.46262823644357587 0.34929164631167553
0.12396816000000399 0.4636052760136786 0.31704934049829014
0.1242443779997302 0.4684904738641915 0.29653150952613583
0.12451476299975184 0.467513434294089 0.29653150952613583
0.12478455599966765 0.4684904738641915 0.3141182217879823
0.12505555199959417 0.4753297508549097 0.3385442110405472
0.12532664099990143 0.4684904738641915 0.3756717147044455
0.12559628500002873 0.46946751343429405 0.4059599413776258
0.12586715199995524 0.46946751343429405 0.43429408891060084
0.12613892599983956 0.4684904738641915 0.45188080117244755
0.1264834029998383 0.4665363947239862 0.46946751343429405
0.12676404699959676 0.46458231558378116 0.4684904738641915
0.12704654299977847 0.4636052760136786 0.4753297508549097
0.12734357599993018 0.4587200781631655 0.4763067904250122
0.1276459419996172 0.4587200781631655 0.4684904738641915
0.12792269800002032 0.45676599902296044 0.46458231558378116
0.12819680499978858 0.4538348803126526 0.4684904738641915
0.1284666719998313 0.4528578407425501 0.48412310698583294
0.12873870499970508 0.4528578407425501 0.5095261358085001
0.1290119609998328 0.4528578407425501 0.5349291646311676
0.1292829939998228 0.4557889594528579 0.5554469956033219
0.12955395299968586 0.4557889594528579 0.567171470444553
0.12983265299999402 0.45676599902296044 0.5603321934538348
0.13010413099982543 0.45481191988275516 0.5486077186126037
0.13041136699985145 0.44894968246213973 0.5466536394723986
0.13068132599983073 0.4479726428920372 0.5280898876404494
0.13095798899985311 0.4528578407425501 0.5105031753786029
0.13123068899994905 0.44992672203224227 0.49193942354665365
0.13150533399993947 0.4479726428920372 0.46946751343429405
0.13177629299980254 0.4430874450415241 0.4382022471910112
0.13204915899996195 0.44406448461162684 0.40986809965803617
0.13232024799981446 0.4382022471910112 0.3883732291157791
0.1325902259995928 0.4303859306301905 0.38739618954567656
0.13286109299997406 0.4323400097703958 0.3981436248168051
0.13313342199990075 0.42940889106008795 0.4206155349291647
0.13340388099959455 0.4284318514899854 0.4557889594528579
0.13367345199958436 0.42940889106008795 0.48412310698583294
0.13394555899958505 0.42940889106008795 0.5075720566682951
0.13421588899973358 0.42745481191988266 0.5261358085002443
0.1344874409996919 0.4284318514899854 0.5300439667806547
0.13475741799993557 0.4323400097703958 0.512457254518808
0.1350479509997058 0.4333170493404983 0.48900830483634583
0.13534972499974174 0.4333170493404983 0.4733756717147044
0.13562601699959487 0.43722520762090866 0.467513434294089
0.13590317999978652 0.4382022471910112 0.46946751343429405
0.13617447299975538 0.4430874450415241 0.4782608695652173
0.13644545099987226 0.4382022471910112 0.486077186126038
0.13671698400003152 0.4382022471910112 0.49193942354665365
0.13698847999967256 0.44406448461162684 0.4948705422569615
0.13725799499979985 0.4460185637518319 0.48412310698583294
0.13752924999971583 0.4479726428920372 0.4753297508549097
0.13780004299997017 0.44894968246213973 0.4587200781631655
0.1380868719998034 0.45188080117244755 0.44992672203224227
0.13835786899971936 0.45188080117244755 0.4528578407425501
0.13862834599967755 0.44894968246213973 0.4606741573033708
0.13891906499975448 0.45188080117244755 0.4655593551538837
0.13919263499974477 0.44992672203224227 0.4684904738641915
0.1394622419998086 0.44992672203224227 0.46262823644357587
0.13973440499967182 0.4538348803126526 0.46458231558378116
0.14000704999989466 0.4557889594528579 0.48216902784562765
0.14027839799973663 0.4587200781631655 0.4978016609672691
0.14053217199989376 0.46262823644357587 0.4978016609672691
0.1407572979996985 0.4704445530043966 0.4733756717147044
0.14098246200001086 0.4665363947239862 0.4430874450415241
0.14120810699978392 0.4655593551538837 0.403028822667318
0.14143339999964155 0.46262823644357587 0.3805569125549584
0.1416950259999794 0.4636052760136786 0.36980947728383007
0.14194307799971284 0.4557889594528579 0.38739618954567656
0.14217038999959186 0.45969711773326827 0.4157303370786516
0.14239507199999935 0.4538348803126526 0.4557889594528579
0.14261921699971936 0.45188080117244755 0.4851001465559355
0.14284371399980955 0.4528578407425501 0.5105031753786029
0.14316121000001658 0.45481191988275516 0.5085490962383976
0.1433976509997592 0.4606741573033708 0.4938935026868587
0.1436316659996919 0.46165119687347334 0.4587200781631655
0.14397942099958527 0.46946751343429405 0.40693698094772834
0.1442632869998306 0.47435271128480694 0.3756717147044455
0.14454154299983202 0.4704445530043966 0.3531998045920859
0.1448366309996345 0.46946751343429405 0.3365901319003419
0.14512394199982737 0.46458231558378116 0.31704934049829014
0.14541086399958658 0.46458231558378116 0.28969223253541765
0.1457266739998886 0.4587200781631655 0.2603810454323401
0.14603566999994655 0.45676599902296044 0.2525647288715194
0.14694147199998042 0.46262823644357587 0.3531998045920859
0.14739779899991845 0.45969711773326827 0.4352711284807034
0.14799303199970382 0.46165119687347334 0.4665363947239862
0.1482798429997274 0.4557889594528579 0.4948705422569615
0.14855352399990807 0.4587200781631655 0.5095261358085001
0.14882539099971837 0.457743038593063 0.512457254518808
0.1490973129998565 0.45481191988275516 0.5056179775280898
0.14936901299961391 0.45676599902296044 0.495847581827064
0.14963950899982592 0.45676599902296044 0.48900830483634583
0.14990913499968883 0.45188080117244755 0.4811919882755251
0.15017927999997482 0.4509037616023448 0.48900830483634583
0.15044971999986956 0.45188080117244755 0.5036638983878847
0.1507218459996693 0.4479726428920372 0.5153883732291158
0.15101495299995804 0.44699560332193444 0.5251587689301416
0.1512852269997893 0.44699560332193444 0.5368832437713726
0.1515560379998533 0.4460185637518319 0.550561797752809
0.15182727499995963 0.4430874450415241 0.550561797752809
0.15210047499977009 0.4460185637518319 0.5583781143136297
0.1523707309997917 0.44699560332193444 0.5593551538837322
0.15264213399996152 0.4450415241817294 0.5593551538837322
0.1529139269996449 0.44406448461162684 0.5642403517342451
0.15318484899989926 0.4401563263312165 0.5613092330239375
0.15345682699989993 0.4382022471910112 0.5661944308744504
0.15372750799997448 0.44211040547142155 0.5613092330239375
0.15399787499973172 0.4333170493404983 0.5525158768930141
0.15426870499959477 0.431362970200293 0.5437225207620908
0.15453955299972222 0.431362970200293 0.5437225207620908
0.15480965999995533 0.431362970200293 0.5466536394723986
0.1550842299998294 0.4323400097703958 0.550561797752809
0.1553541899997981 0.42940889106008795 0.540791402051783
0.15568983299999672 0.43429408891060084 0.5251587689301416
0.15597877399977733 0.43429408891060084 0.5134342940889105
0.15625152899974637 0.4352711284807034 0.49975574010747437
0.15652295099971525 0.43429408891060084 0.4880312652662433
0.1567938729999696 0.4352711284807034 0.47435271128480694
0.15706486999988556 0.43722520762090866 0.46165119687347334
0.15733471799967447 0.4401563263312165 0.45188080117244755
0.15760478799984412 0.44211040547142155 0.4333170493404983
0.15787545099965428 0.4430874450415241 0.40986809965803617
0.15814646599983462 0.4450415241817294 0.37957987298485585
0.1584920539999075 0.4430874450415241 0.37274059599413767
0.15877029099965512 0.4450415241817294 0.3786028334147533
0.15908167499992487 0.4479726428920372 0.3952125061064973
0.15935609699999986 0.44894968246213973 0.4137762579384465
0.15962757499983127 0.44699560332193444 0.4235466536394723
0.15989870099974723 0.4538348803126526 0.42940889106008795
0.16017032699983247 0.44992672203224227 0.42452369320957506
0.1604412679998859 0.45188080117244755 0.41670737664875435
0.160711818999971 0.45676599902296044 0.4059599413776258
0.16098461199999292 0.457743038593063 0.4010747435271129
0.1612549419996867 0.4636052760136786 0.4049829018075233
0.16152480799974 0.4636052760136786 0.4010747435271129
0.16179571199972997 0.4665363947239862 0.4049829018075233
0.16206639299980452 0.46262823644357587 0.4049829018075233
0.16233609299979435 0.46458231558378116 0.4079140205178309
0.16260666399966794 0.4636052760136786 0.40693698094772834
0.1628870489998917 0.4636052760136786 0.3903273082559844
0.16316019299983964 0.4665363947239862 0.36492427943331696
0.16343015199981892 0.46165119687347334 0.3356130923302394
0.16370092599981945 0.467513434294089 0.3160723009281876
0.16397103399958723 0.4704445530043966 0.3082559843673669
0.1642502519998743 0.4733756717147044 0.3131411822178798
0.1645235819996742 0.4763067904250122 0.33463605276013686
0.16480374399998254 0.4753297508549097 0.3502686858817783
0.16507536999961303 0.47728382999511476 0.36980947728383007
0.16534642199985683 0.47142159257449934 0.3883732291157791
0.1656162519998361 0.4704445530043966 0.4040058622374205
0.16588871099975222 0.46946751343429405 0.412799218368344
0.16615954099961527 0.4665363947239862 0.4186614557889594
0.16642940699966857 0.467513434294089 0.42256961406936977
0.16670001499960563 0.46946751343429405 0.42940889106008795
0.1669886769996083 0.4636052760136786 0.43624816805080613
0.16725848799978849 0.4587200781631655 0.44406448461162684
0.16753155899959893 0.4528578407425501 0.4557889594528579
0.16780136999977913 0.4479726428920372 0.46165119687347334
0.16807234699990659 0.441133365901319 0.4684904738641915
0.16838241699997525 0.4401563263312165 0.46458231558378116
0.1686529509997854 0.4401563263312165 0.4587200781631655
0.16892489099973318 0.441133365901319 0.45188080117244755
0.16919464699958553 0.44406448461162684 0.4460185637518319
0.16946464299962827 0.44406448461162684 0.4509037616023448
0.16973706499993568 0.45188080117244755 0.4665363947239862
0.1700095239998518 0.45188080117244755 0.48412310698583294
0.1702807980000216 0.44894968246213973 0.5144113336590133
0.1705524239996521 0.44406448461162684 0.5368832437713726
0.17082419799999116 0.44406448461162684 0.5515388373229115
0.17110939799977132 0.4430874450415241 0.5583781143136297
0.1713840799998252 0.441133365901319 0.5652173913043479
0.17165644599981533 0.43722520762090866 0.5681485100146555
0.17193062799969994 0.43624816805080613 0.5720566682950659
0.1722011609999754 0.43722520762090866 0.5749877870053737
0.17247182399978556 0.43722520762090866 0.5710796287249633
0.17274224599987065 0.43722520762090866 0.567171470444553
0.173012223999649 0.43917928676111373 0.5593551538837322
0.1732838869997977 0.4401563263312165 0.5456765999022961
0.17355475299973477 0.4401563263312165 0.533952125061065
0.17382695299966144 0.4382022471910112 0.5114802149487054
0.1740967829996407 0.4401563263312165 0.4909623839765511
0.174377445999653 0.43624816805080613 0.48216902784562765
0.17464821999965352 0.4382022471910112 0.4655593551538837
0.1749205119999715 0.43429408891060084 0.45188080117244755
0.17519371199978195 0.4333170493404983 0.44699560332193444
0.17546372699962376 0.4352711284807034 0.4557889594528579
0.17573509399971954 0.4352711284807034 0.4684904738641915
0.1760054599999421 0.43722520762090866 0.48412310698583294
0.17627612299975226 0.43624816805080613 0.49975574010747437
0.17654680499981623 0.43429408891060084 0.5065950170981925
0.17680974499990043 0.43624816805080613 0.5105031753786029
0.17704168699992806 0.4401563263312165 0.5056179775280898
0.1772667579998597 0.4450415241817294 0.49975574010747437
0.17749067999966428 0.44406448461162684 0.4909623839765511
0.1777154739997968 0.44699560332193444 0.4831460674157304
0.17793965600003503 0.44992672203224227 0.47435271128480694
0.17816402299968104 0.45188080117244755 0.46946751343429405
0.17838892700001452 0.4587200781631655 0.4557889594528579
0.17861342399964997 0.45481191988275516 0.4528578407425501
0.17883779099975072 0.46165119687347334 0.4430874450415241
0.17909125099959056 0.45188080117244755 0.4323400097703958
0.17931572899988169 0.457743038593063 0.42745481191988266
0.17954059699968639 0.45188080117244755 0.4284318514899854
0.17976481599998806 0.44894968246213973 0.43722520762090866
0.179988812999909 0.44699560332193444 0.43624816805080613
0.18021266099958666 0.4528578407425501 0.43429408891060084
0.18043804699982502 0.4557889594528579 0.4284318514899854
0.1806628589997672 0.45676599902296044 0.42940889106008795
0.18088720799960356 0.4587200781631655 0.42745481191988266
0.18111092699973597 0.45969711773326827 0.42745481191988266
0.1813347759998578 0.47239863214460187 0.41670737664875435
0.1815595499997471 0.4655593551538837 0.41182217879824123
0.18178463999993255 0.45969711773326827 0.4108451392281387
0.18200908099970547 0.46262823644357587 0.40889106008793363
0.18223318899981678 0.46262823644357587 0.412799218368344
0.18245748199979062 0.45969711773326827 0.4137762579384465
0.18268221999960588 0.4587200781631655 0.412799218368344
0.18291179099969668 0.45969711773326827 0.39912066438690763
0.18314265799972418 0.45969711773326827 0.37176355642403514
0.18337235899980442 0.4606741573033708 0.3385442110405472
0.18360311499964155 0.4655593551538837 0.3063019052271616
0.18383305599991218 0.4655593551538837 0.2808988764044944
0.1840632559997175 0.467513434294089 0.2711284807034684
0.1842920129997765 0.4733756717147044 0.26917440156326333
0.18452078699965568 0.4704445530043966 0.28480703468490476
0.18474959899958776 0.4704445530043966 0.303370786516854
0.1849791509998795 0.47435271128480694 0.3307278944797265
0.18520809199981159 0.47435271128480694 0.358085002442599
0.1854370889996062 0.4684904738641915 0.38739618954567656
0.18566634499984502 0.467513434294089 0.4264777723497801
0.18589552699995693 0.45969711773326827 0.43624816805080613
0.1861255059998257 0.4587200781631655 0.44406448461162684
0.18635487299980014 0.4606741573033708 0.43624816805080613
0.18658444399989094 0.45676599902296044 0.4323400097703958
0.18681547799997134 0.45188080117244755 0.41670737664875435
0.18704638199960755 0.45188080117244755 0.4040058622374205
0.18727530499973 0.4509037616023448 0.39716658524670256
0.187503875999937 0.4528578407425501 0.4010747435271129
0.18773363199989035 0.4528578407425501 0.4108451392281387
0.18796168399967428 0.4587200781631655 0.4284318514899854
0.18819090299984964 0.45481191988275516 0.44211040547142155
0.18841993699970772 0.4528578407425501 0.45969711773326827
0.1886490449996927 0.45969711773326827 0.47435271128480694
0.1888777639996988 0.45676599902296044 0.4938935026868587
0.18910700199967323 0.45676599902296044 0.5192965315095261
0.18933573899994371 0.45676599902296044 0.5593551538837322
0.18956542099977014 0.45969711773326827 0.6013678553981436
0.18979547399976582 0.4557889594528579 0.6365412799218368
0.19002539599978263 0.457743038593063 0.6697606253053248
0.1902545969996936 0.4557889594528579 0.704934049829018
0.19048366799961514 0.4509037616023448 0.7342452369320958
0.19071325699997033 0.4479726428920372 0.7537860283341475
0.19095819799986202 0.4460185637518319 0.7381533952125061
0.19118888000002698 0.4430874450415241 0.7107962872496336
0.19141920999982176 0.441133365901319 0.6658524670249144
0.19165046699981758 0.43917928676111373 0.6179775280898876
0.19191527799966934 0.441133365901319 0.578895945285784
0.1921472740000354 0.441133365901319 0.5525158768930141
0.19237825299978795 0.44406448461162684 0.5300439667806547
0.19260713799985751 0.4430874450415241 0.5017098192476794
0.19283670899994831 0.4430874450415241 0.46165119687347334
0.19306698399987 0.4401563263312165 0.3981436248168051
0.1932964620000348 0.43722520762090866 0.31704934049829014
0.19352619999972376 0.431362970200293 0.23009281875915977
0.19378406699979678 0.4255007327796776 0.1812408402540302
0.19406067399995663 0.42256961406936977 0.19394235466536403
0.19433589199979906 0.42256961406936977 0.25647288715192973
0.19461057399985293 0.4206155349291647 0.33268197361993157
0.19488827399982256 0.42256961406936977 0.4108451392281387
0.19516445499994006 0.42256961406936977 0.47435271128480694
0.19543958099984593 0.42745481191988266 0.5114802149487054
0.1957155589998365 0.42745481191988266 0.524181729360039
0.19599073999961547 0.42745481191988266 0.5300439667806547
0.1962661989996377 0.42940889106008795 0.5202735710796287
0.19654158399998778 0.4284318514899854 0.5046409379579873
0.1968162659995869 0.43429408891060084 0.486077186126038
0.19709133599963025 0.4382022471910112 0.4763067904250122
0.19736627699967357 0.4401563263312165 0.47142159257449934
0.19763997599966387 0.4430874450415241 0.46946751343429405
0.19791669500000353 0.44894968246213973 0.45969711773326827
0.1981950239996877 0.44894968246213973 0.4528578407425501
0.19847026099978393 0.4509037616023448 0.44699560332193444
0.19874573899960524 0.45188080117244755 0.4450415241817294
0.19902475399976538 0.4509037616023448 0.4382022471910112
0.1993006019997665 0.4538348803126526 0.43722520762090866
0.19957668999995803 0.4606741573033708 0.4333170493404983
0.19985155699987445 0.46165119687347334 0.42256961406936977
0.20012666399998125 0.45969711773326827 0.40693698094772834
0.20040208599994003 0.4636052760136786 0.39423546653639474
0.20067769399975077 0.46262823644357587 0.38641914997557403
0.20095226399962485 0.467513434294089 0.3883732291157791
0.2012261119998584 0.4665363947239862 0.3805569125549584
0.20150151600000754 0.46946751343429405 0.3776257938446508
0.20177658599959614 0.46458231558378116 0.3678553981436248
0.2020521189997453 0.4655593551538837 0.3678553981436248
0.20232648599994718 0.4636052760136786 0.35710796287249624
0.20260242599988487 0.46165119687347334 0.3531998045920859
0.20287827499987543 0.46165119687347334 0.35222276502198335
0.20315382599983423 0.46262823644357587 0.36492427943331696
0.2034298039998248 0.46458231558378116 0.38446507083536874
0.2037059669996779 0.4655593551538837 0.40205178309721545
0.20398161100001744 0.47239863214460187 0.4059599413776258
0.20425740399969072 0.47142159257449934 0.403028822667318
0.20453302899977643 0.4733756717147044 0.3961895456765998
0.2048070999999254 0.47239863214460187 0.39716658524670256
0.20508222599983128 0.4733756717147044 0.4049829018075233
0.2053596849996211 0.4704445530043966 0.40889106008793363
0.20563590299980206 0.46946751343429405 0.4176844162188569
0.20591134400001465 0.467513434294089 0.42159257449926724
0.20618502499974056 0.46946751343429405 0.4186614557889594
0.20646059499995317 0.47142159257449934 0.412799218368344
0.20673585099984848 0.467513434294089 0.412799218368344
0.2070280319999256 0.4655593551538837 0.4206155349291647
0.2073029539997151 0.46458231558378116 0.4323400097703958
0.20758219099980124 0.46458231558378116 0.4479726428920372
0.20785842799978127 0.457743038593063 0.4655593551538837
0.20813368299968715 0.4557889594528579 0.47923790913532005
0.2084104569998999 0.4557889594528579 0.48705422569614076
0.2086871759997848 0.4538348803126526 0.4978016609672691
0.20896119099961652 0.45676599902296044 0.5056179775280898
0.20923566800001936 0.45676599902296044 0.5134342940889105
0.2095100899996396 0.45676599902296044 0.512457254518808
0.20978441999977804 0.45676599902296044 0.5056179775280898
0.21005923099983193 0.4557889594528579 0.49975574010747437
0.21033472699991762 0.4479726428920372 0.5056179775280898
0.21060972299983405 0.44406448461162684 0.512457254518808
0.2108873119996133 0.441133365901319 0.5163654127992183
0.2111629749997519 0.43722520762090866 0.5163654127992183
0.21143811899992215 0.4382022471910112 0.5271128480703469
0.21171289299991258 0.4401563263312165 0.5300439667806547
0.21198772299976554 0.44211040547142155 0.5349291646311676
0.212262088999978 0.4430874450415241 0.5359062042012701
0.21253690100002132 0.44406448461162684 0.5388373229115779
0.21281156299983195 0.4401563263312165 0.5417684416218858
0.21308800399992833 0.43917928676111373 0.5456765999022961
0.21336314799964384 0.4401563263312165 0.5554469956033219
0.2136380519996237 0.441133365901319 0.5642403517342451
0.21391326999992089 0.4382022471910112 0.5749877870053737
0.2141893779999009 0.4333170493404983 0.5798729848558866
0.21446557799981747 0.4352711284807034 0.5798729848558866
0.21474083299972335 0.4352711284807034 0.5818270639960919
0.21501847699983045 0.43917928676111373 0.5808500244259893
0.21529321399975743 0.43722520762090866 0.576941866145579
0.21556724799984295 0.4401563263312165 0.5720566682950659
0.2158421509998334 0.4430874450415241 0.5544699560332194
0.2161174069997287 0.44406448461162684 0.5368832437713726
0.2163918289998037 0.4450415241817294 0.5202735710796287
0.21666597299963541 0.44211040547142155 0.49877870053737183
0.21694028399997478 0.44211040547142155 0.45969711773326827
0.21721500299963736 0.4460185637518319 0.41475329750854906
0.21748979499989218 0.4450415241817294 0.37274059599413767
0.21776369899998826 0.44406448461162684 0.3414753297508548
0.2180388619999576 0.44211040547142155 0.33268197361993157
0.21831398699987403 0.4401563263312165 0.33756717147044446
0.21858998399966367 0.44406448461162684 0.3424523693209576
0.21888238699966678 0.43429408891060084 0.34636052760136793
0.21915914199962572 0.43624816805080613 0.3453834880312652
0.21943476799970085 0.43624816805080613 0.34636052760136793
0.21970948699981818 0.43624816805080613 0.35906204201270153
0.21998335299986138 0.441133365901319 0.37274059599413767
0.22025779399973544 0.44699560332193444 0.38641914997557403
0.22053240099967297 0.45188080117244755 0.4040058622374205
0.22080624899990653 0.457743038593063 0.40693698094772834
0.22107950500003426 0.4587200781631655 0.40986809965803617
0.2213537229999929 0.4606741573033708 0.42256961406936977
0.22162923799987766 0.4636052760136786 0.4401563263312165
0.22190443799991044 0.467513434294089 0.4509037616023448
0.22217826699989018 0.47239863214460187 0.4528578407425501
0.22245339299979605 0.47239863214460187 0.44894968246213973
0.222728222999649 0.4704445530043966 0.441133365901319
0.22301558899971496 0.47239863214460187 0.4264777723497801
0.2232901409997794 0.4753297508549097 0.39716658524670256
0.22356613700003436 0.4704445530043966 0.3502686858817783
0.22384063299978152 0.467513434294089 0.2906692721055202
0.22411529600003632 0.467513434294089 0.23790913531998048
0.22438994100002674 0.4636052760136786 0.22032242305813377
0.22466464099989025 0.457743038593063 0.23009281875915977
0.22493963699980668 0.4509037616023448 0.2603810454323401
0.22521515099970202 0.4460185637518319 0.30727894479726436
0.22548949999963952 0.44211040547142155 0.36003908158280407
0.2257649219995983 0.44699560332193444 0.4108451392281387
0.22603876999983186 0.44894968246213973 0.4430874450415241
0.22631332099990686 0.44894968246213973 0.4528578407425501
0.22658887299985508 0.4509037616023448 0.4528578407425501
0.22687481399998433 0.4528578407425501 0.4587200781631655
0.227150846999848 0.4538348803126526 0.46458231558378116
0.22742775099959545 0.4528578407425501 0.4733756717147044
0.2277022099997339 0.4509037616023448 0.48216902784562765
0.22797622400003092 0.4509037616023448 0.495847581827064
0.22825084999976752 0.4528578407425501 0.5017098192476794
0.22852540199983196 0.45481191988275516 0.5085490962383976
0.22879971299971658 0.457743038593063 0.5105031753786029
0.22907413499979157 0.4557889594528579 0.5163654127992183
0.22934827999961271 0.4557889594528579 0.5232046897899365
0.22962321999966662 0.4587200781631655 0.5290669272105519
0.2298988829998052 0.45676599902296044 0.5319980459208598
0.23017382399984854 0.4606741573033708 0.533952125061065
0.23044976399978623 0.4528578407425501 0.5437225207620908
0.2307240379996074 0.4509037616023448 0.5642403517342451
0.23101033099965207 0.44894968246213973 0.5779189057156815
0.23128462299973762 0.4479726428920372 0.5906204201270151
0.23155980499996076 0.4460185637518319 0.5925744992672204
0.23183435600003577 0.44211040547142155 0.578895945285784
0.2321089449997089 0.4460185637518319 0.5388373229115779
0.23238347799997428 0.44406448461162684 0.48412310698583294
0.23265762299979542 0.4430874450415241 0.42940889106008795
0.23293317499974364 0.4450415241817294 0.3952125061064973
0.23320833699972354 0.4401563263312165 0.38935026868588185
0.23348335199989378 0.441133365901319 0.40693698094772834
0.23375734799992642 0.4401563263312165 0.4284318514899854
0.23403249299963136 0.4430874450415241 0.4509037616023448
0.2343070449996958 0.43917928676111373 0.46165119687347334
0.2345813189999717 0.4401563263312165 0.467513434294089
0.2348682399997415 0.43917928676111373 0.47239863214460187
0.23514499599968985 0.43722520762090866 0.4802149487054226
0.23541934399963793 0.43722520762090866 0.4880312652662433
0.23569346999966 0.4323400097703958 0.5026868588177822
0.23596741099981955 0.43429408891060084 0.5192965315095261
0.23624127699986275 0.4352711284807034 0.5319980459208598
0.2365159579999272 0.43917928676111373 0.5359062042012701
0.2367903069998647 0.43722520762090866 0.5368832437713726
0.2370654689998446 0.43917928676111373 0.5280898876404494
0.23734124299971882 0.441133365901319 0.5134342940889105
0.2376159249997727 0.4450415241817294 0.4948705422569615
0.2378906429999006 0.4450415241817294 0.4763067904250122
0.2381652139997641 0.44699560332193444 0.45676599902296044
0.23843911699987075 0.4450415241817294 0.44211040547142155
0.23871302099996683 0.44699560332193444 0.42745481191988266
0.23900099799993768 0.44894968246213973 0.4176844162188569
0.23927612399984355 0.4509037616023448 0.4108451392281387
0.23955091699963305 0.44699560332193444 0.40693698094772834
0.23982493099993007 0.45188080117244755 0.403028822667318
0.24009920499975124 0.4509037616023448 0.3952125061064973
0.24037323899983676 0.4538348803126526 0.3903273082559844
0.24064675299996452 0.45969711773326827 0.3981436248168051
0.24092102699978568 0.46262823644357587 0.40009770395701016
0.2411955049997232 0.46262823644357587 0.4040058622374205
0.2414700939998511 0.46458231558378116 0.41182217879824123
0.24174597899991568 0.46262823644357587 0.4176844162188569
0.24202040099999067 0.46458231558378116 0.42159257449926724
0.24229502699972727 0.46262823644357587 0.4186614557889594
0.24257011600002443 0.45676599902296044 0.42159257449926724
0.2428551489997517 0.457743038593063 0.42159257449926724
0.24313331199982713 0.45969711773326827 0.41963849535906195
0.24340730799985977 0.4587200781631655 0.40693698094772834
0.24368171099968094 0.45676599902296044 0.39716658524670256
0.24395663399991463 0.45969711773326827 0.3834880312652662
0.24423077799974635 0.46262823644357587 0.37469467513434296
0.24450642199963113 0.46262823644357587 0.36687835857352225
0.24478014099986467 0.46165119687347334 0.3531998045920859
0.24505522999970708 0.4606741573033708 0.33952125061064975
0.2453291519996128 0.46165119687347334 0.33952125061064975
0.24560399999973015 0.4636052760136786 0.3512457254518808
0.2458778289997099 0.46262823644357587 0.38153395212506114
0.2461519179996685 0.4655593551538837 0.4010747435271129
0.24642771099979655 0.4655593551538837 0.40986809965803617
0.24670213299987154 0.4684904738641915 0.40693698094772834
0.24699194400000124 0.467513434294089 0.4040058622374205
0.24726662499961094 0.4684904738641915 0.412799218368344
0.24754123200000322 0.457743038593063 0.4333170493404983
0.2478161359999831 0.4528578407425501 0.4479726428920372
0.24809194699992076 0.4528578407425501 0.46946751343429405
0.2483654799998476 0.4538348803126526 0.48412310698583294
0.248640661999616 0.4538348803126526 0.49975574010747437
0.24891510199995537 0.4538348803126526 0.5114802149487054
0.24918952400003036 0.44992672203224227 0.5085490962383976
0.24946409499989386 0.44894968246213973 0.495847581827064
0.24973805399986304 0.44894968246213973 0.48412310698583294
0.250011419999737 0.4460185637518319 0.47923790913532005
0.25028554599975905 0.44699560332193444 0.4880312652662433
0.2505590239998128 0.43917928676111373 0.4978016609672691
0.2508330389996445 0.43429408891060084 0.5114802149487054
0.25112057199976334 0.4382022471910112 0.5232046897899365
0.25139527199962686 0.4382022471910112 0.5261358085002443
0.2516718789997867 0.4382022471910112 0.5329750854909623
0.2519484679996822 0.4401563263312165 0.5310210063507572
0.2522230939998735 0.43917928676111373 0.5280898876404494
0.2524979049999274 0.43917928676111373 0.5251587689301416
0.25277375299992855 0.43917928676111373 0.5232046897899365
0.25304828599973916 0.43917928676111373 0.524181729360039
0.2533238559999518 0.43429408891060084 0.5251587689301416
0.25359881499980474 0.43624816805080613 0.5290669272105519
0.25387351499966826 0.43722520762090866 0.5290669272105519
0.2541481229995952 0.43429408891060084 0.5300439667806547
0.2544258589996389 0.4382022471910112 0.5251587689301416
0.2547009849999995 0.43917928676111373 0.5153883732291158
0.2549898519996532 0.4401563263312165 0.5105031753786029
0.25526421799986565 0.441133365901319 0.5046409379579873
0.2555394549999619 0.4401563263312165 0.5036638983878847
0.2558145999996668 0.4401563263312165 0.512457254518808
0.25608909599986873 0.4382022471910112 0.5192965315095261
0.25636362899967935 0.43429408891060084 0.5280898876404494
0.2566388850000294 0.4333170493404983 0.5368832437713726
0.25691286199980823 0.43429408891060084 0.5388373229115779
0.2571881730000314 0.43722520762090866 0.5388373229115779
0.25746215099979963 0.441133365901319 0.5300439667806547
0.2577367399999275 0.4450415241817294 0.5192965315095261
0.25801182899976993 0.44894968246213973 0.5075720566682951
0.2582868619997498 0.4557889594528579 0.5026868588177822
0.25856096899997283 0.4528578407425501 0.4929164631167562
0.25883466899995256 0.44992672203224227 0.4782608695652173
0.2591372759998194 0.44894968246213973 0.4587200781631655
0.2594126049998522 0.44992672203224227 0.431362970200293
0.2596875649996946 0.44992672203224227 0.4049829018075233
0.25996231999988595 0.44894968246213973 0.38739618954567656
0.260236667999834 0.4509037616023448 0.3707865168539326
0.260511089999909 0.45676599902296044 0.35222276502198335
0.2607857719999629 0.457743038593063 0.33463605276013686
0.26106036099963603 0.45676599902296044 0.3209574987787005
0.26133598599972174 0.457743038593063 0.3209574987787005
0.2616100010000082 0.45969711773326827 0.3287738153395212
0.26188444199988226 0.457743038593063 0.34440644846116264
0.2621591229999467 0.4606741573033708 0.3639472398632144
0.2624342119997891 0.457743038593063 0.3834880312652662
0.26270820799982175 0.4587200781631655 0.38739618954567656
0.26299601899972913 0.4606741573033708 0.3786028334147533
0.2632711080000263 0.4606741573033708 0.3688324377137273
0.2635454930000378 0.4636052760136786 0.358085002442599
0.26381895199983774 0.46458231558378116 0.3424523693209576
0.26409348499964835 0.46458231558378116 0.33170493404982904
0.26436990699994567 0.4665363947239862 0.33170493404982904
0.2646448299997246 0.4655593551538837 0.3365901319003419
0.2649210109998421 0.46262823644357587 0.34733756717147046
0.2651959329996316 0.46458231558378116 0.36199316072300936
0.2654707439996855 0.46262823644357587 0.37274059599413767
0.2657456479996654 0.4684904738641915 0.38251099169516367
0.2660204219996558 0.46458231558378116 0.38641914997557403
0.26629517699984717 0.46458231558378116 0.3932584269662922
0.266572098999859 0.4665363947239862 0.3981436248168051
0.2668586879999566 0.4684904738641915 0.4137762579384465
0.2671355909997146 0.4665363947239862 0.42256961406936977
0.2674097359999905 0.46458231558378116 0.4303859306301905
0.2676832319998539 0.45969711773326827 0.44894968246213973
0.2679572279998865 0.45676599902296044 0.4606741573033708
0.26823124299971823 0.4587200781631655 0.46946751343429405
0.26850449899984596 0.4538348803126526 0.4763067904250122
0.2688657339999736 0.45188080117244755 0.4811919882755251
0.26919111899997006 0.4528578407425501 0.48412310698583294
0.26949229999991076 0.45188080117244755 0.48998534440644836
0.26977355500002886 0.44894968246213973 0.48705422569614076
0.2700526989997343 0.44894968246213973 0.4938935026868587
0.27032936199975666 0.4430874450415241 0.5056179775280898
0.27060509900002216 0.4401563263312165 0.5202735710796287
0.2708870209999077 0.43917928676111373 0.5290669272105519
0.2711649249999937 0.44211040547142155 0.5290669272105519
0.2714399209999101 0.43624816805080613 0.5359062042012701
0.2717163620000065 0.4352711284807034 0.533952125061065
0.271991412999796 0.4382022471910112 0.5349291646311676
0.2722672799995962 0.43722520762090866 0.5319980459208598
0.2725413129996923 0.441133365901319 0.5300439667806547
0.27281693899976744 0.44211040547142155 0.533952125061065
0.27309097199986354 0.44211040547142155 0.5319980459208598
0.2733651169996847 0.43429408891060084 0.5398143624816805
0.2736397239996222 0.4333170493404983 0.5359062042012701
0.27391575699994064 0.4303859306301905 0.5417684416218858
0.27419053099993107 0.4333170493404983 0.540791402051783
0.27446510099980514 0.43429408891060084 0.5398143624816805
0.2747396349996052 0.43624816805080613 0.5398143624816805
0.2750227419996918 0.4382022471910112 0.540791402051783
0.2752982570000313 0.43722520762090866 0.5319980459208598
0.2755723450000005 0.43722520762090866 0.5261358085002443
0.2758466559998851 0.43917928676111373 0.5212506106497312
0.27612267099993915 0.441133365901319 0.5173424523693209
0.27639905599971826 0.44211040547142155 0.5153883732291158
0.2766741450000154 0.441133365901319 0.5075720566682951
0.27695019699967816 0.4430874450415241 0.4948705422569615
0.2772245819996897 0.44211040547142155 0.48412310698583294
0.2775027999996382 0.4450415241817294 0.47239863214460187
0.2777794629996606 0.44992672203224227 0.46165119687347334
0.2780558849999579 0.4538348803126526 0.4557889594528579
0.2783318069996312 0.4538348803126526 0.45188080117244755
0.2786071739997169 0.4528578407425501 0.4509037616023448
0.2788832999999613 0.4528578407425501 0.4528578407425501
0.2791584999999941 0.4528578407425501 0.44992672203224227
0.2794367369997417 0.45188080117244755 0.45676599902296044
0.2797126030000072 0.4528578407425501 0.4528578407425501
0.2799881359997016 0.4528578407425501 0.45188080117244755
0.2802628919998824 0.45676599902296044 0.43917928676111373
0.28053896199980954 0.45676599902296044 0.4206155349291647
0.2808132359996307 0.45676599902296044 0.39912066438690763
0.28108963999966363 0.4557889594528579 0.3688324377137273
0.28136606199996095 0.4557889594528579 0.33268197361993157
0.28164137299972936 0.4557889594528579 0.3053248656570591
0.28191740599959303 0.45676599902296044 0.2955544699560333
0.2821930689997316 0.4557889594528579 0.3004396678065462
0.28246789799959515 0.4528578407425501 0.3150952613580851
0.2827436539996597 0.4606741573033708 0.3307278944797265
0.283019019999756 0.4587200781631655 0.3404982901807523
0.2832949609996831 0.46262823644357587 0.348314606741573
0.2835705499996948 0.4606741573033708 0.358085002442599
0.2838455459996112 0.46262823644357587 0.3629702002931119
0.2841204499995911 0.4704445530043966 0.3737176355642404
0.28439611299972967 0.4684904738641915 0.38446507083536874
0.28467077499999505 0.4782608695652173 0.39228138739618945
0.2849454379997951 0.4704445530043966 0.4049829018075233
0.28521987899966916 0.47239863214460187 0.4235466536394723
0.2854951159997654 0.47239863214460187 0.4352711284807034
0.2857699269998193 0.47435271128480694 0.44699560332193444
0.2860455529998944 0.4763067904250122 0.45969711773326827
0.2863198079999165 0.4704445530043966 0.47435271128480694
0.2865942489997906 0.46946751343429405 0.48705422569614076
0.2868849669998781 0.467513434294089 0.48216902784562765
0.28716092599961485 0.4665363947239862 0.47142159257449934
0.28743536699994365 0.46262823644357587 0.4538348803126526
0.28771086300002935 0.457743038593063 0.4255007327796776
0.2879876739998508 0.4538348803126526 0.4059599413776258
0.28826413299975684 0.4509037616023448 0.40205178309721545
0.2885387409996838 0.4479726428920372 0.4303859306301905
0.28881258899991735 0.44699560332193444 0.47435271128480694
0.2890878809998867 0.44699560332193444 0.522227650219834
0.28936256299994056 0.44406448461162684 0.5476306790425012
0.2896381699997619 0.44211040547142155 0.540791402051783
0.2899127219998263 0.4460185637518319 0.5134342940889105
0.2901875139996264 0.4460185637518319 0.495847581827064
0.2904617330000292 0.4401563263312165 0.48998534440644836
0.29073654399962834 0.4352711284807034 0.5017098192476794
0.2910145399996509 0.43722520762090866 0.5163654127992183
0.29129031399997984 0.4382022471910112 0.5251587689301416
0.2915658839997377 0.43722520762090866 0.5085490962383976
0.2918409169997176 0.43722520762090866 0.486077186126038
0.29211683899984564 0.43722520762090866 0.4587200781631655
0.29239285399989967 0.43624816805080613 0.43429408891060084
0.2926680909999959 0.4401563263312165 0.4382022471910112
0.29294375399967976 0.4382022471910112 0.46165119687347334
0.2932192869998289 0.4382022471910112 0.48998534440644836
0.2934937649997664 0.4382022471910112 0.5114802149487054
0.293769871999757 0.43624816805080613 0.5300439667806547
0.29404464599974744 0.4352711284807034 0.5437225207620908
0.2943191979998119 0.4382022471910112 0.5515388373229115
0.29459424999959083 0.441133365901319 0.550561797752809
0.2948811719998048 0.44211040547142155 0.5378602833414754
0.295157074999679 0.4401563263312165 0.5144113336590133
0.29543301599960614 0.43624816805080613 0.4831460674157304
0.29570867899974473 0.43624816805080613 0.45481191988275516
0.29598476699993626 0.4352711284807034 0.4352711284807034
0.2962589859998843 0.4333170493404983 0.42745481191988266
0.29653359299982185 0.42940889106008795 0.4264777723497801
0.29680851499961136 0.42745481191988266 0.4382022471910112
0.2970836229997076 0.4303859306301905 0.4557889594528579
0.2973571559996344 0.4352711284807034 0.4655593551538837
0.29763161499977286 0.4401563263312165 0.4606741573033708
0.29790687099966817 0.4450415241817294 0.4557889594528579
0.29818319999958476 0.4460185637518319 0.457743038593063
0.2984591409999666 0.44894968246213973 0.44992672203224227
0.29873430399993595 0.44699560332193444 0.457743038593063
0.29902202199991734 0.44992672203224227 0.4684904738641915
0.2992965369999183 0.45188080117244755 0.486077186126038
0.29957051399969714 0.4528578407425501 0.48705422569614076
0.2998462139998992 0.4479726428920372 0.48705422569614076
0.3001218770000378 0.4479726428920372 0.4753297508549097
0.3003965029997744 0.4538348803126526 0.45676599902296044
0.30067140599976483 0.45969711773326827 0.4284318514899854
0.3009462359996178 0.46262823644357587 0.4079140205178309
0.3012222509996718 0.4684904738641915 0.3913043478260869
0.30150154299963106 0.46165119687347334 0.3707865168539326
0.3017777430000024 0.46458231558378116 0.348314606741573
0.3020531839997602 0.4636052760136786 0.32681973619931615
0.3023286239999834 0.4636052760136786 0.3180263800683927
0.30260315799978343 0.45969711773326827 0.30727894479726436
0.3028793199996471 0.46262823644357587 0.31216414264777725
0.3031556129999444 0.46262823644357587 0.32486565705911086
0.30342975699977615 0.46262823644357587 0.34440644846116264
0.3037049389999993 0.467513434294089 0.35417684416218864
0.30398002699985227 0.4704445530043966 0.3659013190034197
0.30425446799972633 0.4704445530043966 0.37274059599413767
0.3045291499997802 0.47239863214460187 0.3776257938446508
0.30480353499979174 0.4665363947239862 0.3854421104054715
0.3050776049999513 0.46946751343429405 0.3854421104054715
0.305353101000037 0.4733756717147044 0.3834880312652662
0.3056275049998476 0.4704445530043966 0.38153395212506114
0.3059019269999226 0.46946751343429405 0.38153395212506114
0.30617603399969084 0.4665363947239862 0.3834880312652662
0.3064511599995967 0.47142159257449934 0.37957987298485585
0.3067256749995977 0.47239863214460187 0.38739618954567656
0.3070177629997488 0.46946751343429405 0.3961895456765998
0.30729324100002486 0.467513434294089 0.4176844162188569
0.30756792199963456 0.4587200781631655 0.4401563263312165
0.3078430299997308 0.4557889594528579 0.467513434294089
0.30811748899986924 0.4557889594528579 0.49877870053737183
0.30839242999991257 0.44992672203224227 0.5202735710796287
0.30866685199998756 0.44894968246213973 0.5261358085002443
0.30894071800003076 0.4479726428920372 0.5212506106497312
0.3092150289999154 0.44699560332193444 0.5173424523693209
0.3094891739997365 0.44992672203224227 0.5192965315095261
0.309763761999875 0.4479726428920372 0.5232046897899365
0.3100374619998547 0.44699560332193444 0.5427454811919883
0.3103135139999722 0.44406448461162684 0.5652173913043479
0.31058880699993097 0.4460185637518319 0.5837811431362969
0.3108731729998908 0.44406448461162684 0.5984367366878358
0.3111486509997121 0.44211040547142155 0.6130923302393747
0.31142442499958634 0.4430874450415241 0.6101612115290669
0.3116994949996297 0.44406448461162684 0.6023448949682462
0.31197480599985283 0.4460185637518319 0.5740107474352711
0.31224902399981147 0.441133365901319 0.5183194919394236
0.3125237429999288 0.44406448461162684 0.4528578407425501
0.3127988319997712 0.44406448461162684 0.40205178309721545
0.3130735689996982 0.43722520762090866 0.37469467513434296
0.31334771299998465 0.43624816805080613 0.3629702002931119
0.3136229869996896 0.43429408891060084 0.3756717147044455
0.313897853999606 0.431362970200293 0.4157303370786516
0.31417271999998775 0.43429408891060084 0.45676599902296044
0.31444734599972435 0.4352711284807034 0.4948705422569615
0.3147224350000215 0.4352711284807034 0.5192965315095261
0.3150109119997069 0.4352711284807034 0.5271128480703469
0.31528707500001474 0.4401563263312165 0.5192965315095261
0.3155581829996663 0.4382022471910112 0.4978016609672691
0.31582964199969865 0.43722520762090866 0.4753297508549097
0.3161006379996252 0.43624816805080613 0.46946751343429405
0.31637154199961515 0.43429408891060084 0.46165119687347334
0.31664198199996463 0.4352711284807034 0.4684904738641915
0.3169133299998066 0.4333170493404983 0.47435271128480694
0.3171835299999657 0.43722520762090866 0.486077186126038
0.3174540079999133 0.441133365901319 0.49193942354665365
0.3177232639995964 0.4460185637518319 0.49682462139716654
0.31799401899979785 0.44699560332193444 0.4909623839765511
0.31826388599984057 0.4509037616023448 0.48705422569614076
0.318534733999968 0.44992672203224227 0.4733756717147044
0.3188051929996618 0.45676599902296044 0.46165119687347334
0.31908137499976874 0.4538348803126526 0.45481191988275516
0.3193548709996321 0.4528578407425501 0.45676599902296044
0.3196285149997493 0.45481191988275516 0.4655593551538837
0.3199024739997185 0.4528578407425501 0.4704445530043966
0.32017708199964545 0.45481191988275516 0.46946751343429405
0.320451466999657 0.45676599902296044 0.4587200781631655
0.32072548199994344 0.4606741573033708 0.4460185637518319
0.3209996999999021 0.46165119687347334 0.43429408891060084
0.32127475199968103 0.46165119687347334 0.4235466536394723
0.321549488999608 0.4606741573033708 0.4137762579384465
0.3218236149996301 0.4636052760136786 0.4049829018075233
0.32209698099995876 0.4606741573033708 0.3981436248168051
0.3223722739999175 0.46458231558378116 0.3913043478260869
0.3226467699996647 0.4606741573033708 0.3903273082559844
0.3229233399997611 0.46458231558378116 0.38446507083536874
0.32319898399964586 0.4665363947239862 0.3786028334147533
0.32347449899998537 0.4704445530043966 0.376648754274548
0.3237494769996374 0.4733756717147044 0.3659013190034197
0.3240240099999028 0.47239863214460187 0.3512457254518808
0.32429874699982975 0.47239863214460187 0.3336590131900341
0.3245738729997356 0.47239863214460187 0.31998045920859797
0.324848627999927 0.47142159257449934 0.31900341963849543
0.32512453199979063 0.46946751343429405 0.3277967757694187
0.32539893599960124 0.4655593551538837 0.34733756717147046
0.32567333899987716 0.46458231558378116 0.37176355642403514
0.32594792800000505 0.46262823644357587 0.3883732291157791
0.3262230909999744 0.4655593551538837 0.3883732291157791
0.32649788299977445 0.4665363947239862 0.3776257938446508
0.32677224999997634 0.4655593551538837 0.3707865168539326
0.3270493569998507 0.46458231558378116 0.376648754274548
0.3273242239997671 0.4606741573033708 0.4010747435271129
0.3275988679997681 0.45969711773326827 0.4430874450415241
0.3278736239999489 0.4557889594528579 0.4763067904250122
0.32814889799965385 0.4538348803126526 0.5026868588177822
0.32842389400002503 0.4528578407425501 0.5153883732291158
0.3286977789998673 0.4538348803126526 0.5310210063507572
0.32897210900000573 0.45188080117244755 0.5437225207620908
0.3292462899999009 0.45188080117244755 0.5574010747435272
0.32952111899976444 0.4528578407425501 0.5603321934538348
0.32979644899978666 0.4538348803126526 0.5642403517342451
0.3300722969997878 0.4479726428920372 0.5730337078651686
0.3303477380000004 0.4430874450415241 0.5828041035661944
0.3306221969996841 0.44211040547142155 0.578895945285784
0.3308980629999496 0.43917928676111373 0.576941866145579
0.33117289299980257 0.43722520762090866 0.5691255495847583
0.331447573999867 0.4382022471910112 0.5466536394723986
0.33172205199980453 0.441133365901319 0.4978016609672691
0.3319958259999112 0.441133365901319 0.4264777723497801
0.33227015599959486 0.44211040547142155 0.3678553981436248
0.33254479999959585 0.44406448461162684 0.3424523693209576
0.33281844399971305 0.44211040547142155 0.3561309233023937
0.3330928289997246 0.44406448461162684 0.39912066438690763
0.33336636299964084 0.4382022471910112 0.44406448461162684
0.3336414329996842 0.43722520762090866 0.486077186126038
0.3339155959997697 0.43624816805080613 0.522227650219834
0.33418922199962253 0.4382022471910112 0.5456765999022961
0.3344635329999619 0.43722520762090866 0.5574010747435272
0.33473854699968797 0.43917928676111373 0.5613092330239375
0.33501498799978435 0.43917928676111373 0.5574010747435272
0.3352901509997537 0.4401563263312165 0.5427454811919883
0.33556620299987117 0.4450415241817294 0.5271128480703469
0.3358410319997347 0.441133365901319 0.5095261358085001
0.33611641699963 0.4382022471910112 0.5026868588177822
0.3363915059999272 0.4382022471910112 0.4929164631167562
0.3366670579998754 0.43917928676111373 0.48900830483634583
0.33694223899965436 0.441133365901319 0.48412310698583294
0.33721743899968715 0.4450415241817294 0.48900830483634583
0.3374919719999525 0.4430874450415241 0.47728382999511476
0.3377673759996469 0.44894968246213973 0.4753297508549097
0.33804139099993336 0.4509037616023448 0.4665363947239862
0.3383156830000189 0.4538348803126526 0.47728382999511476
0.33859021699981895 0.4528578407425501 0.49682462139716654
0.33888047199980065 0.4557889594528579 0.5095261358085001
0.3391567089997807 0.45188080117244755 0.5153883732291158
0.3394315939999615 0.44992672203224227 0.5153883732291158
0.33970577499985666 0.44894968246213973 0.5134342940889105
0.3399810119999529 0.4460185637518319 0.5026868588177822
0.3402545639996788 0.4479726428920372 0.486077186126038
0.3405291159997432 0.4528578407425501 0.46946751343429405
0.3408023899996806 0.457743038593063 0.45188080117244755
0.3410771079998085 0.45969711773326827 0.4284318514899854
0.3413507709997248 0.46165119687347334 0.403028822667318
0.34162521199959883 0.46262823644357587 0.36199316072300936
0.34190054099963163 0.4665363947239862 0.3150952613580851
0.3421757599999182 0.46165119687347334 0.2711284807034684
0.34244888599960177 0.46165119687347334 0.23497801660967266
0.34272349299999405 0.45969711773326827 0.22032242305813377
0.3430103779996898 0.4606741573033708 0.2232535417684416
0.34328505899975426 0.4636052760136786 0.2330239374694676
0.34355898099966 0.4655593551538837 0.2525647288715194
0.343832644000031 0.46946751343429405 0.26722032242305804
0.3441062519996194 0.47142159257449934 0.2887151929653151
0.3443797109998741 0.4733756717147044 0.3131411822178798
0.3446526139996422 0.47142159257449934 0.3356130923302394
0.34492672199985464 0.46946751343429405 0.36199316072300936
0.3452007179998873 0.47239863214460187 0.3961895456765998
0.3454766400000153 0.46946751343429405 0.4333170493404983
0.3457509139998365 0.467513434294089 0.46458231558378116
0.34602548399971056 0.4684904738641915 0.48216902784562765
0.34630016599976443 0.4704445530043966 0.4763067904250122
0.34657471699983944 0.4704445530043966 0.4636052760136786
0.3468617689995881 0.4684904738641915 0.46946751343429405
0.34713876499972685 0.4636052760136786 0.47728382999511476
0.3474135579999711 0.4636052760136786 0.495847581827064
0.3476866469995912 0.457743038593063 0.5036638983878847
0.3479613279996556 0.45481191988275516 0.48998534440644836
0.3482410829997207 0.45188080117244755 0.4665363947239862
0.34851600499996493 0.4509037616023448 0.4509037616023448
0.3487912049999977 0.4528578407425501 0.4450415241817294
0.34906488699971305 0.4509037616023448 0.44894968246213973
0.3493403459997353 0.4528578407425501 0.4587200781631655
0.349615526999969 0.44894968246213973 0.47142159257449934
0.3498902269998325 0.4528578407425501 0.495847581827064
0.3501643349995902 0.4479726428920372 0.524181729360039
0.3504391090000354 0.44699560332193444 0.5564240351734244
0.3507138079999095 0.44699560332193444 0.5818270639960919
0.3510025269997641 0.4460185637518319 0.595505617977528
0.3512770779998391 0.44406448461162684 0.5915974596971176
0.3515513149995968 0.44211040547142155 0.578895945285784
0.3518266819996825 0.441133365901319 0.5583781143136297
0.3521013079998738 0.4401563263312165 0.5300439667806547
0.3523768779996317 0.43917928676111373 0.49975574010747437
0.3526508559998547 0.4333170493404983 0.4851001465559355
0.3529245559998344 0.43429408891060084 0.48216902784562765
0.3531991259997085 0.43429408891060084 0.48216902784562765
0.3534741409998787 0.431362970200293 0.4929164631167562
0.35374908099993263 0.42940889106008795 0.5134342940889105
0.3540237629999865 0.42940889106008795 0.5319980459208598
0.3542980549996173 0.4284318514899854 0.5486077186126037
0.35457245899988266 0.42940889106008795 0.5622862725940401
0.3548576769999272 0.43429408891060084 0.5681485100146555
0.3551338399997803 0.43722520762090866 0.5642403517342451
0.3554081329998553 0.43722520762090866 0.5388373229115779
0.3556814809999196 0.43722520762090866 0.5153883732291158
0.3559561069996562 0.4382022471910112 0.5017098192476794
0.35623062099966774 0.4382022471910112 0.4880312652662433
0.35650476599994363 0.43624816805080613 0.47728382999511476
0.3567800029995851 0.4382022471910112 0.45969711773326827
0.35705427699986103 0.441133365901319 0.44894968246213973
0.3573280509999677 0.4401563263312165 0.43624816805080613
0.3576022499996725 0.44406448461162684 0.4255007327796776
0.35787682099999074 0.4460185637518319 0.42159257449926724
0.35852903399973 0.45676599902296044 0.412799218368344
0.35881378899966876 0.4587200781631655 0.39423546653639474
0.35909337799967034 0.4557889594528579 0.36980947728383007
0.35936922599967147 0.45676599902296044 0.35417684416218864
0.3596454629996515 0.4606741573033708 0.3502686858817783
0.35992179300001226 0.45969711773326827 0.348314606741573
0.3601970849999816 0.4606741573033708 0.3551538837322912
0.36047206299963364 0.4655593551538837 0.3659013190034197
0.36074868899959256 0.46165119687347334 0.3639472398632144
0.3610242769996148 0.46165119687347334 0.36687835857352225
0.36129936599991197 0.46458231558378116 0.37274059599413767
0.3615748069996698 0.46165119687347334 0.3834880312652662
0.3618520809995971 0.4636052760136786 0.3961895456765998
0.36212761399974625 0.46165119687347334 0.4137762579384465
0.3624025179997261 0.46458231558378116 0.4284318514899854
0.36267714299992804 0.46165119687347334 0.44211040547142155
0.36295317699978114 0.46165119687347334 0.44992672203224227
0.36322806199996194 0.46458231558378116 0.4557889594528579
0.3635033169998678 0.4655593551538837 0.45676599902296044
0.3637772019997101 0.4704445530043966 0.4528578407425501
0.3640534389996901 0.47239863214460187 0.4401563263312165
0.36432821299968055 0.47435271128480694 0.42256961406936977
0.3646034499997768 0.47142159257449934 0.3981436248168051
0.364878779999799 0.46946751343429405 0.3688324377137273
0.36515446099974724 0.4684904738641915 0.3434294088910601
0.3654293829999915 0.467513434294089 0.32193453834880303
0.36570406499959063 0.4655593551538837 0.3160723009281876
0.36597854199999347 0.4655593551538837 0.31998045920859797
0.36625366799989933 0.4636052760136786 0.3277967757694187
0.3665284979997523 0.4655593551538837 0.33952125061064975
0.36680308599989075 0.4655593551538837 0.36492427943331696
0.36708019399975456 0.46262823644357587 0.4059599413776258
0.3673566339998615 0.46262823644357587 0.44211040547142155
0.36763050099989414 0.4606741573033708 0.47435271128480694
0.3679034789997786 0.4557889594528579 0.5007327796775769
0.36817823399996996 0.4557889594528579 0.5232046897899365
0.36845319299982293 0.4606741573033708 0.5290669272105519
0.36872704099960174 0.45969711773326827 0.5359062042012701
0.3690012779998142 0.45676599902296044 0.5319980459208598
0.36927573799994207 0.45969711773326827 0.524181729360039
0.3695518079998692 0.45969711773326827 0.4929164631167562
0.36982585999976436 0.4557889594528579 0.4557889594528579
0.37010167099970204 0.45188080117244755 0.43624816805080613
0.370378110999809 0.441133365901319 0.4323400097703958
0.3706536810000216 0.43624816805080613 0.43722520762090866
0.3709306409996316 0.431362970200293 0.45188080117244755
0.3712059329996009 0.4323400097703958 0.467513434294089
0.3714803739999297 0.4255007327796776 0.4802149487054226
0.3717554259997087 0.42745481191988266 0.495847581827064
0.37202956999999515 0.431362970200293 0.5095261358085001
0.3723037699996894 0.43722520762090866 0.5192965315095261
0.37257698799976424 0.43624816805080613 0.5319980459208598
0.37285124399977576 0.43917928676111373 0.5476306790425012
0.3731264250000095 0.4430874450415241 0.5574010747435272
0.3734010139996826 0.4430874450415241 0.5681485100146555
0.3736757509996096 0.44211040547142155 0.5798729848558866
0.37394987699963167 0.4382022471910112 0.5876893014167073
0.37422476199981247 0.441133365901319 0.5857352222765022
0.3744999799996549 0.43624816805080613 0.5798729848558866
0.3747751249998146 0.43722520762090866 0.5632633121641426
0.3750534539999535 0.4382022471910112 0.5446995603321934
0.3753288579996479 0.43722520762090866 0.5290669272105519
0.37560390899989216 0.4382022471910112 0.5114802149487054
0.3758791459999884 0.4401563263312165 0.5075720566682951
0.37615267999990465 0.441133365901319 0.5085490962383976
0.37642669399974693 0.4382022471910112 0.522227650219834
0.3767017649997797 0.44211040547142155 0.5290669272105519
0.3769757239997489 0.441133365901319 0.5359062042012701
0.37725001599983443 0.44406448461162684 0.5388373229115779
0.37752625299981446 0.4460185637518319 0.5310210063507572
0.3778003419997731 0.44992672203224227 0.5134342940889105
0.37807491199964716 0.4538348803126526 0.4978016609672691
0.3783497790000183 0.4557889594528579 0.4831460674157304
0.378624459999628 0.4538348803126526 0.4684904738641915
0.3789010679997773 0.45481191988275516 0.45676599902296044
0.37917599000002156 0.45188080117244755 0.4382022471910112
0.37944907899964164 0.4509037616023448 0.41475329750854906
0.3797233709997272 0.44894968246213973 0.38446507083536874
0.37999751500001366 0.4509037616023448 0.3551538837322912
0.38027245599960224 0.45676599902296044 0.3365901319003419
0.3805480629998783 0.457743038593063 0.3307278944797265
0.3808228559996678 0.45969711773326827 0.33170493404982904
0.3810973709996688 0.45969711773326827 0.32975085490962375
0.3813722559998496 0.4587200781631655 0.3209574987787005
0.38164728899982947 0.4606741573033708 0.31900341963849543
0.38192334099994696 0.46165119687347334 0.32486565705911086
0.38219820699987395 0.46262823644357587 0.3356130923302394
0.382472203999896 0.4606741573033708 0.34733756717147046
0.3827473659998759 0.4655593551538837 0.358085002442599
0.3830251770000359 0.4606741573033708 0.3688324377137273
0.3833005249998678 0.4606741573033708 0.37469467513434296
0.3835751699998582 0.46458231558378116 0.3805569125549584
0.38384962899999664 0.46946751343429405 0.3805569125549584
0.38412393999988126 0.467513434294089 0.3883732291157791
0.3843997330000093 0.47142159257449934 0.3854421104054715
0.3846748029995979 0.4665363947239862 0.38153395212506114
0.3849504469999374 0.4684904738641915 0.3737176355642404
0.38522497999974803 0.467513434294089 0.3678553981436248
0.3855021429999397 0.46165119687347334 0.36980947728383007
0.38577789900000425 0.4655593551538837 0.37957987298485585
0.3860527839997303 0.4636052760136786 0.39228138739618945
0.38632670599963603 0.4655593551538837 0.40693698094772834
0.3866009429998485 0.46262823644357587 0.4206155349291647
0.3868764949997967 0.4606741573033708 0.43917928676111373
0.3871514349998506 0.4557889594528579 0.45481191988275516
0.3874259499998516 0.45676599902296044 0.47142159257449934
0.38770131699993726 0.4538348803126526 0.48216902784562765
0.3879755169996315 0.4528578407425501 0.495847581827064
0.3882505499996114 0.4557889594528579 0.5036638983878847
0.3885255089999191 0.457743038593063 0.512457254518808
0.38880017199971917 0.45969711773326827 0.5202735710796287
0.38907476099984706 0.45676599902296044 0.5261358085002443
0.38934947899997496 0.45676599902296044 0.5290669272105519
0.3896236969999336 0.4587200781631655 0.524181729360039
0.3898988969999664 0.45188080117244755 0.5095261358085001
0.3901742819998617 0.44894968246213973 0.48998534440644836
0.39044888999978866 0.44211040547142155 0.4636052760136786
0.3907221819999904 0.44211040547142155 0.4557889594528579
0.39101351199997225 0.43917928676111373 0.4538348803126526
0.39128697099977217 0.4401563263312165 0.4704445530043966
0.39156102299966733 0.43624816805080613 0.4929164631167562
0.391834925999774 0.43722520762090866 0.5075720566682951
0.392110718999902 0.43624816805080613 0.522227650219834
0.392385677999755 0.43722520762090866 0.5280898876404494
0.3926611739998407 0.4430874450415241 0.5349291646311676
0.39293505899968295 0.4401563263312165 0.540791402051783
0.3932095919999483 0.43722520762090866 0.5466536394723986
0.39348521800002345 0.43722520762090866 0.5574010747435272
0.3937610289999611 0.4333170493404983 0.5759648265754762
0.394035840000015 0.431362970200293 0.5925744992672204
0.3943114290000267 0.4303859306301905 0.6023448949682462
0.39458675899959417 0.4303859306301905 0.6042989741084515
0.39487373599968123 0.43429408891060084 0.5857352222765022
0.3951496209997458 0.43722520762090866 0.5534929164631168
0.3954291539998849 0.43917928676111373 0.5095261358085001
0.39570411399972727 0.4401563263312165 0.46262823644357587
0.3959794059996966 0.4401563263312165 0.41963849535906195
0.3962545129998034 0.43624816805080613 0.38641914997557403
0.39652917599960347 0.43624816805080613 0.3610161211529066
0.3968033950000063 0.4382022471910112 0.358085002442599
0.39707689099986965 0.44211040547142155 0.3707865168539326
0.3973506459997225 0.4430874450415241 0.3952125061064973
0.39762464299974454 0.4450415241817294 0.42745481191988266
0.397899230999883 0.45188080117244755 0.457743038593063
0.39817344999983106 0.45188080117244755 0.48216902784562765
0.39845303899983264 0.44894968246213973 0.48998534440644836
0.39873247899959097 0.4538348803126526 0.4909623839765511
0.39902340099979483 0.4509037616023448 0.4811919882755251
0.39929765699980635 0.44894968246213973 0.46946751343429405
0.39957215300000826 0.44699560332193444 0.46458231558378116
0.399846074999914 0.44992672203224227 0.4587200781631655
0.40012003399988316 0.44894968246213973 0.44894968246213973
0.4003932900000109 0.4509037616023448 0.4382022471910112
0.40066745199965226 0.4528578407425501 0.431362970200293
0.40094220799983304 0.4557889594528579 0.42745481191988266
0.4012162039998657 0.457743038593063 0.41963849535906195
0.4014894599999934 0.46165119687347334 0.40889106008793363
0.40176382599975113 0.46165119687347334 0.3981436248168051
0.40203745199960395 0.46262823644357587 0.3786028334147533
0.40231180000000677 0.46165119687347334 0.3531998045920859
0.40258527799960575 0.46262823644357587 0.31216414264777725
0.4028719039997668 0.46458231558378116 0.2730825598436737
0.40314617799958796 0.46458231558378116 0.2515876893014166
0.4034208029997899 0.47142159257449934 0.25647288715192973
0.40369546599958994 0.4665363947239862 0.27015144113336587
0.4039706479998131 0.4684904738641915 0.2906692721055202
0.40424623599983533 0.4655593551538837 0.31704934049829014
0.40452156599985756 0.46946751343429405 0.3434294088910601
0.4047958769997422 0.4704445530043966 0.36492427943331696
0.40507007699989117 0.46946751343429405 0.38153395212506114
0.40534525799967014 0.467513434294089 0.39423546653639474
0.4056181989999459 0.4655593551538837 0.40693698094772834
0.4058916769999996 0.46262823644357587 0.4137762579384465
0.40616496899974663 0.4655593551538837 0.4176844162188569
0.40643927999963125 0.4636052760136786 0.41182217879824123
0.4067126840000128 0.4665363947239862 0.4186614557889594
0.4070002349999413 0.46458231558378116 0.42940889106008795
0.4072738609997941 0.4636052760136786 0.44211040547142155
0.40754850599978454 0.45969711773326827 0.4538348803126526
0.40782281699966916 0.45481191988275516 0.46262823644357587
0.40809686800002964 0.45188080117244755 0.4704445530043966
0.40837141999963933 0.4460185637518319 0.47923790913532005
0.40864574999977776 0.44699560332193444 0.495847581827064
0.40891978299987386 0.44406448461162684 0.512457254518808
0.40919588999986445 0.441133365901319 0.5163654127992183
0.40947036799980197 0.43917928676111373 0.5173424523693209
0.4097441419999086 0.4401563263312165 0.5114802149487054
0.41001834199960285 0.4401563263312165 0.5134342940889105
0.4102919489996566 0.43917928676111373 0.5251587689301416
0.41056538999964687 0.4382022471910112 0.5378602833414754
0.4108382009999332 0.4401563263312165 0.5486077186126037
0.411126363999756 0.44406448461162684 0.5564240351734244
0.4114013599996724 0.4450415241817294 0.5632633121641426
0.4116746519998742 0.44894968246213973 0.5652173913043479
0.4119478889997481 0.4509037616023448 0.5544699560332194
0.41222312599984434 0.4528578407425501 0.5251587689301416
0.4124975859999722 0.4538348803126526 0.48216902784562765
0.4127718599997934 0.45188080117244755 0.4538348803126526
0.4130457259998366 0.44894968246213973 0.4528578407425501
0.4133193519996894 0.4460185637518319 0.4665363947239862
0.4135932739995951 0.4450415241817294 0.4938935026868587
0.4138676959996701 0.44211040547142155 0.5202735710796287
0.41414171099995656 0.441133365901319 0.5349291646311676
0.41441516999975647 0.4401563263312165 0.5427454811919883
0.41468914799997947 0.4401563263312165 0.5427454811919883
0.4149747550000029 0.4430874450415241 0.5476306790425012
0.41525036199982424 0.43917928676111373 0.5446995603321934
0.41552461799983575 0.4401563263312165 0.5486077186126037
0.4157994099996358 0.44211040547142155 0.540791402051783
0.41607368399991174 0.4333170493404983 0.5466536394723986
0.4163489769998705 0.4333170493404983 0.5583781143136297
0.4166242879996389 0.4333170493404983 0.5564240351734244
0.41689891399983026 0.4333170493404983 0.5554469956033219
0.41717355799983125 0.4303859306301905 0.5456765999022961
0.4174481279997053 0.43429408891060084 0.5271128480703469
0.41772269900002357 0.4382022471910112 0.5144113336590133
0.41799641699981294 0.4401563263312165 0.5046409379579873
0.41826956099976087 0.44211040547142155 0.5026868588177822
0.4185440389996984 0.4479726428920372 0.4948705422569615
0.418818034999731 0.4479726428920372 0.4831460674157304
0.4191050679996806 0.44992672203224227 0.457743038593063
0.41937837899968144 0.4528578407425501 0.44406448461162684
0.41965280199974586 0.457743038593063 0.43429408891060084
0.4199259459996938 0.4587200781631655 0.42452369320957506
0.42020047899995916 0.46165119687347334 0.412799218368344
0.4204741789999389 0.47142159257449934 0.3903273082559844
0.42074845299976005 0.4704445530043966 0.36003908158280407
0.42102226399993015 0.47239863214460187 0.3141182217879823
0.42129633399963495 0.46458231558378116 0.27210552027357116
0.4215701269999954 0.4655593551538837 0.23693209574987795
0.4218442530000175 0.46262823644357587 0.21543722520762087
0.42211858199971175 0.45676599902296044 0.21446018563751834
0.4223920790000193 0.4528578407425501 0.22911577918905723
0.422666666999703 0.45188080117244755 0.2506106497313141
0.42294305199993687 0.44699560332193444 0.2730825598436737
0.42321895599980053 0.44699560332193444 0.2867611138251098
0.423493414999939 0.4509037616023448 0.29946262823644365
0.42376831899991885 0.4528578407425501 0.3053248656570591
0.42404301899978236 0.4538348803126526 0.31704934049829014
0.42431760799991025 0.4538348803126526 0.3356130923302394
0.42459230699978434 0.457743038593063 0.3512457254518808
0.4248674329996902 0.4587200781631655 0.3688324377137273
0.4251418549997652 0.46262823644357587 0.3883732291157791
0.4254158889998507 0.45969711773326827 0.40986809965803617
0.4256897549998939 0.4587200781631655 0.42745481191988266
0.4259643629998209 0.45969711773326827 0.43722520762090866
0.4262390629996844 0.46262823644357587 0.43624816805080613
0.42651266999973814 0.4655593551538837 0.4284318514899854
0.4267877590000353 0.46262823644357587 0.4235466536394723
0.4270651249998991 0.457743038593063 0.4303859306301905
0.427340694999657 0.4606741573033708 0.44699560332193444
0.4276152289999118 0.4587200781631655 0.4684904738641915
0.42788996599983875 0.4587200781631655 0.4880312652662433
0.42816427699972337 0.4557889594528579 0.5017098192476794
0.42843805099983 0.457743038593063 0.5105031753786029
0.42871304699974644 0.45969711773326827 0.5114802149487054
0.4289870989996416 0.4587200781631655 0.5114802149487054
0.4292608169998857 0.45676599902296044 0.5095261358085001
0.4295368499997494 0.45481191988275516 0.5085490962383976
0.4298118839997187 0.45188080117244755 0.5105031753786029
0.43008697200002644 0.4538348803126526 0.5144113336590133
0.4303623759997208 0.44894968246213973 0.5163654127992183
0.43063707599958434 0.44699560332193444 0.5144113336590133
0.4309127759997864 0.4430874450415241 0.5134342940889105
0.43118819799974517 0.44211040547142155 0.5192965315095261
0.4314625829997567 0.43917928676111373 0.5271128480703469
0.4317367269995884 0.4401563263312165 0.5359062042012701
0.43201185299994904 0.44211040547142155 0.5368832437713726
0.43228638599975966 0.4430874450415241 0.5368832437713726
0.4325612159996126 0.4430874450415241 0.5388373229115779
0.4328351379999731 0.44211040547142155 0.5427454811919883
0.43310894899968844 0.44211040547142155 0.5427454811919883
0.43338314899983743 0.44211040547142155 0.540791402051783
0.43365708999999697 0.441133365901319 0.5437225207620908
0.4339307899999767 0.43624816805080613 0.540791402051783
0.4342048789999353 0.4382022471910112 0.5359062042012701
0.43448000399985176 0.4382022471910112 0.5310210063507572
0.43475368600002184 0.4382022471910112 0.5310210063507572
0.43502931199964223 0.4382022471910112 0.5280898876404494
0.4353037709997807 0.43624816805080613 0.524181729360039
0.43557813699999315 0.43624816805080613 0.5202735710796287
0.4358524299996134 0.43624816805080613 0.5144113336590133
0.436125981999794 0.4352711284807034 0.5114802149487054
0.43640075599978445 0.431362970200293 0.5105031753786029
0.43667476999962673 0.4284318514899854 0.5114802149487054
0.43694874799984973 0.43429408891060084 0.49975574010747437
0.4372235779997027 0.43917928676111373 0.4938935026868587
0.4374972219998199 0.441133365901319 0.47923790913532005
0.4377710889998525 0.4450415241817294 0.467513434294089
0.43804430699992736 0.44894968246213973 0.46165119687347334
0.4383178399998542 0.4509037616023448 0.44894968246213973
0.4385923179997917 0.4528578407425501 0.4460185637518319
0.4388824989996465 0.4557889594528579 0.4430874450415241
0.4391577359997427 0.45188080117244755 0.43429408891060084
0.439432657999987 0.4509037616023448 0.4284318514899854
0.43970700599993506 0.4538348803126526 0.42159257449926724
0.4399813169998197 0.44992672203224227 0.4079140205178309
0.44025520199966195 0.4538348803126526 0.38446507083536874
0.44052917999988495 0.45676599902296044 0.3639472398632144
0.44080310199979067 0.457743038593063 0.3502686858817783
0.44107654299978094 0.45676599902296044 0.3434294088910601
0.4413491499999509 0.457743038593063 0.3531998045920859
0.44162259099994117 0.4587200781631655 0.36003908158280407
0.441896216999794 0.4587200781631655 0.36980947728383007
0.4421736569997847 0.4587200781631655 0.3834880312652662
0.44244746899994425 0.45969711773326827 0.3952125061064973
0.4427230389997021 0.4606741573033708 0.4010747435271129
0.44300960900000064 0.4636052760136786 0.39716658524670256
0.44328430899986415 0.46165119687347334 0.3981436248168051
0.44355900899972767 0.4636052760136786 0.3883732291157791
0.4438336899997921 0.4636052760136786 0.376648754274548
0.4441081309996662 0.4665363947239862 0.3707865168539326
0.4443822199996248 0.4655593551538837 0.36492427943331696
0.4446564199997738 0.4655593551538837 0.36980947728383007
0.4449297859996477 0.4655593551538837 0.37469467513434296
0.44520441199983907 0.4636052760136786 0.3834880312652662
0.4454785559996708 0.46165119687347334 0.38739618954567656
0.4457520159999149 0.45969711773326827 0.38935026868588185
0.4460261599997466 0.4606741573033708 0.39228138739618945
0.44630078599993794 0.46458231558378116 0.3961895456765998
0.44657492999976967 0.46458231558378116 0.4059599413776258
0.44686044499985655 0.4636052760136786 0.41963849535906195
0.4471366999996462 0.46165119687347334 0.4352711284807034
0.44741075199999614 0.46458231558378116 0.4606741573033708
0.4476858589996482 0.46262823644357587 0.4948705422569615
0.44796139199979734 0.46165119687347334 0.5202735710796287
0.4482367779996821 0.457743038593063 0.5319980459208598
0.44851082899958783 0.457743038593063 0.5427454811919883
0.448786139999811 0.45969711773326827 0.5446995603321934
0.4490600809999705 0.46165119687347334 0.5466536394723986
0.4493342619998657 0.45969711773326827 0.5437225207620908
0.4496083879998878 0.45676599902296044 0.5359062042012701
0.44988458799980435 0.45676599902296044 0.5271128480703469
0.45015917699993224 0.4528578407425501 0.5114802149487054
0.45043511799985936 0.44699560332193444 0.4929164631167562
0.4507100209998498 0.4382022471910112 0.4811919882755251
0.4510000359996411 0.44406448461162684 0.4684904738641915
0.45127480999963154 0.43917928676111373 0.4636052760136786
0.4515487869998651 0.43917928676111373 0.4606741573033708
0.4518226909999612 0.43722520762090866 0.4606741573033708
0.45209781699986706 0.4382022471910112 0.46262823644357587
0.45237086899987844 0.441133365901319 0.46946751343429405
0.45264445699967837 0.441133365901319 0.46262823644357587
0.4529183979998379 0.441133365901319 0.45969711773326827
0.453192745999786 0.441133365901319 0.4509037616023448
0.45346679799968115 0.44211040547142155 0.44699560332193444
0.4537410899997667 0.4352711284807034 0.45481191988275516
0.4540151789997253 0.43429408891060084 0.47142159257449934
0.45428928699993776 0.431362970200293 0.4880312652662433
0.4545626529998117 0.4333170493404983 0.5114802149487054
0.4548368529999607 0.43429408891060084 0.524181729360039
0.4551254789998893 0.4352711284807034 0.5368832437713726
0.45540075299959426 0.43624816805080613 0.5495847581827065
0.4556751009999971 0.43624816805080613 0.550561797752809
0.45594915299989225 0.4382022471910112 0.5427454811919883
0.45622253800002 0.4323400097703958 0.5349291646311676
0.45649708899964025 0.4352711284807034 0.522227650219834
0.45677006699997946 0.4382022471910112 0.5085490962383976
0.4570443779998641 0.4382022471910112 0.4948705422569615
0.45731920799971704 0.43722520762090866 0.4811919882755251
0.4575940370000353 0.4401563263312165 0.46458231558378116
0.4578685339997719 0.44211040547142155 0.44894968246213973
0.45814273299993147 0.44406448461162684 0.43722520762090866
0.45841700699975263 0.4450415241817294 0.4303859306301905
0.4586913549997007 0.44699560332193444 0.42745481191988266
0.45897736999995686 0.4479726428920372 0.43722520762090866
0.45925081099994713 0.4509037616023448 0.45969711773326827
0.45953688099962164 0.4528578407425501 0.48705422569614076
0.4598135989999719 0.4528578407425501 0.5173424523693209
0.46009074399989913 0.4587200781631655 0.5290669272105519
0.46036073999994187 0.4636052760136786 0.5271128480703469
0.4606303659998048 0.4665363947239862 0.5202735710796287
0.4609000659997946 0.47142159257449934 0.5153883732291158
0.46116982099965753 0.4733756717147044 0.4978016609672691
0.4614414839998062 0.47435271128480694 0.48216902784562765
0.46171212899980674 0.47435271128480694 0.45676599902296044
0.4619839580000189 0.4733756717147044 0.43624816805080613
0.4622549729997445 0.46946751343429405 0.403028822667318
0.4625262469999143 0.4684904738641915 0.34440644846116264
0.4627968909999254 0.4665363947239862 0.28187591597459694
0.4630732020000323 0.4606741573033708 0.2359550561797752
0.4633488279996527 0.4587200781631655 0.2056668295065951
0.4636232499997277 0.45676599902296044 0.1783097215437226
0.4638977839999825 0.4538348803126526 0.15779189057156806
0.46417266899970855 0.45481191988275516 0.16951636541279913
0.4644486459997097 0.4557889594528579 0.2056668295065951
0.4647231799999645 0.4587200781631655 0.2515876893014166
0.4649966570000288 0.4606741573033708 0.29262335124572547
0.46527041299987104 0.46165119687347334 0.3238886174890083
0.46554527899979803 0.467513434294089 0.3453834880312652
0.46581975699973555 0.4684904738641915 0.3629702002931119
0.4660944759998529 0.4704445530043966 0.3776257938446508
0.46636797199971625 0.47239863214460187 0.39423546653639474
0.4666420419998758 0.4704445530043966 0.412799218368344
0.46691805699992983 0.4684904738641915 0.4255007327796776
0.46719214599988845 0.46458231558378116 0.4323400097703958
0.4674658459998682 0.46262823644357587 0.44211040547142155
0.46773974899997484 0.4587200781631655 0.44894968246213973
0.468014022999796 0.45969711773326827 0.45188080117244755
0.4682882049996806 0.457743038593063 0.46262823644357587
0.46859305199996015 0.4606741573033708 0.46458231558378116
0.468924195999989 0.4636052760136786 0.4763067904250122
0.4692525249997743 0.4636052760136786 0.49193942354665365
0.4695409469995866 0.46458231558378116 0.5017098192476794
0.46981962799964094 0.4665363947239862 0.5105031753786029
0.4700964759999806 0.46165119687347334 0.5173424523693209
0.47037284199996066 0.4606741573033708 0.524181729360039
0.47064972799989846 0.4557889594528579 0.5319980459208598
0.4709324829996149 0.4528578407425501 0.533952125061065
0.4712104420000287 0.4479726428920372 0.5310210063507572
0.471486585999628 0.44699560332193444 0.533952125061065
0.4717616569996608 0.44211040547142155 0.5427454811919883
0.4720359309999367 0.4382022471910112 0.5574010747435272
0.4723104820000117 0.4401563263312165 0.5720566682950659
0.4725845709999703 0.4382022471910112 0.5867122618466047
0.4728597529997387 0.43917928676111373 0.5828041035661944
0.473137155999666 0.44211040547142155 0.5730337078651686
0.47341261499968823 0.441133365901319 0.5681485100146555
0.4736894999996366 0.441133365901319 0.5701025891548608
0.4739655519997541 0.4430874450415241 0.5730337078651686
0.4742412709997552 0.44211040547142155 0.5798729848558866
0.4745155450000311 0.4430874450415241 0.5837811431362969
0.4747902439999052 0.44406448461162684 0.5837811431362969
0.47506692599972666 0.4430874450415241 0.5798729848558866
0.4753416069997911 0.44406448461162684 0.5710796287249633
0.47561845499967603 0.4450415241817294 0.5622862725940401
0.47589333999985683 0.44699560332193444 0.5681485100146555
0.47616865099962524 0.4460185637518319 0.5896433805569126
0.4764444439997533 0.4450415241817294 0.6091841719589643
0.4767196619995957 0.44699560332193444 0.621885686370298
0.4769954919997872 0.44992672203224227 0.6297020029311187
0.47727113599967197 0.4460185637518319 0.6238397655105032
0.47754603999965184 0.44992672203224227 0.595505617977528
0.477821479999875 0.45188080117244755 0.5681485100146555
0.47809692099963286 0.4528578407425501 0.5192965315095261
0.47837299100001474 0.4509037616023448 0.45188080117244755
0.47864785799993115 0.44699560332193444 0.38641914997557403
0.47892424299971026 0.44699560332193444 0.3180263800683927
0.47920473899966964 0.4450415241817294 0.2506106497313141
0.47948138299989296 0.44211040547142155 0.20664386907669763
0.4797567129999152 0.43722520762090866 0.18710307767464585
0.4800325799997154 0.4382022471910112 0.1831949193942355
0.48030779800001255 0.4430874450415241 0.19882755251587692
0.4805829049996646 0.44699560332193444 0.21543722520762087
0.48085921599977155 0.44699560332193444 0.22716170004885194
0.48113397199995234 0.44699560332193444 0.23790913531998048
0.4814106159997209 0.4460185637518319 0.2584269662921348
0.4816851309997219 0.44406448461162684 0.28187591597459694
0.4819599599995854 0.44406448461162684 0.3053248656570591
0.48223541899960765 0.4460185637518319 0.3277967757694187
0.4825096559998201 0.44406448461162684 0.34929164631167553
0.48278433799987397 0.44992672203224227 0.3659013190034197
0.4830614819998118 0.4557889594528579 0.38641914997557403
0.48333721899962256 0.45676599902296044 0.4049829018075233
0.48361171499982447 0.45676599902296044 0.41670737664875435
0.48388715600003707 0.46165119687347334 0.4264777723497801
0.4841614109996044 0.4636052760136786 0.43429408891060084
0.48443557399968995 0.467513434294089 0.44211040547142155
0.4847121449997758 0.46458231558378116 0.44406448461162684
0.4849869929998931 0.46262823644357587 0.43917928676111373
0.48526291500002117 0.46165119687347334 0.4303859306301905
0.48553837399958866 0.4665363947239862 0.42452369320957506
0.48581314800003383 0.45969711773326827 0.4255007327796776
0.486087958999633 0.46165119687347334 0.431362970200293
0.486362287999782 0.4606741573033708 0.43429408891060084
0.4866376369996033 0.46165119687347334 0.43722520762090866
0.4869152809997104 0.4655593551538837 0.43917928676111373
0.4871905179998066 0.457743038593063 0.45481191988275516
0.4874663099999452 0.45481191988275516 0.47728382999511476
0.4877411949996713 0.4538348803126526 0.49975574010747437
0.4880153029998837 0.45188080117244755 0.5173424523693209
0.48829000299974723 0.45188080117244755 0.5280898876404494
0.48856568399969547 0.4528578407425501 0.5280898876404494
0.48884164299988697 0.4528578407425501 0.5271128480703469
0.48912076899978274 0.4557889594528579 0.524181729360039
0.48939693199963585 0.4557889594528579 0.5212506106497312
0.48967311299975336 0.45676599902296044 0.5173424523693209
0.48994921999974395 0.4528578407425501 0.5163654127992183
0.49022456800003056 0.4460185637518319 0.5359062042012701
0.4905005089999577 0.44211040547142155 0.5466536394723986
0.4907752089998212 0.44211040547142155 0.5417684416218858
0.49105187199984357 0.44211040547142155 0.5153883732291158
0.491326423999908 0.44211040547142155 0.4733756717147044
0.4916004009996868 0.441133365901319 0.4284318514899854
0.4918746199996349 0.4430874450415241 0.38739618954567656
0.4921486159996675 0.44406448461162684 0.3551538837322912
0.49242322299960506 0.44406448461162684 0.33952125061064975
0.49269851600001857 0.44699560332193444 0.3512457254518808
0.4929742159997659 0.44406448461162684 0.3913043478260869
0.49324956399959774 0.441133365901319 0.43429408891060084
0.49352507899993725 0.4450415241817294 0.4763067904250122
0.49379983399967387 0.44406448461162684 0.5085490962383976
0.49407555199968556 0.44211040547142155 0.5271128480703469
0.49434969699996145 0.441133365901319 0.5319980459208598
0.494624525999825 0.4401563263312165 0.5261358085002443
0.4949000779997732 0.43917928676111373 0.5212506106497312
0.4951758339998378 0.43722520762090866 0.5212506106497312
0.4954508480000186 0.4382022471910112 0.5290669272105519
0.4957251959999667 0.441133365901319 0.540791402051783
0.4960002479997456 0.44211040547142155 0.5486077186126037
0.49627541099971495 0.441133365901319 0.5476306790425012
0.4965545739996742 0.4401563263312165 0.5437225207620908
0.49683127399976 0.44211040547142155 0.5251587689301416
0.497106232999613 0.4430874450415241 0.5065950170981925
0.4973815809998996 0.4450415241817294 0.48998534440644836
0.49765676199967857 0.44699560332193444 0.4733756717147044
0.49793205499963733 0.45188080117244755 0.46165119687347334
0.4982069579996278 0.4538348803126526 0.457743038593063
0.49848187999987204 0.4528578407425501 0.45481191988275516
0.49875811699985206 0.44992672203224227 0.44992672203224227
0.4990384279999489 0.4479726428920372 0.4479726428920372
0.4993136279999817 0.44894968246213973 0.44894968246213973
0.49958767999987685 0.4460185637518319 0.44992672203224227
0.49986210199995185 0.44699560332193444 0.4460185637518319
0.5001369869996779 0.4509037616023448 0.43624816805080613
0.5004118169999856 0.4538348803126526 0.41963849535906195
0.5006868499999655 0.457743038593063 0.40889106008793363
0.5009618829999454 0.46165119687347334 0.4079140205178309
0.5012376019999465 0.4606741573033708 0.4040058622374205
0.5015130419997149 0.4636052760136786 0.39423546653639474
0.5017879269998957 0.4655593551538837 0.38739618954567656
0.5020626089999496 0.4665363947239862 0.3678553981436248
0.502337161000014 0.4665363947239862 0.3551538837322912
0.5026122119998035 0.4704445530043966 0.3502686858817783
0.5028888749998259 0.4665363947239862 0.35710796287249624
0.5031652229999963 0.46458231558378116 0.36980947728383007
0.5034400159997858 0.467513434294089 0.3805569125549584
0.5037146049999137 0.4704445530043966 0.37957987298485585
0.5039895079999042 0.4704445530043966 0.3688324377137273
0.5042639299999792 0.47239863214460187 0.3551538837322912
0.5045388519997687 0.47728382999511476 0.33952125061064975
0.5048141819997909 0.4733756717147044 0.3336590131900341
0.5050888079999822 0.4753297508549097 0.3336590131900341
0.5053634889995919 0.47239863214460187 0.3424523693209576
0.505639188999794 0.47142159257449934 0.35710796287249624
0.5059133519998795 0.47142159257449934 0.36687835857352225
0.5061874409998381 0.46946751343429405 0.376648754274548
0.506462029999966 0.4665363947239862 0.3913043478260869
0.5067368039999565 0.46458231558378116 0.4079140205178309
0.5070120219997989 0.46165119687347334 0.4176844162188569
0.507304517999728 0.45969711773326827 0.4303859306301905
0.5076560689999496 0.45481191988275516 0.4479726428920372
0.5079435089996878 0.4538348803126526 0.47142159257449934
0.5082209129996045 0.4538348803126526 0.4909623839765511
0.5084970759999123 0.45481191988275516 0.5036638983878847
0.5087792569997873 0.4509037616023448 0.5144113336590133
0.5090566599997146 0.44894968246213973 0.5212506106497312
0.5093335639999168 0.4538348803126526 0.5202735710796287
0.5096076899999389 0.4538348803126526 0.5232046897899365
0.5098832229996333 0.45481191988275516 0.5232046897899365
0.5101598119999835 0.4509037616023448 0.5349291646311676
0.5104338080000161 0.44992672203224227 0.5446995603321934
0.5107098039998164 0.4450415241817294 0.5495847581827065
0.5110170220000327 0.43917928676111373 0.5534929164631168
0.5112927410000339 0.441133365901319 0.550561797752809
0.5115692179997495 0.43722520762090866 0.550561797752809
0.5118465109999306 0.43722520762090866 0.5486077186126037
0.5121224329996039 0.441133365901319 0.540791402051783
0.5123980219996156 0.43917928676111373 0.5319980459208598
0.5126743329997225 0.4382022471910112 0.533952125061065
0.5129504399997131 0.43624816805080613 0.5280898876404494
0.5132264549997672 0.43917928676111373 0.5251587689301416
0.5135016179997365 0.4382022471910112 0.524181729360039
0.5137773919996107 0.43722520762090866 0.5271128480703469
0.5140528319998339 0.43624816805080613 0.5290669272105519
0.5143300879999515 0.43722520762090866 0.5251587689301416
0.5146057140000266 0.4352711284807034 0.5232046897899365
0.5148833019998165 0.43917928676111373 0.5134342940889105
0.51515957599986 0.4382022471910112 0.5036638983878847
0.5154340349999984 0.44211040547142155 0.48998534440644836
0.5157096979996822 0.4430874450415241 0.4802149487054226
0.5159863059998315 0.4430874450415241 0.4763067904250122
0.5162619309999172 0.4430874450415241 0.47435271128480694
0.5165364459999182 0.441133365901319 0.47239863214460187
0.516811645999951 0.44406448461162684 0.4704445530043966
0.5170877719997407 0.44406448461162684 0.47142159257449934
0.5173627499998474 0.44699560332193444 0.46165119687347334
0.5176377640000283 0.44992672203224227 0.45676599902296044
0.5179127049996168 0.44992672203224227 0.44992672203224227
0.5181892199998401 0.44699560332193444 0.4479726428920372
0.5184640489997037 0.4479726428920372 0.45188080117244755
0.5187393419996624 0.4509037616023448 0.4538348803126526
0.5190165419999175 0.45188080117244755 0.4606741573033708
0.5192920189997494 0.45188080117244755 0.4665363947239862
0.5195682559997294 0.4528578407425501 0.4684904738641915
0.5198437340000055 0.4509037616023448 0.46165119687347334
0.5201196369998797 0.4557889594528579 0.4479726428920372
0.5203945779999231 0.457743038593063 0.4255007327796776
0.5206704629999876 0.46262823644357587 0.40693698094772834
0.5209454219998406 0.46262823644357587 0.39228138739618945
0.5212220669995986 0.4636052760136786 0.38739618954567656
0.5214973590000227 0.46262823644357587 0.38153395212506114
0.5217733370000133 0.4636052760136786 0.3756717147044455
0.5220487769997817 0.4606741573033708 0.3707865168539326
0.5223246259997723 0.45676599902296044 0.36687835857352225
0.5226010849996783 0.4587200781631655 0.3610161211529066
0.522878209999817 0.4587200781631655 0.3551538837322912
0.5231541329999345 0.4587200781631655 0.3512457254518808
0.5234298509999462 0.4557889594528579 0.34733756717147046
0.5237050139999155 0.45969711773326827 0.33463605276013686
0.5239807879997898 0.46165119687347334 0.31900341963849543
0.5242559139996956 0.4665363947239862 0.3082559843673669
0.524532576999718 0.4606741573033708 0.3131411822178798
0.5248082019998037 0.46165119687347334 0.3287738153395212
0.5250827729996672 0.4636052760136786 0.3561309233023937
0.5253582689997529 0.46458231558378116 0.38251099169516367
0.5256333209999866 0.46165119687347334 0.403028822667318
0.5259090389999983 0.4636052760136786 0.4157303370786516
0.5261847199999465 0.467513434294089 0.4059599413776258
0.5264605309998842 0.46946751343429405 0.4049829018075233
0.5267355279997901 0.4665363947239862 0.41670737664875435
0.5270241719999831 0.46458231558378116 0.43429408891060084
0.5273000199999842 0.45969711773326827 0.44992672203224227
0.5275748859999112 0.4557889594528579 0.4606741573033708
0.527850622999722 0.4538348803126526 0.47239863214460187
0.5281264899999769 0.4509037616023448 0.48412310698583294
0.5284004309996817 0.44894968246213973 0.48705422569614076
0.5286756299997251 0.4479726428920372 0.486077186126038
0.5289508119999482 0.44894968246213973 0.486077186126038
0.5292266409996955 0.44894968246213973 0.48412310698583294
0.5295015269998657 0.44699560332193444 0.48216902784562765
0.5297777259997929 0.4479726428920372 0.4851001465559355
0.5300522229999842 0.44992672203224227 0.495847581827064
0.5303266819996679 0.4479726428920372 0.5095261358085001
0.5306017889997747 0.44992672203224227 0.5251587689301416
0.5308779699998922 0.4509037616023448 0.5300439667806547
0.5311501149999458 0.45188080117244755 0.5349291646311676
0.5314204439996502 0.45676599902296044 0.5388373229115779
0.5316924039998412 0.45188080117244755 0.5378602833414754
0.531962769999609 0.4538348803126526 0.5378602833414754
0.5322335259997999 0.45188080117244755 0.533952125061065
0.5325033179997263 0.4509037616023448 0.5202735710796287
0.5327737409998008 0.4509037616023448 0.5065950170981925
0.5330436069998541 0.4450415241817294 0.4880312652662433
0.5333135849996324 0.4430874450415241 0.467513434294089
0.5335843409998233 0.43722520762090866 0.4528578407425501
0.5338556519996018 0.4303859306301905 0.4479726428920372
0.5341257029999724 0.4284318514899854 0.44894968246213973
0.5343953289998353 0.42940889106008795 0.4460185637518319
0.5346657149998464 0.4255007327796776 0.44406448461162684
0.534939617999953 0.4264777723497801 0.4509037616023448
0.5352159849999225 0.42940889106008795 0.4606741573033708
0.5354933509997863 0.42940889106008795 0.4655593551538837
0.5357683469997028 0.42940889106008795 0.4684904738641915
0.5360485839996727 0.4284318514899854 0.48216902784562765
0.5363247289997162 0.42940889106008795 0.4978016609672691
0.5365997059998335 0.42940889106008795 0.512457254518808
0.5368748139999298 0.4323400097703958 0.5173424523693209
0.5371500319997722 0.43429408891060084 0.5192965315095261
0.5374260099997628 0.43917928676111373 0.5105031753786029
0.5377014499999859 0.44406448461162684 0.5007327796775769
0.5379769099999976 0.44211040547142155 0.4948705422569615
0.5382519799995862 0.4460185637518319 0.4880312652662433
0.5385264579999784 0.44699560332193444 0.48216902784562765
0.5388008799995987 0.4460185637518319 0.47728382999511476
0.5390774679999595 0.4509037616023448 0.4665363947239862
0.5393532049997702 0.4528578407425501 0.45969711773326827
0.539628089999951 0.4528578407425501 0.4528578407425501
0.5399038089999522 0.44894968246213973 0.44211040547142155
0.5401781010000377 0.4528578407425501 0.42452369320957506
0.5404519679996156 0.4557889594528579 0.40986809965803617
0.5407262229996377 0.45481191988275516 0.40009770395701016
0.5410012199999983 0.45481191988275516 0.3961895456765998
0.5412766599997667 0.4557889594528579 0.40205178309721545
0.5415523599999688 0.45676599902296044 0.4079140205178309
0.5418257269998321 0.45676599902296044 0.41475329750854906
0.5421000189999177 0.45969711773326827 0.4206155349291647
0.5423742379998657 0.4606741573033708 0.42452369320957506
0.5426495299998351 0.4636052760136786 0.4284318514899854
0.5429263409996565 0.4636052760136786 0.42940889106008795
0.5432024669999009 0.4665363947239862 0.42940889106008795
0.5434775559997433 0.4665363947239862 0.4333170493404983
0.5437521449998712 0.47239863214460187 0.431362970200293
0.5440272149999146 0.47435271128480694 0.4303859306301905
0.544301988999905 0.4704445530043966 0.41963849535906195
0.5445770219998849 0.47142159257449934 0.41670737664875435
0.5448525179999706 0.4655593551538837 0.3981436248168051
0.5451272000000245 0.4655593551538837 0.3786028334147533
0.5454020849997505 0.46458231558378116 0.35906204201270153
0.5456761549999101 0.4606741573033708 0.35710796287249624
0.5459510959999534 0.46458231558378116 0.3737176355642404
0.5462250359996688 0.46458231558378116 0.3913043478260869
0.546500458999617 0.46458231558378116 0.3952125061064973
0.5467750839998189 0.46262823644357587 0.38251099169516367
0.5470515249999153 0.45969711773326827 0.3639472398632144
0.5473263359999692 0.457743038593063 0.3404982901807523
0.5476022029997694 0.4538348803126526 0.33170493404982904
0.5478775879996647 0.4528578407425501 0.32975085490962375
0.5481518059996233 0.45188080117244755 0.3424523693209576
0.5484263759999521 0.45188080117244755 0.3688324377137273
0.5487007249998896 0.44894968246213973 0.403028822667318
0.5489770359999966 0.44992672203224227 0.4235466536394723
0.5492524579999554 0.4460185637518319 0.4352711284807034
0.5495275459998084 0.4479726428920372 0.43722520762090866
0.5498014869999679 0.4450415241817294 0.44699560332193444
0.5500752799998736 0.44406448461162684 0.46946751343429405
0.5503507569997055 0.441133365901319 0.4938935026868587
0.5506260309998652 0.43917928676111373 0.5192965315095261
0.5509024899997712 0.4382022471910112 0.5398143624816805
0.5511776719999943 0.4382022471910112 0.5564240351734244
0.5514525939997839 0.43624816805080613 0.5730337078651686
0.551726645999679 0.43722520762090866 0.5915974596971176
0.5520019749997118 0.4401563263312165 0.5906204201270151
0.5522768599998926 0.43917928676111373 0.578895945285784
0.5525517449996187 0.43624816805080613 0.5642403517342451
0.5528277599996727 0.4382022471910112 0.5525158768930141
0.5531012189999274 0.4352711284807034 0.550561797752809
0.5533765299996958 0.43624816805080613 0.5525158768930141
0.5536512489998131 0.43722520762090866 0.5603321934538348
0.5539255969997612 0.4333170493404983 0.576941866145579
0.5542003149998891 0.43624816805080613 0.5876893014167073
0.5544741449998583 0.431362970200293 0.5925744992672204
0.5547491039997112 0.43624816805080613 0.5935515388373229
0.5550261559997125 0.4382022471910112 0.5876893014167073
0.5553012259997558 0.4401563263312165 0.578895945285784
0.5555757409997568 0.44211040547142155 0.5749877870053737
0.55585118099998 0.441133365901319 0.5759648265754762
0.5561259920000339 0.44211040547142155 0.578895945285784
0.5564014329997917 0.44211040547142155 0.5818270639960919
0.5566752999998243 0.43917928676111373 0.5749877870053737
0.5569502769999417 0.43624816805080613 0.5613092330239375
0.5572242739999638 0.441133365901319 0.5359062042012701
0.557498158999806 0.4430874450415241 0.4909623839765511
0.5577729879996696 0.4460185637518319 0.4479726428920372
0.5580488359996707 0.4479726428920372 0.4049829018075233
0.5583233139996082 0.4528578407425501 0.37274059599413767
0.558597754999937 0.44992672203224227 0.34636052760136793
0.5588870279998446 0.4528578407425501 0.32681973619931615
0.5591644319997613 0.45188080117244755 0.31216414264777725
0.5594394279996777 0.4528578407425501 0.29164631167562294
0.5597149979998903 0.4509037616023448 0.27015144113336587
0.5599889579998489 0.44992672203224227 0.24865657059110902
0.5602655650000088 0.4528578407425501 0.24963361016121155
0.5605403949998617 0.4587200781631655 0.2633121641426477
0.5608141689999684 0.457743038593063 0.29262335124572547
0.5610892939998848 0.4606741573033708 0.3229115779189058
0.5613622539999596 0.4606741573033708 0.35222276502198335
0.5616373979996752 0.4655593551538837 0.37274059599413767
0.5619122639996021 0.46458231558378116 0.38446507083536874
0.5621872049996455 0.46262823644357587 0.4010747435271129
0.5624622749996888 0.4684904738641915 0.40889106008793363
0.5627374199998485 0.46458231558378116 0.41182217879824123
0.563013693999892 0.4655593551538837 0.4108451392281387
0.5632895969997662 0.47142159257449934 0.4049829018075233
0.5635638899998412 0.4684904738641915 0.3932584269662922
0.5638377749996835 0.467513434294089 0.3805569125549584
0.5641120489999594 0.4655593551538837 0.36003908158280407
0.5643865449997065 0.45969711773326827 0.3414753297508548
0.5646603010000035 0.46458231558378116 0.3150952613580851
0.5649347229996238 0.4587200781631655 0.2955544699560333
0.5652094969996142 0.4587200781631655 0.3004396678065462
0.5654833999997209 0.4587200781631655 0.33268197361993157
0.5657594709996374 0.45481191988275516 0.38153395212506114
0.566033984999649 0.45481191988275516 0.4264777723497801
0.5663095369995972 0.4557889594528579 0.4606741573033708
0.5665838299996722 0.457743038593063 0.48900830483634583
0.5668720479998228 0.4587200781631655 0.495847581827064
0.5671481370000038 0.4538348803126526 0.4948705422569615
0.5674237999996876 0.45676599902296044 0.4851001465559355
0.5676995359999637 0.4538348803126526 0.47728382999511476
0.5679752549999648 0.4479726428920372 0.46946751343429405
0.5682498809997014 0.4528578407425501 0.4606741573033708
0.5685253949995968 0.4509037616023448 0.45188080117244755
0.5687999099995977 0.4509037616023448 0.45481191988275516
0.5690740359996198 0.45188080117244755 0.46458231558378116
0.5693492169998535 0.4528578407425501 0.46946751343429405
0.5696260649997384 0.4557889594528579 0.48216902784562765
0.5699019879998559 0.4509037616023448 0.5026868588177822
0.5702877599997009 0.4479726428920372 0.533952125061065
0.570768605000012 0.4460185637518319 0.5476306790425012
0.5711023969997768 0.4479726428920372 0.5544699560332194
0.5714024849999078 0.44699560332193444 0.5564240351734244
0.5717184999998608 0.44211040547142155 0.5486077186126037
0.5720509210000273 0.4430874450415241 0.533952125061065
0.5723478429999886 0.441133365901319 0.5212506106497312
0.5728738539996812 0.4382022471910112 0.5368832437713726
0.5731684049997057 0.43624816805080613 0.5427454811919883
0.5734455499996329 0.43917928676111373 0.5574010747435272
0.5737223789997188 0.43722520762090866 0.5720566682950659
0.5739985609998257 0.43624816805080613 0.578895945285784
0.574277630999859 0.441133365901319 0.5808500244259893
0.5745544789997439 0.4450415241817294 0.5701025891548608
0.5748312339997028 0.44699560332193444 0.5525158768930141
0.5751404709999406 0.45188080117244755 0.5280898876404494
0.5754159859998254 0.4450415241817294 0.5105031753786029
0.5756911299999956 0.44894968246213973 0.49975574010747437
0.5759666259996266 0.4460185637518319 0.4909623839765511
0.5762418259996593 0.4382022471910112 0.4909623839765511
0.5765175259998614 0.43917928676111373 0.486077186126038
0.5767940219998309 0.4401563263312165 0.486077186126038
0.5770690370000011 0.43722520762090866 0.4811919882755251
0.5773445329996321 0.4401563263312165 0.47435271128480694
0.5776199549995908 0.44406448461162684 0.4606741573033708
0.5778957849997823 0.44406448461162684 0.44406448461162684
0.5781716329997835 0.44211040547142155 0.4333170493404983
0.5784467589996893 0.4460185637518319 0.42256961406936977
0.5787232359998598 0.4479726428920372 0.41670737664875435
0.5790131209996616 0.4450415241817294 0.41475329750854906
0.5792895989998215 0.4460185637518319 0.41475329750854906
0.5795647619997908 0.4509037616023448 0.4137762579384465
0.5798399619998236 0.4479726428920372 0.4059599413776258
0.5801160129999516 0.44992672203224227 0.403028822667318
0.5803920839998682 0.457743038593063 0.38935026868588185
0.5806678389999433 0.45969711773326827 0.38641914997557403
0.5809433539998281 0.4606741573033708 0.38641914997557403
0.5812180169996282 0.4636052760136786 0.3883732291157791
0.5814933649999148 0.4665363947239862 0.38935026868588185
0.5817696939998314 0.467513434294089 0.3883732291157791
0.5820471529996212 0.46458231558378116 0.39716658524670256
0.5823221489999924 0.46165119687347334 0.4010747435271129
0.5825978489997397 0.46165119687347334 0.3981436248168051
0.5828817530000379 0.4587200781631655 0.3913043478260869
0.5831578049997006 0.45969711773326827 0.3854421104054715
0.5834333559996594 0.4636052760136786 0.376648754274548
0.5837126859996715 0.467513434294089 0.35906204201270153
0.583987366999736 0.46262823644357587 0.3356130923302394
0.5842619379995995 0.4606741573033708 0.3287738153395212
0.5845362860000023 0.46458231558378116 0.3238886174890083
0.584810411000035 0.457743038593063 0.32486565705911086
0.5850849999997081 0.4606741573033708 0.3258426966292134
0.5853602189999947 0.4636052760136786 0.32681973619931615
0.5856344189996889 0.46165119687347334 0.3336590131900341
0.5861154119997991 0.46946751343429405 0.3414753297508548
0.5865811829999075 0.46458231558378116 0.3502686858817783
0.5868832349997319 0.46262823644357587 0.36980947728383007
0.5871614349998708 0.4636052760136786 0.38935026868588185
0.5874382089996288 0.4587200781631655 0.42452369320957506
0.587713648999852 0.45969711773326827 0.45676599902296044
0.5879891639997368 0.4606741573033708 0.47923790913532005
0.5882646969998859 0.4538348803126526 0.5026868588177822
0.5885412859997814 0.4557889594528579 0.5251587689301416
0.5888154859999304 0.4606741573033708 0.5456765999022961
0.5890904449997834 0.46165119687347334 0.5710796287249633
0.5893669409997528 0.45969711773326827 0.5779189057156815
0.5896428259998174 0.4606741573033708 0.576941866145579
0.5899180819997127 0.4606741573033708 0.5661944308744504
0.5901948559999255 0.45481191988275516 0.5495847581827065
0.5904711479997786 0.4509037616023448 0.5359062042012701
0.590748125999653 0.44894968246213973 0.5183194919394236
0.5910261779999928 0.4450415241817294 0.5056179775280898
0.5913015070000256 0.44699560332193444 0.49193942354665365
0.5915761139999631 0.4430874450415241 0.48705422569614076
0.5918506479997632 0.44406448461162684 0.48998534440644836
0.5921251619997747 0.44211040547142155 0.48705422569614076
0.5923998619996382 0.441133365901319 0.4831460674157304
0.5926756730000307 0.4401563263312165 0.47239863214460187
0.5929510029995981 0.43722520762090866 0.4684904738641915
0.5932255549996626 0.43917928676111373 0.4811919882755251
0.5935009579998223 0.4323400097703958 0.49682462139716654
0.5937766580000243 0.431362970200293 0.5163654127992183
0.5940537839996978 0.431362970200293 0.5319980459208598
0.5943291129997306 0.4264777723497801 0.5398143624816805
0.5946062949997213 0.4264777723497801 0.5280898876404494
0.5948836239999764 0.4284318514899854 0.5163654127992183
0.5951562499999454 0.42452369320957506 0.512457254518808
0.5954280979999567 0.4255007327796776 0.5114802149487054
0.5957000019998304 0.4264777723497801 0.5163654127992183
0.5959719059997042 0.4284318514899854 0.5319980459208598
0.5962432719998105 0.431362970200293 0.5466536394723986
0.5965140089997476 0.4284318514899854 0.5495847581827065
0.596819116000006 0.4323400097703958 0.5691255495847583
0.5971217789997354 0.43624816805080613 0.5906204201270151
0.5975308289998793 0.44211040547142155 0.5925744992672204
0.5978427689997261 0.4479726428920372 0.5779189057156815
0.5981325979996654 0.4528578407425501 0.5622862725940401
0.5984077979996982 0.45188080117244755 0.5446995603321934
0.5986802019997413 0.4528578407425501 0.5173424523693209
0.598982474999957 0.44992672203224227 0.4684904738641915
0.5992664899999909 0.44894968246213973 0.4108451392281387
0.5995425969999815 0.44992672203224227 0.3453834880312652
0.5998237779999727 0.4509037616023448 0.2867611138251098
0.600099403999593 0.44992672203224227 0.2515876893014166
0.6003741039999113 0.45676599902296044 0.23497801660967266
0.6006487849999758 0.4557889594528579 0.24670249145090373
0.6009237629996278 0.457743038593063 0.26722032242305804
0.6011977779999143 0.4557889594528579 0.29164631167562294
0.60147169999982 0.46458231558378116 0.31021006350757196
0.6017465109998739 0.4587200781631655 0.3287738153395212
0.602022580999801 0.45969711773326827 0.34929164631167553
0.6023037629997816 0.4606741573033708 0.36980947728383007
0.6027634600000056 0.46165119687347334 0.3854421104054715
0.6030721039996934 0.46458231558378116 0.3932584269662922
0.6033522669999911 0.467513434294089 0.39912066438690763
0.6036286700000346 0.46946751343429405 0.39912066438690763
0.6039049259998137 0.4704445530043966 0.3952125061064973
0.6041802739996456 0.46946751343429405 0.39716658524670256
0.6044560659997842 0.4704445530043966 0.403028822667318
0.6047310999997535 0.4704445530043966 0.39912066438690763
0.605005928999617 0.4665363947239862 0.4010747435271129
0.6052803329998824 0.4684904738641915 0.3981436248168051
0.6055556439996508 0.4665363947239862 0.3961895456765998
0.6058263989998522 0.4684904738641915 0.3913043478260869
0.6060986729999058 0.4704445530043966 0.38641914997557403
0.6063702989999911 0.4655593551538837 0.40009770395701016
0.6066417949996321 0.4636052760136786 0.4235466536394723
0.6069174209997072 0.46458231558378116 0.44894968246213973
0.6071931399997084 0.4636052760136786 0.4665363947239862
0.6074681169998257 0.4606741573033708 0.4948705422569615
0.6077431139997316 0.457743038593063 0.5212506106497312
0.6080174429998806 0.4587200781631655 0.5378602833414754
0.6082928649998394 0.457743038593063 0.5515388373229115
0.6085665279997556 0.45969711773326827 0.5534929164631168
0.6088418389999788 0.457743038593063 0.5554469956033219
0.6091169829996943 0.45969711773326827 0.5476306790425012
0.6093920719999915 0.457743038593063 0.524181729360039
0.6096674939999502 0.4528578407425501 0.5017098192476794
0.6099424169997292 0.4538348803126526 0.47435271128480694
0.6102169679998042 0.4460185637518319 0.45188080117244755
0.6104916309996042 0.44406448461162684 0.441133365901319
0.610766737999711 0.4430874450415241 0.42159257449926724
0.6110435679997863 0.441133365901319 0.4010747435271129
0.6113173229996391 0.441133365901319 0.3961895456765998
0.6115910049998092 0.4401563263312165 0.4049829018075233
0.6118649459999688 0.4382022471910112 0.42452369320957506
0.612138904999938 0.43722520762090866 0.4528578407425501
0.6124136419998649 0.43624816805080613 0.48216902784562765
0.6126878789996226 0.43722520762090866 0.5085490962383976
0.6129620599999726 0.4323400097703958 0.5329750854909623
0.6132365929997832 0.4333170493404983 0.5476306790425012
