0 0.38935026868588185 0.45188080117244755
0.0014989510000305017 0.38641914997557403 0.4509037616023448
0.0017827969995778403 0.39228138739618945 0.4528578407425501
0.002106271999764431 0.39716658524670256 0.4587200781631655
0.0024164879996533273 0.39912066438690763 0.467513434294089
0.0026741120000224328 0.39423546653639474 0.4684904738641915
0.002906458999859751 0.39228138739618945 0.46946751343429405
0.0031372319999718457 0.38935026868588185 0.4655593551538837
0.003361356999448617 0.38446507083536874 0.45481191988275516
0.003693016999932297 0.3834880312652662 0.44406448461162684
0.003935067999918829 0.38153395212506114 0.43722520762090866
0.004165358999671298 0.3854421104054715 0.431362970200293
0.004391540000142413 0.38251099169516367 0.431362970200293
0.0046214240001063445 0.38739618954567656 0.4430874450415241
0.005153356999471725 0.39912066438690763 0.4538348803126526
0.00539092700000765 0.40205178309721545 0.45969711773326827
0.005760011999882408 0.4157303370786516 0.4636052760136786
0.0062120759994286345 0.4264777723497801 0.46458231558378116
0.006437887000174669 0.4333170493404983 0.4733756717147044
0.006660270999418572 0.43917928676111373 0.4782608695652173
0.007157445999837364 0.4450415241817294 0.47923790913532005
0.007413643999825581 0.4460185637518319 0.4782608695652173
0.007633917999555706 0.4460185637518319 0.4782608695652173
0.007862024000132806 0.44406448461162684 0.4802149487054226
0.008088648999546422 0.44406448461162684 0.48216902784562765
0.008309125999403477 0.4401563263312165 0.4929164631167562
0.008541935999346606 0.43429408891060084 0.4978016609672691
0.008797468000011577 0.4255007327796776 0.49975574010747437
0.009062721999725909 0.4255007327796776 0.49975574010747437
0.009419398999853001 0.4303859306301905 0.4929164631167562
0.009724337999614363 0.44406448461162684 0.4763067904250122
0.010045942000033392 0.457743038593063 0.45969711773326827
0.010377323999819055 0.4763067904250122 0.44894968246213973
0.010698354999476578 0.49193942354665365 0.43917928676111373
0.010978589999467658 0.5007327796775769 0.43429408891060084
0.011223159000110172 0.5085490962383976 0.431362970200293
0.011439709999649494 0.5085490962383976 0.431362970200293
0.01164218699977937 0.5085490962383976 0.43722520762090866
0.011843182999655255 0.5105031753786029 0.43722520762090866
0.012043474999700265 0.5056179775280898 0.4460185637518319
0.012298210999688308 0.4978016609672691 0.45481191988275516
0.01255448299980344 0.49877870053737183 0.4557889594528579
0.012776607999512635 0.49682462139716654 0.4528578407425501
0.012992918999771064 0.4948705422569615 0.4479726428920372
0.013207950999458262 0.495847581827064 0.44211040547142155
0.01342311400003382 0.49877870053737183 0.4382022471910112
0.01364644200020848 0.49975574010747437 0.4352711284807034
0.01386638199983281 0.49877870053737183 0.43722520762090866
0.014104765999945812 0.5036638983878847 0.4401563263312165
0.014322799000183295 0.5007327796775769 0.44406448461162684
0.014538868999807164 0.5017098192476794 0.44406448461162684
0.014749586000107229 0.5017098192476794 0.4430874450415241
0.015006395999989763 0.5036638983878847 0.44406448461162684
0.015235594999467139 0.5036638983878847 0.44406448461162684
0.015456830999937665 0.5056179775280898 0.44894968246213973
0.01566751199970895 0.5056179775280898 0.44406448461162684
0.015876581999691552 0.5095261358085001 0.4401563263312165
0.016084039999441302 0.5075720566682951 0.43917928676111373
0.016296517999762727 0.5075720566682951 0.4352711284807034
0.016506068999660783 0.5075720566682951 0.4333170493404983
0.01671767599964369 0.5036638983878847 0.4323400097703958
0.016940411999712524 0.5046409379579873 0.4206155349291647
0.01714398199965217 0.5026868588177822 0.41963849535906195
0.017351791999317356 0.4978016609672691 0.4186614557889594
0.01758393599993724 0.495847581827064 0.4157303370786516
0.01780613499977335 0.4909623839765511 0.4137762579384465
0.018269829000018944 0.486077186126038 0.41182217879824123
0.01857480399939959 0.4782608695652173 0.4137762579384465
0.018910445000074105 0.4733756717147044 0.41670737664875435
0.019251863999670604 0.46165119687347334 0.4235466536394723
0.019515154999680817 0.44894968246213973 0.42940889106008795
0.01977827900009288 0.4401563263312165 0.43722520762090866
0.020086069000171847 0.4264777723497801 0.44211040547142155
0.020386673999382765 0.41670737664875435 0.44699560332193444
0.020695463999800268 0.40986809965803617 0.4460185637518319
0.02100442099981592 0.4049829018075233 0.4460185637518319
0.021272081999995862 0.4049829018075233 0.4460185637518319
0.021618148999550613 0.4108451392281387 0.44211040547142155
0.021973956999318034 0.4176844162188569 0.441133365901319
0.022281636000116123 0.42256961406936977 0.4430874450415241
0.022528907999912917 0.4255007327796776 0.4430874450415241
0.022772124999391963 0.4284318514899854 0.4430874450415241
0.023005305999504344 0.4323400097703958 0.44699560332193444
0.023265263000212144 0.4264777723497801 0.45188080117244755
0.02354127599937783 0.4206155349291647 0.4557889594528579
0.023799863999556692 0.4206155349291647 0.4557889594528579
0.02404158099943743 0.4059599413776258 0.45676599902296044
0.024284817000079784 0.40205178309721545 0.45969711773326827
0.024560699999710778 0.39228138739618945 0.46262823644357587
0.02483769399987068 0.38641914997557403 0.467513434294089
0.02514446599980147 0.3776257938446508 0.4704445530043966
0.025479995999376115 0.3688324377137273 0.47923790913532005
0.026002058999438304 0.3551538837322912 0.4831460674157304
0.026620769000146538 0.3356130923302394 0.4851001465559355
0.02701409400015109 0.3307278944797265 0.4851001465559355
0.027302661999783595 0.3287738153395212 0.48412310698583294
0.02759560100003 0.32681973619931615 0.4811919882755251
0.028002776999528578 0.33268197361993157 0.4831460674157304
0.02826636499958113 0.3356130923302394 0.4811919882755251
0.028532452000035846 0.3424523693209576 0.4811919882755251
0.02879203900010907 0.35222276502198335 0.4782608695652173
0.02904692299944145 0.36980947728383007 0.4782608695652173
0.029353989999435726 0.39716658524670256 0.47435271128480694
0.029670298999917577 0.43722520762090866 0.46262823644357587
0.02999627299959684 0.4763067904250122 0.45676599902296044
0.030215583999961382 0.4909623839765511 0.44992672203224227
0.030416616999900725 0.5105031753786029 0.44699560332193444
0.030614038999374316 0.5202735710796287 0.4430874450415241
0.030824996999399445 0.5290669272105519 0.44211040547142155
0.03104488200006017 0.5368832437713726 0.4430874450415241
0.03125321100014844 0.5388373229115779 0.4430874450415241
0.031464409999898635 0.540791402051783 0.44992672203224227
0.03173051599969767 0.5349291646311676 0.45188080117244755
0.031986639999558975 0.5378602833414754 0.457743038593063
0.03220700600013515 0.540791402051783 0.45676599902296044
0.032420575999822177 0.5437225207620908 0.45676599902296044
0.032870121999621915 0.5417684416218858 0.4587200781631655
0.03313500500007649 0.5359062042012701 0.457743038593063
0.033400388999325514 0.5280898876404494 0.4557889594528579
0.03361734699956287 0.5271128480703469 0.457743038593063
0.033828490999439964 0.5251587689301416 0.4528578407425501
0.03407713399974455 0.5271128480703469 0.4479726428920372
0.03429877799953829 0.5310210063507572 0.44211040547142155
0.034671214999434596 0.5319980459208598 0.4333170493404983
0.03496785700008331 0.5319980459208598 0.4284318514899854
0.03520607399968867 0.5300439667806547 0.4284318514899854
0.03542068099977769 0.524181729360039 0.4235466536394723
0.0356351390000782 0.5183194919394236 0.42256961406936977
0.03585833799934335 0.5153883732291158 0.4176844162188569
0.03608299999996234 0.5114802149487054 0.41475329750854906
0.03630931099996815 0.5095261358085001 0.40889106008793363
0.03652739900007873 0.5085490962383976 0.4040058622374205
0.03674217199932173 0.5075720566682951 0.40009770395701016
0.036969148999560275 0.5046409379579873 0.3981436248168051
0.037247735999699216 0.4978016609672691 0.39912066438690763
0.037512490000153775 0.495847581827064 0.40009770395701016
0.037732318000053056 0.4929164631167562 0.4049829018075233
0.038002053999662166 0.48705422569614076 0.4079140205178309
0.03822662299990043 0.4831460674157304 0.412799218368344
0.039018698999825574 0.4450415241817294 0.40205178309721545
0.039512892999482574 0.4264777723497801 0.4079140205178309
0.0397486289994049 0.412799218368344 0.4108451392281387
0.03996793899932527 0.4049829018075233 0.41963849535906195
0.04018558299958386 0.4010747435271129 0.4323400097703958
0.04039681899939751 0.39912066438690763 0.441133365901319
0.04066427699945052 0.39423546653639474 0.4587200781631655
0.04098893699938344 0.3932584269662922 0.4684904738641915
0.041229394999390934 0.39228138739618945 0.47728382999511476
0.04152492599951074 0.4059599413776258 0.47728382999511476
0.04184115999942151 0.42159257449926724 0.47239863214460187
0.04249805400013429 0.4509037616023448 0.46458231558378116
0.042968673999894236 0.4684904738641915 0.46262823644357587
0.04326275999937934 0.4753297508549097 0.47239863214460187
0.043473996999637166 0.47923790913532005 0.4704445530043966
0.04368982599953597 0.4753297508549097 0.4753297508549097
0.0439104689994565 0.47435271128480694 0.4811919882755251
0.044160409000141954 0.4684904738641915 0.48412310698583294
0.04444831000000704 0.4606741573033708 0.4948705422569615
0.044733007999639085 0.4538348803126526 0.495847581827064
0.04506276099982642 0.43722520762090866 0.49682462139716654
0.04534855099973356 0.4176844162188569 0.4978016609672691
0.045575305999591365 0.40205178309721545 0.4938935026868587
0.045799263999469986 0.3903273082559844 0.4929164631167562
0.046220236999943154 0.38153395212506114 0.4851001465559355
0.04645426899969607 0.37176355642403514 0.4831460674157304
0.046671172000060324 0.37176355642403514 0.47728382999511476
0.046916425999370404 0.3688324377137273 0.47435271128480694
0.04714877300011722 0.3707865168539326 0.47239863214460187
0.04735656499997276 0.36492427943331696 0.46946751343429405
0.0475604690000182 0.3639472398632144 0.46946751343429405
0.04776666799989471 0.3629702002931119 0.4753297508549097
0.04796595999960118 0.36492427943331696 0.47728382999511476
0.04817156699937186 0.36492427943331696 0.48216902784562765
0.04838371099958749 0.3688324377137273 0.4851001465559355
0.04860290999931749 0.3756717147044455 0.486077186126038
0.048813665000125184 0.37469467513434296 0.4851001465559355
0.04902980899987597 0.38153395212506114 0.48216902784562765
0.04924865599969053 0.38739618954567656 0.47923790913532005
0.04946444799952587 0.39228138739618945 0.47435271128480694
0.049692831999891496 0.4079140205178309 0.467513434294089
0.049972918999628746 0.4303859306301905 0.45188080117244755
0.05026546899989626 0.46262823644357587 0.441133365901319
0.05051387099956628 0.4684904738641915 0.42940889106008795
0.050768606000019645 0.4880312652662433 0.4186614557889594
0.0510360270000092 0.4909623839765511 0.40986809965803617
0.05131703999995807 0.4938935026868587 0.40889106008793363
0.05160310799965373 0.495847581827064 0.40986809965803617
0.051867991000108304 0.49193942354665365 0.40889106008793363
0.05218622599932132 0.4909623839765511 0.412799218368344
0.053135817000111274 0.48900830483634583 0.43624816805080613
0.05380485899968335 0.47728382999511476 0.44406448461162684
0.054729098999814596 0.47728382999511476 0.4665363947239862
0.055429139999432664 0.48705422569614076 0.4460185637518319
0.055863742999463284 0.4948705422569615 0.4333170493404983
0.056218439000076614 0.5036638983878847 0.42159257449926724
0.05652667300000758 0.512457254518808 0.4157303370786516
0.05680364899944834 0.522227650219834 0.4108451392281387
0.05704840399994282 0.5290669272105519 0.4079140205178309
0.05732789800003957 0.5290669272105519 0.40889106008793363
0.057636279999314866 0.5271128480703469 0.40693698094772834
0.058006550999380124 0.5173424523693209 0.4049829018075233
0.058357079999950656 0.5114802149487054 0.4049829018075233
0.05864944499990088 0.495847581827064 0.4059599413776258
0.05890210599955026 0.48900830483634583 0.4049829018075233
0.05912256499959767 0.4831460674157304 0.4108451392281387
0.05932120899979054 0.4704445530043966 0.41182217879824123
0.05951855700004671 0.4538348803126526 0.4255007327796776
0.05971632999990106 0.4382022471910112 0.431362970200293
0.0599126779998187 0.42159257449926724 0.4479726428920372
0.06019796799955657 0.39912066438690763 0.45676599902296044
0.06040153799949621 0.38641914997557403 0.467513434294089
0.06059910800013313 0.3834880312652662 0.4763067904250122
0.060801103999438055 0.37957987298485585 0.48216902784562765
0.061000507999779074 0.3776257938446508 0.48705422569614076
0.06120072599969717 0.3776257938446508 0.48705422569614076
0.0614032399998905 0.3805569125549584 0.48412310698583294
0.06160127299972373 0.38641914997557403 0.4811919882755251
0.06180002800010698 0.3932584269662922 0.4733756717147044
0.06206331900011719 0.4010747435271129 0.4704445530043966
0.06226522199995088 0.4079140205178309 0.47142159257449934
0.06246342199938226 0.41182217879824123 0.4704445530043966
0.06266108499949041 0.41963849535906195 0.4733756717147044
0.06285961799949291 0.4255007327796776 0.47239863214460187
0.06305711400000291 0.4303859306301905 0.47728382999511476
0.06325460900006874 0.431362970200293 0.47728382999511476
0.06345240199971158 0.4333170493404983 0.4831460674157304
0.06365039799948136 0.4333170493404983 0.48216902784562765
0.063847911999801 0.43624816805080613 0.48705422569614076
0.06404624100014189 0.4401563263312165 0.486077186126038
0.06424508899999637 0.44699560332193444 0.4831460674157304
0.06444365900006233 0.45676599902296044 0.4782608695652173
0.06465546999970684 0.4636052760136786 0.46946751343429405
0.06487179899977491 0.4704445530043966 0.46262823644357587
0.0650796089994401 0.4733756717147044 0.4557889594528579
0.06528006799999275 0.47239863214460187 0.45188080117244755
0.06547734200012201 0.46946751343429405 0.4460185637518319
0.06567500399978599 0.45969711773326827 0.441133365901319
0.06587311099974613 0.4450415241817294 0.43722520762090866
0.06611403199985944 0.4333170493404983 0.44211040547142155
0.06631754699992598 0.41963849535906195 0.4430874450415241
0.06653393099986715 0.40889106008793363 0.4538348803126526
0.0667470560001675 0.39423546653639474 0.46262823644357587
0.06695523700000194 0.3903273082559844 0.46946751343429405
0.06715501100006804 0.37957987298485585 0.4763067904250122
0.06735441399996489 0.37957987298485585 0.4831460674157304
0.06755287299984047 0.36980947728383007 0.4811919882755251
0.06775153599937767 0.3659013190034197 0.48705422569614076
0.06795323499954975 0.3659013190034197 0.4880312652662433
0.06815491599991219 0.3629702002931119 0.4938935026868587
0.06835396799942828 0.3659013190034197 0.5007327796775769
0.06855470399932528 0.3688324377137273 0.5056179775280898
0.06875203399977181 0.37274059599413767 0.5105031753786029
0.06894860400007019 0.37957987298485585 0.512457254518808
0.06914585899994563 0.38935026868588185 0.5163654127992183
0.06934629899933498 0.3981436248168051 0.5232046897899365
0.06955751699933899 0.40986809965803617 0.5251587689301416
0.06975803200020891 0.4264777723497801 0.5251587689301416
0.06999171200004639 0.44406448461162684 0.5251587689301416
0.0701987080001345 0.4587200781631655 0.522227650219834
0.07039757399979862 0.47142159257449934 0.5114802149487054
0.07059756999933597 0.48216902784562765 0.5046409379579873
0.07079695499942318 0.4909623839765511 0.48705422569614076
0.07104435699966416 0.49975574010747437 0.47142159257449934
0.07124201999977231 0.5036638983878847 0.4587200781631655
0.07143844199981686 0.5046409379579873 0.45188080117244755
0.07163545599996723 0.5026868588177822 0.441133365901319
0.07183252599952539 0.49682462139716654 0.4352711284807034
0.07203115199990862 0.4948705422569615 0.42745481191988266
0.07222859200010134 0.4880312652662433 0.4255007327796776
0.072424625000167 0.4851001465559355 0.42159257449926724
0.07262167599947134 0.486077186126038 0.41475329750854906
0.07281904299998132 0.4880312652662433 0.4137762579384465
0.07301589100006822 0.48900830483634583 0.41475329750854906
0.07321249799952056 0.4909623839765511 0.412799218368344
0.07340962299986131 0.4929164631167562 0.4108451392281387
0.07360587899984239 0.49975574010747437 0.4137762579384465
0.07380355999976018 0.49877870053737183 0.412799218368344
0.07401666599980672 0.5007327796775769 0.4108451392281387
0.07443371299996215 0.49877870053737183 0.4157303370786516
0.07469598599982419 0.4978016609672691 0.4186614557889594
0.07489864799936186 0.4978016609672691 0.4206155349291647
0.07509749600012583 0.49877870053737183 0.4235466536394723
0.0752981589994306 0.49682462139716654 0.4206155349291647
0.0754960989997926 0.49877870053737183 0.4176844162188569
0.07569305800006987 0.4978016609672691 0.41670737664875435
0.07588997999937419 0.5065950170981925 0.41475329750854906
0.076088382999842 0.5017098192476794 0.40986809965803617
0.07629110099969694 0.5026868588177822 0.4079140205178309
0.07649126399974193 0.5007327796775769 0.4059599413776258
0.07668831499995576 0.5017098192476794 0.4040058622374205
0.07688547799989465 0.49877870053737183 0.4049829018075233
0.0770819549998123 0.49682462139716654 0.39912066438690763
0.07727982199958205 0.4938935026868587 0.39716658524670256
0.0774786319998384 0.4909623839765511 0.39716658524670256
0.07767601700015803 0.4909623839765511 0.4010747435271129
0.07787342099982197 0.4880312652662433 0.4108451392281387
0.07809689699934097 0.4909623839765511 0.41670737664875435
0.07829468999989331 0.48998534440644836 0.42256961406936977
0.07849283399991691 0.48900830483634583 0.4303859306301905
0.0786905699997078 0.4880312652662433 0.4352711284807034
0.07888721499966778 0.4802149487054226 0.44211040547142155
0.07908446999954322 0.47728382999511476 0.44211040547142155
0.0792842249993555 0.4636052760136786 0.4460185637518319
0.07948285099973873 0.4509037616023448 0.4479726428920372
0.07968027199967764 0.4401563263312165 0.45188080117244755
0.07987660199978563 0.4284318514899854 0.4538348803126526
0.080076282999471 0.4186614557889594 0.4538348803126526
0.08027288999983284 0.41475329750854906 0.45676599902296044
0.0804706270000679 0.41182217879824123 0.45969711773326827
0.08066775199949916 0.4079140205178309 0.4606741573033708
0.08087193299979845 0.4079140205178309 0.4655593551538837
0.08106968799984315 0.4059599413776258 0.46262823644357587
0.08126698099931673 0.4040058622374205 0.457743038593063
0.08146388400018623 0.4079140205178309 0.4528578407425501
0.08166006499959622 0.41182217879824123 0.4450415241817294
0.0818568939994293 0.4157303370786516 0.43429408891060084
0.08205779799936863 0.42159257449926724 0.4264777723497801
0.08225577499979408 0.4264777723497801 0.41963849535906195
0.08245895599975483 0.42745481191988266 0.412799218368344
0.08265932199992676 0.4303859306301905 0.4108451392281387
0.08285668899952725 0.42940889106008795 0.40986809965803617
0.08305455499976233 0.4323400097703958 0.4157303370786516
0.0832565139999133 0.4303859306301905 0.4255007327796776
0.08345387999997911 0.4303859306301905 0.4352711284807034
0.08365322800000285 0.42745481191988266 0.44406448461162684
0.08385077899947646 0.42452369320957506 0.4528578407425501
0.0840612379997765 0.4176844162188569 0.4606741573033708
0.08426065999992716 0.4108451392281387 0.46458231558378116
0.08445795199986605 0.40693698094772834 0.4665363947239862
0.08465598499969929 0.3854421104054715 0.4880312652662433
0.08516125200003444 0.376648754274548 0.48705422569614076
0.08538058100020862 0.37176355642403514 0.49193942354665365
0.08559572499962087 0.36687835857352225 0.495847581827064
0.08582409100017685 0.3610161211529066 0.49975574010747437
0.08619295399967086 0.3610161211529066 0.4978016609672691
0.0864307080000799 0.36199316072300936 0.495847581827064
0.08665186999951402 0.3629702002931119 0.4948705422569615
0.08686551399932796 0.3629702002931119 0.4938935026868587
0.08709080500011623 0.36492427943331696 0.4880312652662433
0.08733961500001897 0.36687835857352225 0.486077186126038
0.0875806289996035 0.36687835857352225 0.47923790913532005
0.08780458699948213 0.3678553981436248 0.47728382999511476
0.08803745299974253 0.36980947728383007 0.47728382999511476
0.08824970800014853 0.37176355642403514 0.47923790913532005
0.08844864799993957 0.37469467513434296 0.4802149487054226
0.08864671799983626 0.3737176355642404 0.49193942354665365
0.08893960099976539 0.3786028334147533 0.49975574010747437
0.0891831139997521 0.3834880312652662 0.5017098192476794
0.08939803599969309 0.3903273082559844 0.5007327796775769
0.08961290199931682 0.40205178309721545 0.4938935026868587
0.08982784199997695 0.4264777723497801 0.4665363947239862
0.09020498199970461 0.4528578407425501 0.44894968246213973
0.09043092199954117 0.46262823644357587 0.43624816805080613
0.09065521399952559 0.4704445530043966 0.42452369320957506
0.09090774600008444 0.4811919882755251 0.4176844162188569
0.09113222299947665 0.48900830483634583 0.4137762579384465
0.09134723699935421 0.49682462139716654 0.4108451392281387
0.09156886199980363 0.5007327796775769 0.412799218368344
0.0917869309996604 0.5075720566682951 0.41475329750854906
0.09199855699989712 0.5095261358085001 0.4186614557889594
0.09224034799990477 0.5163654127992183 0.4235466536394723
0.09251689800021268 0.5212506106497312 0.4235466536394723
0.0927971510000134 0.5359062042012701 0.4264777723497801
0.09306303499943169 0.5456765999022961 0.4264777723497801
0.0933080479999262 0.5632633121641426 0.42452369320957506
0.09360613499939063 0.5691255495847583 0.4255007327796776
0.09394255400002294 0.578895945285784 0.42452369320957506
0.09418893800011574 0.5808500244259893 0.4284318514899854
0.09443074699993304 0.578895945285784 0.4323400097703958
0.09466887199960183 0.576941866145579 0.44211040547142155
0.09494756999993115 0.5720566682950659 0.4460185637518319
0.09520041699943249 0.5681485100146555 0.4528578407425501
0.09542657899964979 0.5632633121641426 0.4538348803126526
0.09563496299961116 0.5583781143136297 0.4528578407425501
0.09583455199935997 0.5486077186126037 0.45188080117244755
0.09603354799946828 0.5417684416218858 0.45188080117244755
0.09623054399980902 0.5319980459208598 0.4509037616023448
0.09648509399994509 0.5251587689301416 0.4509037616023448
0.09668581200003246 0.5173424523693209 0.4538348803126526
0.0968836599995484 0.5114802149487054 0.45676599902296044
0.09708619299999555 0.5095261358085001 0.4587200781631655
0.09728572599942709 0.5065950170981925 0.457743038593063
0.09748466600012762 0.5026868588177822 0.4528578407425501
0.09768164399974921 0.4978016609672691 0.4460185637518319
0.09787917699941318 0.4948705422569615 0.441133365901319
0.09811046799950418 0.48998534440644836 0.4352711284807034
0.09831124199990882 0.4938935026868587 0.431362970200293
0.09851094099940383 0.48998534440644836 0.42745481191988266
0.09870871499970235 0.48900830483634583 0.4264777723497801
0.09890600699964125 0.48900830483634583 0.4176844162188569
0.09910342900002433 0.4802149487054226 0.4176844162188569
0.09930059199996322 0.4684904738641915 0.41963849535906195
0.09949688399956358 0.4557889594528579 0.42452369320957506
0.09969306499988306 0.43722520762090866 0.42940889106008795
0.09989096899971628 0.4255007327796776 0.43429408891060084
0.1000882049993379 0.4137762579384465 0.4382022471910112
0.10028614600014407 0.40693698094772834 0.4401563263312165
0.10048258599999826 0.39912066438690763 0.4382022471910112
0.10067915599938715 0.39716658524670256 0.43624816805080613
0.10087633700004517 0.39716658524670256 0.4333170493404983
0.10107359299945529 0.4010747435271129 0.4323400097703958
0.10127234799983853 0.4049829018075233 0.4255007327796776
0.10146989899931214 0.412799218368344 0.42256961406936977
0.10166656199999125 0.41963849535906195 0.41475329750854906
0.10186327999963396 0.4235466536394723 0.412799218368344
0.10208383099961793 0.4303859306301905 0.40986809965803617
0.10231386299983569 0.4323400097703958 0.4079140205178309
0.10257096899931639 0.43722520762090866 0.4079140205178309
0.10283431599964388 0.4382022471910112 0.40986809965803617
0.10308097699999053 0.4382022471910112 0.4137762579384465
0.10332860200014693 0.43429408891060084 0.4255007327796776
0.10359526299998834 0.42745481191988266 0.43917928676111373
0.1038551470001039 0.4186614557889594 0.45969711773326827
0.10420082499967975 0.4108451392281387 0.4929164631167562
0.10455459500008146 0.4059599413776258 0.5056179775280898
0.10491486599948985 0.3981436248168051 0.5251587689301416
0.10527146899949003 0.38739618954567656 0.5398143624816805
0.10572844199941756 0.376648754274548 0.5349291646311676
0.10623724600009155 0.3737176355642404 0.5105031753786029
0.1066470149999077 0.36492427943331696 0.5026868588177822
0.106939305999731 0.35906204201270153 0.48998534440644836
0.10720876300001692 0.3561309233023937 0.4831460674157304
0.10748620199956349 0.3561309233023937 0.48216902784562765
0.1077499369994257 0.35222276502198335 0.4782608695652173
0.10800809800002753 0.35222276502198335 0.47923790913532005
0.10826876000010088 0.35906204201270153 0.4753297508549097
0.1085464210000282 0.3531998045920859 0.46946751343429405
0.10882848900018871 0.3551538837322912 0.4655593551538837
0.10906178099958197 0.3561309233023937 0.46165119687347334
0.10928388699994684 0.3629702002931119 0.4636052760136786
0.10950421599955007 0.3678553981436248 0.4528578407425501
0.10971491500004049 0.3805569125549584 0.4450415241817294
0.1099767059995429 0.40009770395701016 0.4303859306301905
0.11023220100014441 0.42159257449926724 0.42256961406936977
0.11053663900020183 0.4460185637518319 0.4176844162188569
0.11086805800005095 0.4733756717147044 0.4157303370786516
0.11115184899972519 0.4929164631167562 0.4186614557889594
0.11138675099937245 0.5065950170981925 0.4186614557889594
0.1116120429996954 0.5144113336590133 0.42256961406936977
0.11191968499952054 0.5163654127992183 0.4255007327796776
0.11217017999933887 0.5163654127992183 0.4323400097703958
0.11237480499949015 0.5134342940889105 0.4333170493404983
0.11258067099970503 0.512457254518808 0.4382022471910112
0.1127813889997924 0.5163654127992183 0.44211040547142155
0.11298412599990115 0.5163654127992183 0.4430874450415241
0.11318649199984065 0.5144113336590133 0.4430874450415241
0.11339308100014023 0.5192965315095261 0.44406448461162684
0.11362027999985003 0.5212506106497312 0.44406448461162684
0.11383383100019273 0.5280898876404494 0.44406448461162684
0.11409575099969516 0.5319980459208598 0.44894968246213973
0.11433357999976579 0.5329750854909623 0.4450415241817294
0.11454726099964319 0.533952125061065 0.4479726428920372
0.11475897799937229 0.5319980459208598 0.44406448461162684
0.11497253000015917 0.5271128480703469 0.44211040547142155
0.11521941299997707 0.5280898876404494 0.4460185637518319
0.11546900099983759 0.5192965315095261 0.43917928676111373
0.11572706999959337 0.5261358085002443 0.43624816805080613
0.11599382299937133 0.5183194919394236 0.4333170493404983
0.11623242999939976 0.5202735710796287 0.43722520762090866
0.11650675700002466 0.5192965315095261 0.4460185637518319
0.11694589599937899 0.5173424523693209 0.4606741573033708
0.11719003999951383 0.5144113336590133 0.4665363947239862
0.1174347010000929 0.5134342940889105 0.467513434294089
0.11766082599933725 0.5144113336590133 0.4684904738641915
0.11788333999993483 0.5144113336590133 0.4587200781631655
0.11818796399984421 0.5065950170981925 0.44894968246213973
0.1184758649997093 0.5095261358085001 0.43917928676111373
0.11871986000005563 0.5095261358085001 0.4264777723497801
0.1189678359996833 0.5075720566682951 0.41963849535906195
0.11919007300002704 0.5026868588177822 0.4137762579384465
0.11942354900020291 0.4938935026868587 0.40986809965803617
0.11964404499940429 0.4802149487054226 0.412799218368344
0.11986716999945202 0.4655593551538837 0.42159257449926724
0.12008446199979517 0.45481191988275516 0.41670737664875435
0.12029247600003146 0.44406448461162684 0.41963849535906195
0.12049426799967478 0.4352711284807034 0.4255007327796776
0.12069615299969882 0.4284318514899854 0.4303859306301905
0.12089892599942687 0.41670737664875435 0.4333170493404983
0.12111981099951663 0.4079140205178309 0.43624816805080613
0.12132536199987953 0.40693698094772834 0.441133365901319
0.12152565399992454 0.40205178309721545 0.44211040547142155
0.12172592800015991 0.4040058622374205 0.4401563263312165
0.12194371999976283 0.4040058622374205 0.4430874450415241
0.12218065900015063 0.40205178309721545 0.44894968246213973
0.12238311799956136 0.40205178309721545 0.44699560332193444
0.12258407699937379 0.39912066438690763 0.4460185637518319
0.12278531399988424 0.39912066438690763 0.4460185637518319
0.12298758699944301 0.3981436248168051 0.4450415241817294
0.12318826799946692 0.39716658524670256 0.4401563263312165
0.12338841200016759 0.3952125061064973 0.43429408891060084
0.12358975999995891 0.3961895456765998 0.4284318514899854
0.12379108899949642 0.40009770395701016 0.42745481191988266
0.12399328899937245 0.403028822667318 0.4303859306301905
0.12419434000003093 0.3981436248168051 0.4333170493404983
0.12439918800009764 0.39912066438690763 0.44211040547142155
0.12460096199993131 0.39912066438690763 0.4460185637518319
0.12481369799934328 0.40205178309721545 0.4528578407425501
0.12501624899960007 0.39912066438690763 0.4665363947239862
0.12521739299972978 0.39423546653639474 0.4802149487054226
0.12541890800002875 0.3883732291157791 0.495847581827064
0.1256198109995239 0.38153395212506114 0.5046409379579873
0.12581980699997075 0.376648754274548 0.5134342940889105
0.126028450999911 0.3737176355642404 0.522227650219834
0.1262680760000876 0.3688324377137273 0.5271128480703469
0.12646740499985754 0.36492427943331696 0.5319980459208598
0.1266647530001137 0.36199316072300936 0.5319980459208598
0.12686324900005275 0.35710796287249624 0.5232046897899365
0.12706061500011856 0.3512457254518808 0.5163654127992183
0.12725849999969796 0.348314606741573 0.5075720566682951
0.12745538499984832 0.3453834880312652 0.49682462139716654
0.12765441699957591 0.34733756717147046 0.4909623839765511
0.1278631539998969 0.3434294088910601 0.4851001465559355
0.12806098300006852 0.3414753297508548 0.4811919882755251
0.12825920100021904 0.3414753297508548 0.47239863214460187
0.12845756800015806 0.3453834880312652 0.46946751343429405
0.12865535999935673 0.3453834880312652 0.46946751343429405
0.12885176300005696 0.348314606741573 0.47239863214460187
0.1290482959993824 0.35222276502198335 0.46946751343429405
0.12924523699985002 0.358085002442599 0.4665363947239862
0.12944234399947163 0.3659013190034197 0.4684904738641915
0.1296405989996856 0.3805569125549584 0.46458231558378116
0.12983796499975142 0.39423546653639474 0.457743038593063
0.13003886899969075 0.41182217879824123 0.44992672203224227
0.13023691999933362 0.431362970200293 0.4401563263312165
0.13043523099986487 0.4528578407425501 0.43429408891060084
0.13063250399954995 0.4636052760136786 0.42159257449926724
0.13083044499944663 0.4811919882755251 0.4157303370786516
0.13102777399944898 0.4938935026868587 0.40889106008793363
0.1312259919995995 0.5065950170981925 0.4049829018075233
0.13142333999985567 0.524181729360039 0.4010747435271129
0.13162002099943493 0.5261358085002443 0.39912066438690763
0.13181725799950073 0.5329750854909623 0.39912066438690763
0.13201392100017983 0.5378602833414754 0.403028822667318
0.13221049099956872 0.540791402051783 0.4079140205178309
0.1324086159993385 0.5437225207620908 0.40889106008793363
0.13260674199955247 0.5486077186126037 0.4137762579384465
0.13280575599947042 0.5534929164631168 0.4235466536394723
0.13300267799968424 0.5583781143136297 0.4264777723497801
0.1331999519998135 0.5574010747435272 0.431362970200293
0.13339774399992166 0.5613092330239375 0.43624816805080613
0.13359677700009343 0.5574010747435272 0.43917928676111373
0.1337931429998207 0.5564240351734244 0.441133365901319
0.13400671299950773 0.5534929164631168 0.441133365901319
0.13420317199961573 0.5456765999022961 0.4450415241817294
0.1344007050001892 0.5388373229115779 0.4509037616023448
0.13459738599976845 0.5290669272105519 0.4606741573033708
0.13479723399996146 0.5192965315095261 0.45676599902296044
0.13499558199964667 0.5134342940889105 0.45969711773326827
0.1351934849999452 0.5114802149487054 0.46262823644357587
0.1353907769998841 0.5046409379579873 0.45969711773326827
0.1355909949998022 0.5017098192476794 0.45676599902296044
0.13578817599955073 0.5007327796775769 0.4509037616023448
0.13598854300016683 0.5007327796775769 0.44699560332193444
0.13618570499966154 0.5017098192476794 0.4401563263312165
0.13638290499966388 0.49877870053737183 0.43624816805080613
0.13657980799962388 0.5007327796775769 0.4303859306301905
0.1367764709993935 0.5036638983878847 0.42940889106008795
0.13697367099939584 0.5046409379579873 0.42745481191988266
0.1373879399998259 0.5114802149487054 0.4333170493404983
0.13760484300019016 0.5065950170981925 0.4352711284807034
0.13780298700021376 0.5085490962383976 0.43624816805080613
0.1380174830001124 0.5046409379579873 0.43917928676111373
0.13821640399964963 0.49975574010747437 0.43624816805080613
0.13841410399982124 0.4938935026868587 0.4382022471910112
0.1386111739993794 0.495847581827064 0.43624816805080613
0.13881328099978418 0.4880312652662433 0.4382022471910112
0.13901301799978683 0.4831460674157304 0.4401563263312165
0.1392102359995988 0.4763067904250122 0.4382022471910112
0.13940697299949534 0.4655593551538837 0.441133365901319
0.13960380199932843 0.4509037616023448 0.44406448461162684
0.1398015389995635 0.44406448461162684 0.44699560332193444
0.13999927499935438 0.431362970200293 0.44699560332193444
0.14019721600016055 0.42256961406936977 0.44894968246213973
0.14039487799982453 0.4206155349291647 0.4479726428920372
0.1405917819993192 0.4137762579384465 0.4460185637518319
0.14078944399989268 0.41182217879824123 0.45188080117244755
0.1409881809995568 0.4049829018075233 0.44992672203224227
0.14118610300010914 0.403028822667318 0.4460185637518319
0.14138357999945583 0.4040058622374205 0.4430874450415241
0.14158064999992348 0.4079140205178309 0.43722520762090866
0.14177764599935472 0.4108451392281387 0.4323400097703958
0.1419961229994442 0.4157303370786516 0.42745481191988266
0.14219410099940433 0.41670737664875435 0.4303859306301905
0.14239085600002 0.4235466536394723 0.4303859306301905
0.142586721999578 0.42159257449926724 0.4352711284807034
0.14283123599943792 0.42452369320957506 0.4401563263312165
0.1430290829994192 0.42452369320957506 0.44699560332193444
0.14322532000005594 0.42452369320957506 0.45481191988275516
0.14342166799997358 0.42745481191988266 0.46458231558378116
0.14361868200012395 0.4255007327796776 0.46946751343429405
0.1438190119997671 0.431362970200293 0.4733756717147044
0.1440157850001924 0.4382022471910112 0.4733756717147044
0.14421309599947563 0.4450415241817294 0.4733756717147044
0.14440933300011238 0.4460185637518319 0.4763067904250122
0.14460562499971275 0.44894968246213973 0.47239863214460187
0.1448033619999478 0.44699560332193444 0.4655593551538837
0.14499976499973855 0.44406448461162684 0.4655593551538837
0.14519646499957162 0.4382022471910112 0.46262823644357587
0.14539683099974354 0.4323400097703958 0.45969711773326827
0.14559412299968244 0.4284318514899854 0.4587200781631655
0.14579043399953662 0.4186614557889594 0.4557889594528579
0.14601524399949994 0.41182217879824123 0.457743038593063
0.14621535100013716 0.40205178309721545 0.4509037616023448
0.14641421799933596 0.39912066438690763 0.4509037616023448
0.14661175099990942 0.3952125061064973 0.44894968246213973
0.14680802400016546 0.3854421104054715 0.44992672203224227
0.14700492799966014 0.37957987298485585 0.45188080117244755
0.1472049979993244 0.3737176355642404 0.4509037616023448
0.14740310500019405 0.3678553981436248 0.44992672203224227
0.14759989699996368 0.3639472398632144 0.4509037616023448
0.14780006000000867 0.36492427943331696 0.4509037616023448
0.14799696299996867 0.3629702002931119 0.45188080117244755
0.14819566299956932 0.3659013190034197 0.45481191988275516
0.1483920840000792 0.3688324377137273 0.46262823644357587
0.14858845099934115 0.36980947728383007 0.4811919882755251
0.14905944099973567 0.3756717147044455 0.4909623839765511
0.14927647399963462 0.38153395212506114 0.4938935026868587
0.14949011699991388 0.38446507083536874 0.48998534440644836
0.14972427900011098 0.3961895456765998 0.4811919882755251
0.14996947799954796 0.4059599413776258 0.4704445530043966
0.15019569600008253 0.4235466536394723 0.4538348803126526
0.15041030199972738 0.43624816805080613 0.4401563263312165
0.15063248299975385 0.4538348803126526 0.4303859306301905
0.1508466639998005 0.47239863214460187 0.43429408891060084
0.15107565899961628 0.48216902784562765 0.4303859306301905
0.1513116539999828 0.48900830483634583 0.441133365901319
0.15152398299960623 0.4978016609672691 0.4557889594528579
0.15174162699986482 0.5026868588177822 0.47239863214460187
0.15195319699978427 0.5056179775280898 0.4880312652662433
0.15217178500006412 0.5007327796775769 0.49975574010747437
0.15238620599939168 0.495847581827064 0.5046409379579873
0.1526004239995018 0.4929164631167562 0.5056179775280898
0.15281890099959128 0.4938935026868587 0.5026868588177822
0.15304060000016761 0.4929164631167562 0.4948705422569615
0.15343790699989768 0.5056179775280898 0.4753297508549097
0.15375999299976684 0.5085490962383976 0.47142159257449934
0.15411220799978764 0.5144113336590133 0.4655593551538837
0.15435516599973198 0.5183194919394236 0.45481191988275516
0.15456951299984212 0.5173424523693209 0.4450415241817294
0.15479643500020757 0.5212506106497312 0.43624816805080613
0.1550172079996628 0.5212506106497312 0.4255007327796776
0.15526712900009443 0.522227650219834 0.4176844162188569
0.15552741999999853 0.5232046897899365 0.40986809965803617
0.15573735999987548 0.522227650219834 0.4049829018075233
0.15594911500011222 0.5153883732291158 0.403028822667318
0.1561654990000534 0.5095261358085001 0.39716658524670256
0.15637719799997285 0.5075720566682951 0.40205178309721545
0.15657643499980622 0.49682462139716654 0.39423546653639474
0.156786079000085 0.4948705422569615 0.39912066438690763
0.15699433400004636 0.4880312652662433 0.40009770395701016
0.15719771899966872 0.4880312652662433 0.403028822667318
0.15739506599948072 0.4851001465559355 0.4040058622374205
0.1575962469996739 0.4811919882755251 0.4079140205178309
0.1577945949993591 0.48216902784562765 0.41182217879824123
0.1580377749996842 0.4851001465559355 0.4176844162188569
0.1582424930002162 0.48412310698583294 0.42452369320957506
0.15844234099949972 0.4880312652662433 0.431362970200293
0.15864405899992562 0.4909623839765511 0.4333170493404983
0.1588413519993992 0.4938935026868587 0.43722520762090866
0.1590515139996569 0.4929164631167562 0.4382022471910112
0.15925451000020985 0.4938935026868587 0.4450415241817294
0.15945239499978925 0.4880312652662433 0.4509037616023448
0.15964985299979162 0.4851001465559355 0.4528578407425501
0.15984777499943448 0.4782608695652173 0.4587200781631655
0.16004651200000808 0.4733756717147044 0.46262823644357587
0.16024560000005295 0.46458231558378116 0.46165119687347334
0.1604462629993577 0.45969711773326827 0.4704445530043966
0.16064340699995228 0.45481191988275516 0.4753297508549097
0.16084114400018734 0.44992672203224227 0.4811919882755251
0.16103843600012624 0.441133365901319 0.486077186126038
0.16123556200000166 0.4382022471910112 0.4851001465559355
0.1614330759994118 0.43624816805080613 0.4811919882755251
0.16163105399937194 0.43917928676111373 0.46946751343429405
0.16182895699967048 0.43917928676111373 0.4587200781631655
0.16203702699931455 0.44211040547142155 0.44699560332193444
0.1622354669998458 0.44211040547142155 0.4382022471910112
0.16243790699991223 0.441133365901319 0.4284318514899854
0.16263581099974544 0.43917928676111373 0.4235466536394723
0.16283302899955743 0.42940889106008795 0.4303859306301905
0.163031487999433 0.42745481191988266 0.41963849535906195
0.16323057599947788 0.4264777723497801 0.41963849535906195
0.163428553999438 0.4206155349291647 0.4157303370786516
0.16362684599971544 0.42159257449926724 0.4137762579384465
0.1638245639996967 0.4186614557889594 0.4157303370786516
0.16402220799955103 0.4206155349291647 0.4176844162188569
0.16421966699999757 0.41475329750854906 0.41963849535906195
0.16441799599942897 0.4108451392281387 0.43917928676111373
0.16461523299949476 0.40889106008793363 0.43429408891060084
0.164813544000026 0.40693698094772834 0.43624816805080613
0.16501176200017653 0.3981436248168051 0.4430874450415241
0.1652093689999674 0.3932584269662922 0.44894968246213973
0.16540636499939865 0.38935026868588185 0.4538348803126526
0.16560458299954917 0.38641914997557403 0.45481191988275516
0.16580265299944585 0.3805569125549584 0.4587200781631655
0.16601274099957664 0.3805569125549584 0.4655593551538837
0.16621153399955801 0.3776257938446508 0.46165119687347334
0.1664091960001315 0.3776257938446508 0.46165119687347334
0.16664621000018087 0.376648754274548 0.4636052760136786
0.16714029200011282 0.37176355642403514 0.47142159257449934
0.16736706499978027 0.36687835857352225 0.47435271128480694
0.16756858000007924 0.36687835857352225 0.47923790913532005
0.16776651999953174 0.3659013190034197 0.48216902784562765
0.1679651089998515 0.36492427943331696 0.4938935026868587
0.16816321599981165 0.3678553981436248 0.4938935026868587
0.16835993399945437 0.3688324377137273 0.5026868588177822
0.16855635599949892 0.3707865168539326 0.5026868588177822
0.16875449999952252 0.3707865168539326 0.5046409379579873
0.1689510509995671 0.3756717147044455 0.5056179775280898
0.16914825099956943 0.38153395212506114 0.5056179775280898
0.16934563599988905 0.38641914997557403 0.5036638983878847
0.16954227999940485 0.3961895456765998 0.5046409379579873
0.16973838699959742 0.4010747435271129 0.495847581827064
0.16994766100015113 0.41963849535906195 0.48998534440644836
0.17014995299996372 0.43429408891060084 0.4851001465559355
0.17034974499983946 0.4509037616023448 0.4753297508549097
0.17054898199967283 0.4636052760136786 0.4636052760136786
0.17074751499967533 0.4763067904250122 0.4587200781631655
0.17094656599965674 0.4831460674157304 0.4460185637518319
0.17114639499959594 0.4938935026868587 0.4352711284807034
0.17134540999995806 0.49877870053737183 0.42940889106008795
0.17154342399953748 0.49877870053737183 0.42452369320957506
0.1717409389993918 0.49682462139716654 0.4264777723497801
0.17193847199996526 0.4948705422569615 0.431362970200293
0.17218413299997337 0.48998534440644836 0.44699560332193444
0.17240409199985152 0.4851001465559355 0.4509037616023448
0.1726169759995173 0.48216902784562765 0.46262823644357587
0.17282875000000786 0.48412310698583294 0.457743038593063
0.17304657899967424 0.4851001465559355 0.4538348803126526
0.17327357399972243 0.4802149487054226 0.4460185637518319
0.17349760599972797 0.48705422569614076 0.43722520762090866
0.17372726799931115 0.4851001465559355 0.43429408891060084
0.1739822629997434 0.4880312652662433 0.42940889106008795
0.17424286899949948 0.4880312652662433 0.4235466536394723
0.17446634599946265 0.48900830483634583 0.4186614557889594
0.17469219299982797 0.49193942354665365 0.4157303370786516
0.17493857699992077 0.4948705422569615 0.4108451392281387
0.17520266399969842 0.49975574010747437 0.40693698094772834
0.17556934200001706 0.5026868588177822 0.4059599413776258
0.17594077800004015 0.49682462139716654 0.4049829018075233
0.1762380319996737 0.4938935026868587 0.4079140205178309
0.1765273769997293 0.4880312652662433 0.412799218368344
0.17680059399936 0.48900830483634583 0.42256961406936977
0.17709569899943745 0.4880312652662433 0.42452369320957506
0.177349397999933 0.4880312652662433 0.4303859306301905
0.17759250400013116 0.486077186126038 0.4303859306301905
0.1778129619997344 0.48705422569614076 0.4323400097703958
0.17815434400017693 0.48900830483634583 0.43429408891060084
0.1784069499999532 0.4938935026868587 0.43917928676111373
0.17861883499972464 0.495847581827064 0.4382022471910112
0.1788301449996652 0.49877870053737183 0.4401563263312165
0.1790466219999871 0.5036638983878847 0.4382022471910112
0.17924622899954556 0.5026868588177822 0.43722520762090866
0.1794451139994635 0.49682462139716654 0.441133365901319
0.17964320200007933 0.48412310698583294 0.44406448461162684
0.17984060599974327 0.47142159257449934 0.45188080117244755
0.18003789799968217 0.4557889594528579 0.4587200781631655
0.18023591200017108 0.4401563263312165 0.45676599902296044
0.18043233400021563 0.4264777723497801 0.46165119687347334
0.18063229299968953 0.40986809965803617 0.4704445530043966
0.18098841600021842 0.3903273082559844 0.47728382999511476
0.18121985499965376 0.38251099169516367 0.4831460674157304
0.18143855400012399 0.3786028334147533 0.48412310698583294
0.18165451299955748 0.38446507083536874 0.4880312652662433
0.1818745079999644 0.38935026868588185 0.4851001465559355
0.18216441000004124 0.39228138739618945 0.4831460674157304
0.18239031299981434 0.40009770395701016 0.47435271128480694
0.18259988199952204 0.40009770395701016 0.46946751343429405
0.18279850799990527 0.4079140205178309 0.46165119687347334
0.18299598500016145 0.4108451392281387 0.4528578407425501
0.18319400000018504 0.41475329750854906 0.45188080117244755
0.18339351399936277 0.4186614557889594 0.43917928676111373
0.18358976999934384 0.42159257449926724 0.4323400097703958
0.18379232099960063 0.42745481191988266 0.42159257449926724
0.18399087199941278 0.4352711284807034 0.41963849535906195
0.18419214599998668 0.4430874450415241 0.4108451392281387
0.18438895700001012 0.4528578407425501 0.40986809965803617
0.18460348899952805 0.46165119687347334 0.4137762579384465
0.1848325399996611 0.4665363947239862 0.42256961406936977
0.18508451700017758 0.4655593551538837 0.4333170493404983
0.1853476589994898 0.4636052760136786 0.44699560332193444
0.18560400600017601 0.45188080117244755 0.457743038593063
0.18586827799936145 0.43722520762090866 0.47239863214460187
0.18618008700013888 0.42256961406936977 0.48705422569614076
0.18642813699989347 0.4137762579384465 0.4909623839765511
0.1866614099999424 0.4059599413776258 0.4929164631167562
0.18690760899971792 0.40889106008793363 0.4948705422569615
0.1871804369993697 0.3961895456765998 0.495847581827064
0.1874726340001871 0.38446507083536874 0.4909623839765511
0.18782403400018666 0.37274059599413767 0.4880312652662433
0.18816960099957214 0.3659013190034197 0.48900830483634583
0.1885412229994472 0.36199316072300936 0.486077186126038
0.18898536300002888 0.358085002442599 0.48705422569614076
0.1893684659999053 0.36980947728383007 0.4811919882755251
0.18980230899978778 0.3952125061064973 0.44699560332193444
0.1906416249994436 0.47435271128480694 0.4255007327796776
0.19111426299969025 0.5026868588177822 0.42256961406936977
0.19161130900010903 0.5065950170981925 0.4284318514899854
0.19203522599946155 0.49975574010747437 0.43917928676111373
0.19242943999961426 0.48998534440644836 0.44699560332193444
0.192755156000203 0.48998534440644836 0.4479726428920372
0.1931738140001471 0.48900830483634583 0.44992672203224227
0.19349189999957161 0.495847581827064 0.44699560332193444
0.1938014489996931 0.5017098192476794 0.4479726428920372
0.19413229400015553 0.5153883732291158 0.4460185637518319
0.19439202899957309 0.524181729360039 0.441133365901319
0.19466091300000699 0.5300439667806547 0.4401563263312165
0.19491924100020697 0.5368832437713726 0.44406448461162684
0.19517047599947546 0.5359062042012701 0.4401563263312165
0.19543597099982435 0.5398143624816805 0.43624816805080613
0.19573596499958512 0.5368832437713726 0.4333170493404983
0.19595123799990688 0.5319980459208598 0.4284318514899854
0.19615366000016365 0.5300439667806547 0.42745481191988266
0.19635908199961705 0.5280898876404494 0.42745481191988266
0.19656161399962002 0.5290669272105519 0.42745481191988266
0.19676351799989789 0.5271128480703469 0.4284318514899854
0.19696988399937254 0.5251587689301416 0.4303859306301905
0.19718480499977886 0.5290669272105519 0.4235466536394723
0.19740446800005884 0.5349291646311676 0.42452369320957506
0.1976169999998092 0.5349291646311676 0.42256961406936977
0.19783086600000388 0.5359062042012701 0.4206155349291647
0.19811056399976223 0.5280898876404494 0.4206155349291647
0.19839735499954259 0.5173424523693209 0.4157303370786516
0.1986505719996785 0.5105031753786029 0.4176844162188569
0.19890802899953997 0.4948705422569615 0.4157303370786516
0.1991634679998242 0.48705422569614076 0.4137762579384465
0.19947385099931125 0.467513434294089 0.42159257449926724
0.19982569599960698 0.44992672203224227 0.43624816805080613
0.20116398299978755 0.3786028334147533 0.4460185637518319
0.20161488099984126 0.38641914997557403 0.4430874450415241
0.20184506199984753 0.38935026868588185 0.44211040547142155
0.20211211199966783 0.3952125061064973 0.44211040547142155
0.2023308289999477 0.4010747435271129 0.4323400097703958
0.20306311100011953 0.41475329750854906 0.4333170493404983
0.20329197599949111 0.4108451392281387 0.43624816805080613
0.20354350799971144 0.4108451392281387 0.4430874450415241
0.2037864849999096 0.40986809965803617 0.4509037616023448
0.20400285100004112 0.40986809965803617 0.457743038593063
0.20422416099972907 0.4108451392281387 0.467513434294089
0.20467246699990937 0.4176844162188569 0.4880312652662433
0.20492229499996029 0.412799218368344 0.4938935026868587
0.20513027200013312 0.4049829018075233 0.495847581827064
0.2053310089995648 0.3981436248168051 0.49877870053737183
0.20553430099971592 0.38641914997557403 0.5026868588177822
0.20573435200003587 0.3834880312652662 0.4978016609672691
0.20597512499989534 0.3756717147044455 0.49877870053737183
0.20617712100010976 0.3756717147044455 0.5007327796775769
0.20637819100011257 0.37469467513434296 0.49877870053737183
0.2065776499994172 0.3707865168539326 0.5007327796775769
0.206776496999737 0.3688324377137273 0.5007327796775769
0.20697534499959147 0.36492427943331696 0.495847581827064
0.2071744149998267 0.35906204201270153 0.48998534440644836
0.20737489299972367 0.35222276502198335 0.4831460674157304
0.20757412900002237 0.3453834880312652 0.4782608695652173
0.20777249499951722 0.3414753297508548 0.4704445530043966
0.20797186199979478 0.3404982901807523 0.4665363947239862
0.20817402400007268 0.33756717147044446 0.46165119687347334
0.20837942700018175 0.3404982901807523 0.45969711773326827
0.2085801459998038 0.3453834880312652 0.4606741573033708
0.20877849299995432 0.35222276502198335 0.4655593551538837
0.20897732299999916 0.35417684416218864 0.4538348803126526
0.2091773739994096 0.3639472398632144 0.4538348803126526
0.20937577699987742 0.37469467513434296 0.44894968246213973
0.20957495799939352 0.3786028334147533 0.4430874450415241
0.20977475099971343 0.3903273082559844 0.43722520762090866
0.209974690999843 0.4049829018075233 0.42452369320957506
0.21017639099954977 0.42452369320957506 0.412799218368344
0.21037496099961572 0.441133365901319 0.40693698094772834
0.2105736049998086 0.45676599902296044 0.4010747435271129
0.21077217499987455 0.47239863214460187 0.39912066438690763
0.21097124500010977 0.4851001465559355 0.3981436248168051
0.21117362899985892 0.5007327796775769 0.39716658524670256
0.21137318099954427 0.5144113336590133 0.4040058622374205
0.2115722509997795 0.5261358085002443 0.4108451392281387
0.211771950000184 0.5378602833414754 0.41963849535906195
0.21197118700001738 0.5427454811919883 0.42452369320957506
0.21216964599989296 0.5466536394723986 0.431362970200293
0.21236829000008584 0.5476306790425012 0.43624816805080613
0.21256813799936936 0.5456765999022961 0.44699560332193444
0.21279613299975608 0.540791402051783 0.4538348803126526
0.21307053500004258 0.5310210063507572 0.4665363947239862
0.21433530499962217 0.5007327796775769 0.4811919882755251
0.21471351999934996 0.5036638983878847 0.4851001465559355
0.21495090400003392 0.5056179775280898 0.49193942354665365
0.21515452899984666 0.512457254518808 0.4978016609672691
0.21536207999997714 0.5232046897899365 0.495847581827064
0.21556472399970517 0.5329750854909623 0.49877870053737183
0.21576664599979267 0.5456765999022961 0.49682462139716654
0.21596847499949945 0.5534929164631168 0.486077186126038
0.21616898999945988 0.5534929164631168 0.4811919882755251
0.216369615000076 0.5534929164631168 0.47435271128480694
0.21657442600007926 0.550561797752809 0.4655593551538837
0.21677497699965897 0.5476306790425012 0.4606741573033708
0.2169748989999789 0.5398143624816805 0.4587200781631655
0.2171750620000239 0.5310210063507572 0.45676599902296044
0.21737829799985775 0.5251587689301416 0.45481191988275516
0.2175805719998607 0.5144113336590133 0.44992672203224227
0.2177801970001383 0.5085490962383976 0.44406448461162684
0.2180742470000041 0.49877870053737183 0.441133365901319
0.2182792799994786 0.4938935026868587 0.43917928676111373
0.2184809789996507 0.48998534440644836 0.4352711284807034
0.21868193799946312 0.486077186126038 0.4303859306301905
0.2188824159993601 0.48705422569614076 0.42452369320957506
0.21908820799944806 0.48900830483634583 0.4186614557889594
0.21928938899964123 0.4831460674157304 0.4157303370786516
0.219489903000067 0.47923790913532005 0.4176844162188569
0.21968964000006963 0.47142159257449934 0.4186614557889594
0.2198891909993108 0.46262823644357587 0.4255007327796776
0.22008890899996914 0.45188080117244755 0.4264777723497801
0.22028899799988721 0.44992672203224227 0.42940889106008795
0.22048912299942458 0.4333170493404983 0.431362970200293
0.22068776699961745 0.4284318514899854 0.43917928676111373
0.22088652299953537 0.42256961406936977 0.4430874450415241
0.22108577800008788 0.4157303370786516 0.4450415241817294
0.22128479200000584 0.4079140205178309 0.4460185637518319
0.22148836199994548 0.4049829018075233 0.44992672203224227
0.22168928399969445 0.40889106008793363 0.45188080117244755
0.22188900199944328 0.4108451392281387 0.45188080117244755
0.22211133099972358 0.4137762579384465 0.4509037616023448
0.22231064199968387 0.4206155349291647 0.4509037616023448
0.22250878599970747 0.42256961406936977 0.4479726428920372
0.22270750400002726 0.4235466536394723 0.4450415241817294
0.22290648099988175 0.42256961406936977 0.4401563263312165
0.22310558800018043 0.41963849535906195 0.4382022471910112
0.223304361999908 0.4206155349291647 0.4430874450415241
0.22350246899986814 0.41475329750854906 0.4401563263312165
0.22370257599959587 0.412799218368344 0.43917928676111373
0.22390214600000036 0.41182217879824123 0.4401563263312165
0.22410034599943174 0.4079140205178309 0.441133365901319
0.22430104500017478 0.4108451392281387 0.44406448461162684
0.22463263099962205 0.4059599413776258 0.4479726428920372
0.22485869999945862 0.40693698094772834 0.4509037616023448
0.22506547400007548 0.4049829018075233 0.45676599902296044
0.22526665499935916 0.4010747435271129 0.4684904738641915
0.22546855800010235 0.39716658524670256 0.4782608695652173
0.22567125800014765 0.3913043478260869 0.4831460674157304
0.2258733279995795 0.38641914997557403 0.48705422569614076
0.22609352699964802 0.38153395212506114 0.486077186126038
0.22629257799962943 0.3776257938446508 0.48412310698583294
0.22649205600009736 0.3756717147044455 0.47923790913532005
0.22669134799980384 0.3707865168539326 0.4704445530043966
0.2268929179999759 0.36980947728383007 0.4636052760136786
0.22709296899938636 0.3659013190034197 0.4557889594528579
0.22729944699949556 0.36199316072300936 0.45188080117244755
0.22750081300000602 0.3629702002931119 0.44699560332193444
0.22769964199960668 0.3629702002931119 0.44406448461162684
0.22790113799965184 0.35906204201270153 0.44406448461162684
0.2281026889995701 0.36003908158280407 0.44406448461162684
0.22830146300020715 0.36003908158280407 0.44992672203224227
0.22850179199940612 0.36492427943331696 0.4538348803126526
0.2287016769996626 0.36687835857352225 0.4587200781631655
0.22890174699932686 0.3688324377137273 0.4655593551538837
0.2291027800001757 0.3737176355642404 0.4665363947239862
0.2293006649997551 0.37957987298485585 0.47142159257449934
0.22950051299994811 0.38739618954567656 0.47142159257449934
0.2297000640000988 0.39228138739618945 0.4684904738641915
0.2299205589997655 0.412799218368344 0.45969711773326827
0.2301264629995785 0.4235466536394723 0.457743038593063
0.2303266809994966 0.43429408891060084 0.45969711773326827
0.23052795399962633 0.44699560332193444 0.4509037616023448
0.23073022799962928 0.46165119687347334 0.45481191988275516
0.230929890999505 0.4733756717147044 0.4557889594528579
0.23112994199982495 0.47728382999511476 0.457743038593063
0.23132947500016598 0.48216902784562765 0.4557889594528579
0.23153239699968253 0.48216902784562765 0.4538348803126526
0.23173115200006578 0.4811919882755251 0.44992672203224227
0.23193225900013203 0.4763067904250122 0.44406448461162684
0.23213493999992352 0.47923790913532005 0.4382022471910112
0.23233512099977816 0.47435271128480694 0.441133365901319
0.23253580199980206 0.47142159257449934 0.441133365901319
0.2327367050002067 0.47142159257449934 0.44699560332193444
0.23293688600006135 0.4753297508549097 0.44894968246213973
0.233138974999747 0.4763067904250122 0.4538348803126526
0.23333865599943238 0.47728382999511476 0.45481191988275516
0.2335413000000699 0.48216902784562765 0.45481191988275516
0.23374233300000924 0.4880312652662433 0.457743038593063
0.23394803199971648 0.48900830483634583 0.457743038593063
0.23415119499986758 0.4909623839765511 0.4557889594528579
0.23435054299989133 0.4909623839765511 0.457743038593063
0.23485493999942264 0.49682462139716654 0.4557889594528579
0.23509073100012756 0.49193942354665365 0.45481191988275516
0.2353155410000909 0.4938935026868587 0.45188080117244755
0.2355187039993325 0.4978016609672691 0.4528578407425501
0.23572240300018166 0.4978016609672691 0.4479726428920372
0.2359216770000785 0.5046409379579873 0.4460185637518319
0.23612082099953113 0.5114802149487054 0.4401563263312165
0.2363200390000202 0.5144113336590133 0.43624816805080613
0.23651931299991702 0.5212506106497312 0.4352711284807034
0.23671810499945423 0.5202735710796287 0.4264777723497801
0.23691748999954143 0.5212506106497312 0.42256961406936977
0.23711591199935356 0.5183194919394236 0.4176844162188569
0.23731509299977915 0.5192965315095261 0.4137762579384465
0.23751351499959128 0.5163654127992183 0.41182217879824123
0.23771275099988998 0.5144113336590133 0.4137762579384465
0.23792741399938677 0.5065950170981925 0.40986809965803617
0.23813020599936863 0.5065950170981925 0.40889106008793363
0.23833140499937144 0.5017098192476794 0.40693698094772834
0.23853853099990374 0.5007327796775769 0.40205178309721545
0.23873872999956802 0.48900830483634583 0.39716658524670256
0.23906431599971256 0.4802149487054226 0.3952125061064973
0.23926829399988492 0.4753297508549097 0.3932584269662922
0.23946808599976066 0.4665363947239862 0.3981436248168051
0.23966721099986898 0.45676599902296044 0.4059599413776258
0.23986787400008325 0.4479726428920372 0.41182217879824123
0.24006840699985332 0.441133365901319 0.4206155349291647
0.24026612499983457 0.4382022471910112 0.42940889106008795
0.24046478799937177 0.4382022471910112 0.4323400097703958
0.24066272799973376 0.44211040547142155 0.4401563263312165
0.2408620759997575 0.4382022471910112 0.4450415241817294
0.24106557100003556 0.43917928676111373 0.4528578407425501
0.24126962299942534 0.4401563263312165 0.45969711773326827
0.2414718410000205 0.43917928676111373 0.46262823644357587
0.24185548100012966 0.4430874450415241 0.4528578407425501
0.24208251399977598 0.44406448461162684 0.44992672203224227
0.2422843610002019 0.45481191988275516 0.4460185637518319
0.24248419099967577 0.457743038593063 0.4450415241817294
0.24268451999978424 0.4636052760136786 0.44211040547142155
0.24288370100020984 0.4665363947239862 0.441133365901319
0.2430825299998105 0.4733756717147044 0.43917928676111373
0.24328432199945382 0.47142159257449934 0.441133365901319
0.24348496599941427 0.4636052760136786 0.4382022471910112
0.24368422099996678 0.45676599902296044 0.43624816805080613
0.24388562500007538 0.4479726428920372 0.4303859306301905
0.2440981939998892 0.4430874450415241 0.42256961406936977
0.24429733799934183 0.43722520762090866 0.4206155349291647
0.2444967789997463 0.43917928676111373 0.42159257449926724
0.24469645999943168 0.43722520762090866 0.41963849535906195
0.24536926099972334 0.41670737664875435 0.4401563263312165
0.24565047699979914 0.40889106008793363 0.45188080117244755
0.2458797319995938 0.403028822667318 0.4636052760136786
0.24615639300009207 0.3981436248168051 0.46458231558378116
0.24637755499952618 0.4010747435271129 0.47239863214460187
0.24659064299976308 0.39912066438690763 0.4811919882755251
0.24680860199987364 0.40009770395701016 0.495847581827064
0.2474567549998028 0.4059599413776258 0.5007327796775769
0.24769352800012712 0.412799218368344 0.49975574010747437
0.24790295000002516 0.41475329750854906 0.5046409379579873
0.24810438999975304 0.40889106008793363 0.5046409379579873
0.2483036079993326 0.4040058622374205 0.5095261358085001
0.24850623400016048 0.4010747435271129 0.5144113336590133
0.2487049149995073 0.39912066438690763 0.522227650219834
0.24890292899999622 0.3961895456765998 0.5290669272105519
0.24910299899966049 0.39912066438690763 0.5319980459208598
0.24931301299966435 0.40205178309721545 0.5398143624816805
0.24951297200004774 0.4059599413776258 0.5456765999022961
0.24971191299937345 0.40986809965803617 0.5456765999022961
0.24994962999971904 0.41963849535906195 0.5427454811919883
0.25015668099968025 0.4323400097703958 0.5378602833414754
0.25035575099991547 0.4430874450415241 0.533952125061065
0.2505541729997276 0.44992672203224227 0.5271128480703469
0.2507519840000896 0.4606741573033708 0.5212506106497312
0.2509507389995633 0.46946751343429405 0.5173424523693209
0.25115086499954486 0.47728382999511476 0.5007327796775769
0.25135184200007643 0.4802149487054226 0.4909623839765511
0.251551503999508 0.486077186126038 0.4802149487054226
0.25175696299993433 0.4851001465559355 0.4753297508549097
0.2519558109997888 0.48412310698583294 0.4684904738641915
0.25215393700000277 0.4811919882755251 0.45969711773326827
0.25236206199951994 0.4802149487054226 0.4528578407425501
0.252564798000094 0.4880312652662433 0.44699560332193444
0.25276446099996974 0.48412310698583294 0.441133365901319
0.25296371599961276 0.48705422569614076 0.4401563263312165
0.2531629899995096 0.48998534440644836 0.43722520762090866
0.25336220799999865 0.48998534440644836 0.4284318514899854
0.2535610559998531 0.4909623839765511 0.4264777723497801
0.2537597740001729 0.4909623839765511 0.42452369320957506
0.253963825000028 0.4909623839765511 0.42452369320957506
0.2541674320000311 0.4909623839765511 0.42452369320957506
0.25436963199990714 0.4909623839765511 0.42159257449926724
0.25456894299986743 0.48998534440644836 0.4235466536394723
0.25476754999999685 0.49193942354665365 0.42452369320957506
0.2549691009999151 0.4929164631167562 0.42256961406936977
0.25516863399934664 0.4938935026868587 0.42256961406936977
0.2553671480000048 0.5026868588177822 0.4049829018075233
0.25712983399989753 0.4938935026868587 0.403028822667318
0.25757412199982355 0.49193942354665365 0.3952125061064973
0.2587993560000541 0.5007327796775769 0.4040058622374205
0.2591058489997522 0.4880312652662433 0.40693698094772834
0.2593901949994688 0.4753297508549097 0.41182217879824123
0.25966318999962823 0.4606741573033708 0.4157303370786516
0.2605476529997759 0.40986809965803617 0.41963849535906195
0.2608778320000056 0.40009770395701016 0.4264777723497801
0.2610826789996281 0.39228138739618945 0.4264777723497801
0.2612846379997791 0.38935026868588185 0.42745481191988266
0.26148365199969703 0.3854421104054715 0.43429408891060084
0.2616839819993402 0.38739618954567656 0.43624816805080613
0.26188438499957556 0.39228138739618945 0.4401563263312165
0.2621663609997995 0.38935026868588185 0.44992672203224227
0.26236693099963304 0.3981436248168051 0.44406448461162684
0.26256844499948784 0.4010747435271129 0.4479726428920372
0.26276725600018835 0.4079140205178309 0.4509037616023448
0.2629664549995141 0.4186614557889594 0.4587200781631655
0.2631649879995166 0.4176844162188569 0.45969711773326827
0.26336316899960366 0.42256961406936977 0.47142159257449934
0.2635621469999023 0.4264777723497801 0.4782608695652173
0.26376238299963006 0.4323400097703958 0.4880312652662433
0.2639625649999289 0.4352711284807034 0.49975574010747437
0.2641630049993182 0.4401563263312165 0.49682462139716654
0.2643608899998071 0.4450415241817294 0.5007327796775769
0.2645599409997885 0.4509037616023448 0.49877870053737183
0.26475823300006596 0.46262823644357587 0.5007327796775769
0.26495721099945513 0.4655593551538837 0.4978016609672691
0.2651553179994153 0.4733756717147044 0.4929164631167562
0.26535394299935433 0.4684904738641915 0.48705422569614076
0.2655528469995261 0.4587200781631655 0.4880312652662433
0.26575186099944403 0.44992672203224227 0.4851001465559355
0.26595670899951074 0.4333170493404983 0.4811919882755251
0.2661834259997704 0.42159257449926724 0.4782608695652173
0.26640947699979733 0.4040058622374205 0.4802149487054226
0.2666312880000987 0.3932584269662922 0.4782608695652173
0.2668524310001885 0.38153395212506114 0.4831460674157304
0.26706561199989665 0.376648754274548 0.48216902784562765
0.26726701499956107 0.3707865168539326 0.4851001465559355
0.26746671499950025 0.36980947728383007 0.4880312652662433
0.2676664509999682 0.3659013190034197 0.48705422569614076
0.26786637299937865 0.37274059599413767 0.48998534440644836
0.2680662949996986 0.36687835857352225 0.4929164631167562
0.26826440199965873 0.3678553981436248 0.49682462139716654
0.2684641389996614 0.3678553981436248 0.49682462139716654
0.26884546400015097 0.3678553981436248 0.5026868588177822
0.26906895999945846 0.36687835857352225 0.5105031753786029
0.26927169600003253 0.3659013190034197 0.5065950170981925
0.26947161799944297 0.3688324377137273 0.5075720566682951
0.2696724659999745 0.37176355642403514 0.5026868588177822
0.26997438599937595 0.3883732291157791 0.4851001465559355
0.2702245659993423 0.4040058622374205 0.4753297508549097
0.2704415429998335 0.412799218368344 0.46165119687347334
0.27234785499967984 0.5046409379579873 0.4284318514899854
0.2736648840000271 0.5056179775280898 0.42452369320957506
0.27467332600008376 0.3932584269662922 0.4235466536394723
0.27516568600003666 0.38251099169516367 0.4206155349291647
0.27567132399963157 0.40009770395701016 0.40986809965803617
0.2762264610000784 0.4284318514899854 0.4108451392281387
0.27650067800004763 0.4430874450415241 0.4040058622374205
0.27671409899994615 0.45188080117244755 0.4040058622374205
0.2772001260000252 0.48216902784562765 0.40693698094772834
0.27745043599952623 0.49193942354665365 0.40889106008793363
0.2776925239995762 0.5026868588177822 0.4157303370786516
0.2779695549997996 0.5173424523693209 0.41670737664875435
0.2782381050001277 0.524181729360039 0.41963849535906195
0.2784719519995633 0.540791402051783 0.41670737664875435
0.27869124399967404 0.5495847581827065 0.4157303370786516
0.27889414699984627 0.5661944308744504 0.4137762579384465
0.2790992539994477 0.5808500244259893 0.4108451392281387
0.2793003420001696 0.5925744992672204 0.40889106008793363
0.2795014120001724 0.6023448949682462 0.41475329750854906
0.27970301899949845 0.5945285784074255 0.4206155349291647
0.27990442299960705 0.5876893014167073 0.42452369320957506
0.2801046589993348 0.5759648265754762 0.43429408891060084
0.28030565500012017 0.5622862725940401 0.43722520762090866
0.2805061509998268 0.5466536394723986 0.4430874450415241
0.2807074060001469 0.5310210063507572 0.4450415241817294
0.28090775399959966 0.522227650219834 0.44211040547142155
0.28110808299970813 0.5173424523693209 0.44406448461162684
0.28130746799979534 0.512457254518808 0.4460185637518319
0.28150768599971343 0.5095261358085001 0.44406448461162684
0.28170942299948365 0.5114802149487054 0.4430874450415241
0.2819361769998068 0.512457254518808 0.44211040547142155
0.2821403399993869 0.5153883732291158 0.44211040547142155
0.28234142800010886 0.5095261358085001 0.441133365901319
0.28254120200017496 0.5075720566682951 0.44211040547142155
0.2827414379999027 0.5036638983878847 0.4460185637518319
0.2829409529995246 0.5065950170981925 0.44211040547142155
0.2831393749993367 0.5026868588177822 0.44211040547142155
0.28333777799980453 0.48216902784562765 0.44211040547142155
0.28353945900016697 0.47239863214460187 0.4430874450415241
0.28373836199989455 0.467513434294089 0.4430874450415241
0.2839373400001932 0.4538348803126526 0.4401563263312165
0.2841367060000266 0.4479726428920372 0.4430874450415241
0.2843376279997756 0.44211040547142155 0.44211040547142155
0.28453725300005317 0.43917928676111373 0.4450415241817294
0.28473700899940013 0.431362970200293 0.44406448461162684
0.28493592999984685 0.42745481191988266 0.44894968246213973
0.2851342409994686 0.41475329750854906 0.457743038593063
0.28533338499983074 0.4040058622374205 0.467513434294089
0.2855318439997063 0.39228138739618945 0.47239863214460187
0.28573889499966754 0.38153395212506114 0.4851001465559355
0.28616562699971837 0.3688324377137273 0.5075720566682951
0.28654485999959434 0.3629702002931119 0.5163654127992183
0.28686531699986517 0.3659013190034197 0.522227650219834
0.2870909789999132 0.36687835857352225 0.5232046897899365
0.2872940119996201 0.3688324377137273 0.5251587689301416
0.2874937480000881 0.36980947728383007 0.522227650219834
0.287700484999732 0.3688324377137273 0.5183194919394236
0.28789990699988266 0.36980947728383007 0.5144113336590133
0.288098588000139 0.36687835857352225 0.5075720566682951
0.28829754700018384 0.3659013190034197 0.5007327796775769
0.28849626499959413 0.3629702002931119 0.495847581827064
0.2886963350001679 0.35710796287249624 0.48998534440644836
0.28889671900014946 0.3561309233023937 0.4909623839765511
0.2890954750000674 0.35222276502198335 0.4929164631167562
0.2892938220002179 0.3531998045920859 0.49193942354665365
0.2894930779993956 0.358085002442599 0.4948705422569615
0.2896921849996943 0.36687835857352225 0.4938935026868587
0.2898912359996757 0.37957987298485585 0.48705422569614076
0.29013419399962004 0.39228138739618945 0.48216902784562765
0.2903340789998765 0.4049829018075233 0.4704445530043966
0.29053405600006954 0.4186614557889594 0.45969711773326827
0.290734256000178 0.4284318514899854 0.4509037616023448
0.2909344179997788 0.4382022471910112 0.44406448461162684
0.2911343219993796 0.44699560332193444 0.43917928676111373
0.29133326200008014 0.4538348803126526 0.43429408891060084
0.29153251699972316 0.4587200781631655 0.43624816805080613
0.2917333460000009 0.4636052760136786 0.4401563263312165
0.29193347199998243 0.467513434294089 0.43917928676111373
0.2921315229996253 0.47142159257449934 0.44699560332193444
0.2923303899997336 0.4753297508549097 0.44894968246213973
0.29253121900001133 0.48216902784562765 0.4479726428920372
0.2927298079994216 0.486077186126038 0.44406448461162684
0.2929528399999981 0.4938935026868587 0.44406448461162684
0.29315276199940854 0.49877870053737183 0.4382022471910112
0.2933519609996438 0.5095261358085001 0.4352711284807034
0.29355075399962516 0.5163654127992183 0.4323400097703958
0.2937496380000084 0.5251587689301416 0.42745481191988266
0.29395072699935554 0.5319980459208598 0.4264777723497801
0.29415055600020423 0.5349291646311676 0.4255007327796776
0.2943501820000165 0.5378602833414754 0.4264777723497801
0.29454826999972283 0.5368832437713726 0.4235466536394723
0.2947469699993235 0.5349291646311676 0.4264777723497801
0.29494548399998166 0.5290669272105519 0.4264777723497801
0.2951462579994768 0.5271128480703469 0.4235466536394723
0.2953451610001139 0.5261358085002443 0.42256961406936977
0.29554413899950305 0.522227650219834 0.4176844162188569
0.29574385700016137 0.5202735710796287 0.4186614557889594
0.2959421489995293 0.5144113336590133 0.41670737664875435
0.2961412750000818 0.5046409379579873 0.4157303370786516
0.29633938200004195 0.4948705422569615 0.41670737664875435
0.2965404139995371 0.48216902784562765 0.4157303370786516
0.29673948399977235 0.47142159257449934 0.4137762579384465
0.296938183999373 0.4665363947239862 0.4157303370786516
0.29714084699935484 0.4587200781631655 0.4206155349291647
0.2973419350000768 0.44894968246213973 0.41670737664875435
0.29754122699978325 0.44699560332193444 0.42159257449926724
0.2977397229997223 0.4401563263312165 0.42159257449926724
0.2979394969997884 0.44211040547142155 0.42452369320957506
0.2981397339999603 0.44211040547142155 0.4284318514899854
0.2983380440000474 0.43722520762090866 0.431362970200293
0.298536743999648 0.44211040547142155 0.43722520762090866
0.2987367770001583 0.43917928676111373 0.4450415241817294
0.29893506899952627 0.44406448461162684 0.44992672203224227
0.2991336389995922 0.44894968246213973 0.4538348803126526
0.2993315610001446 0.4479726428920372 0.4557889594528579
0.29952864899951237 0.4538348803126526 0.4538348803126526
0.29972640500000125 0.4528578407425501 0.45481191988275516
0.2999257519995808 0.4450415241817294 0.4538348803126526
0.3001236189993506 0.44699560332193444 0.4509037616023448
0.3003228549996493 0.4460185637518319 0.4509037616023448
0.3005213329997787 0.4509037616023448 0.4479726428920372
0.30071919900001376 0.45676599902296044 0.44699560332193444
0.3009181580000586 0.4655593551538837 0.44211040547142155
0.3011164129993631 0.47239863214460187 0.4450415241817294
0.3013148169993656 0.47435271128480694 0.44894968246213973
0.30151312699945265 0.47142159257449934 0.4460185637518319
0.3017109940001319 0.4733756717147044 0.44992672203224227
0.3019218039999032 0.467513434294089 0.44211040547142155
0.30212048500015953 0.46458231558378116 0.43722520762090866
0.3023185550000562 0.4587200781631655 0.43624816805080613
0.3025163470001644 0.45676599902296044 0.42940889106008795
0.302719788000104 0.44406448461162684 0.4323400097703958
0.3029197469995779 0.4255007327796776 0.4333170493404983
0.30332455299958383 0.3834880312652662 0.43917928676111373
0.30354467799952545 0.36687835857352225 0.4479726428920372
0.30374378499982413 0.358085002442599 0.45481191988275516
0.3039433369995095 0.35417684416218864 0.4655593551538837
0.30414242499955435 0.35222276502198335 0.47923790913532005
0.304342605999409 0.35710796287249624 0.49193942354665365
0.30454234299941163 0.36003908158280407 0.5026868588177822
0.3047417649995623 0.36687835857352225 0.5095261358085001
0.3049402239994379 0.3756717147044455 0.5163654127992183
0.3051386819997788 0.3786028334147533 0.5192965315095261
0.30533680799999274 0.38446507083536874 0.5153883732291158
0.3055357670000376 0.38739618954567656 0.5163654127992183
0.3057348369993633 0.3883732291157791 0.5095261358085001
0.30593616599981033 0.39423546653639474 0.5085490962383976
0.3061368839998977 0.40009770395701016 0.5026868588177822
0.3063360649994138 0.40009770395701016 0.4938935026868587
0.3065355799999452 0.40205178309721545 0.48998534440644836
0.3067351129993767 0.403028822667318 0.4831460674157304
0.3069347199998447 0.39912066438690763 0.4782608695652173
0.30713328999991063 0.39912066438690763 0.4704445530043966
0.3073358410001674 0.40009770395701016 0.467513434294089
0.3075346890000219 0.3981436248168051 0.46165119687347334
0.30773427699932654 0.3981436248168051 0.4538348803126526
0.30793303300015396 0.39912066438690763 0.44894968246213973
0.3081330839995644 0.39912066438690763 0.4450415241817294
0.30833211699973617 0.3952125061064973 0.44406448461162684
0.30853133499931573 0.39423546653639474 0.4450415241817294
0.3088206069996886 0.39423546653639474 0.44992672203224227
0.30907317599940143 0.39228138739618945 0.45969711773326827
0.3093013930001689 0.403028822667318 0.47142159257449934
0.3097094409995407 0.4157303370786516 0.4753297508549097
0.31003665600019303 0.4430874450415241 0.47142159257449934
0.3102859470000112 0.4684904738641915 0.4655593551538837
0.3105204789999334 0.486077186126038 0.4587200781631655
0.31073575299978984 0.5017098192476794 0.4538348803126526
0.31095250799990026 0.5153883732291158 0.44992672203224227
0.311183298999822 0.5251587689301416 0.4430874450415241
0.3114409239997258 0.5310210063507572 0.4460185637518319
0.3116656040001544 0.5319980459208598 0.4460185637518319
0.3118972289994417 0.522227650219834 0.45188080117244755
0.31210976199963625 0.5144113336590133 0.457743038593063
0.31231394299993553 0.5046409379579873 0.46165119687347334
0.31251482700008637 0.4948705422569615 0.4606741573033708
0.3127191939993281 0.48216902784562765 0.4636052760136786
0.31292311499964853 0.4704445530043966 0.4606741573033708
0.313129499999377 0.4528578407425501 0.457743038593063
0.31333275499946467 0.4401563263312165 0.457743038593063
0.3135369179999543 0.42940889106008795 0.45676599902296044
0.31374052399951324 0.4206155349291647 0.457743038593063
0.31397455699971033 0.41670737664875435 0.457743038593063
0.31418155199935427 0.4157303370786516 0.4665363947239862
0.31438430799971684 0.41670737664875435 0.47728382999511476
0.3145925439994244 0.4186614557889594 0.48216902784562765
0.3147931879993848 0.42452369320957506 0.48705422569614076
0.31499753600019176 0.4284318514899854 0.4831460674157304
0.3151959209999404 0.4323400097703958 0.48412310698583294
0.31539506499939307 0.44211040547142155 0.4753297508549097
0.31559533800009376 0.45188080117244755 0.4665363947239862
0.31579374200009624 0.4606741573033708 0.4587200781631655
0.31599396000001434 0.47239863214460187 0.44992672203224227
0.3161954369998057 0.4802149487054226 0.43917928676111373
0.31639643299968156 0.4909623839765511 0.4323400097703958
0.31659607700021297 0.5065950170981925 0.4255007327796776
0.3167978689998563 0.522227650219834 0.4206155349291647
0.31700821699996595 0.5271128480703469 0.41475329750854906
0.317210989999694 0.5349291646311676 0.4137762579384465
0.31740994899973884 0.5388373229115779 0.4059599413776258
0.3176094820000799 0.5378602833414754 0.40693698094772834
0.317809256000146 0.5446995603321934 0.39912066438690763
0.31804397299947595 0.5456765999022961 0.4010747435271129
0.3182463209996058 0.5476306790425012 0.39912066438690763
0.31844566899962956 0.5534929164631168 0.39716658524670256
0.3186472759998651 0.5564240351734244 0.39716658524670256
0.31884760499997356 0.5603321934538348 0.3961895456765998
0.3190467300000819 0.5603321934538348 0.39912066438690763
0.3192471519996616 0.5534929164631168 0.39912066438690763
0.31945314799941116 0.5349291646311676 0.40205178309721545
0.3196529400001964 0.5075720566682951 0.40889106008793363
0.31985378799981845 0.47728382999511476 0.4108451392281387
0.3200536539998211 0.44699560332193444 0.4108451392281387
0.32025487200007774 0.42159257449926724 0.41475329750854906
0.320453460999488 0.4040058622374205 0.4186614557889594
0.3206524379993425 0.3903273082559844 0.41963849535906195
0.32085171200014884 0.38251099169516367 0.4206155349291647
0.3210501519997706 0.3786028334147533 0.42256961406936977
0.32125086999985797 0.37274059599413767 0.42452369320957506
0.32145173699973384 0.36980947728383007 0.4255007327796776
0.32165143600013835 0.37176355642403514 0.4264777723497801
0.32185185799971805 0.3737176355642404 0.4264777723497801
0.32205663199965784 0.3756717147044455 0.4264777723497801
0.322257812999851 0.38739618954567656 0.4284318514899854
0.32246027099972707 0.39716658524670256 0.42745481191988266
0.3226634519996878 0.40693698094772834 0.42940889106008795
0.32286215200019797 0.41182217879824123 0.43429408891060084
0.32306092599992553 0.4186614557889594 0.43722520762090866
0.32328301399957127 0.4235466536394723 0.44211040547142155
0.3234873979999975 0.4235466536394723 0.441133365901319
0.3236880240001483 0.42745481191988266 0.4450415241817294
0.3238874829994529 0.4333170493404983 0.44699560332193444
0.32408779399975174 0.43917928676111373 0.4430874450415241
0.3242882519998602 0.44406448461162684 0.44211040547142155
0.32448902599935536 0.44406448461162684 0.4382022471910112
0.32468766999954823 0.44699560332193444 0.441133365901319
0.32488855500014324 0.4460185637518319 0.44699560332193444
0.32509332900008303 0.4450415241817294 0.4479726428920372
0.32529841699943063 0.441133365901319 0.45969711773326827
0.32549844999994093 0.4450415241817294 0.47142159257449934
0.32569664899983763 0.44992672203224227 0.48216902784562765
0.3259188299998641 0.46458231558378116 0.495847581827064
0.32612401099959243 0.4763067904250122 0.5056179775280898
0.326324988000124 0.4851001465559355 0.5114802149487054
0.3265244469994286 0.48900830483634583 0.512457254518808
0.3267227019996426 0.4851001465559355 0.5085490962383976
0.3269204580001315 0.47923790913532005 0.5026868588177822
0.32711852800002816 0.47142159257449934 0.5017098192476794
0.327317487000073 0.4636052760136786 0.495847581827064
0.3275162599993564 0.4538348803126526 0.4938935026868587
0.32771477499954926 0.441133365901319 0.49193942354665365
0.3279131219996998 0.4303859306301905 0.4929164631167562
0.3281133780001255 0.4186614557889594 0.48900830483634583
0.32831213299959927 0.4157303370786516 0.48998534440644836
0.32851085099991906 0.40693698094772834 0.48705422569614076
0.32871029099987936 0.4079140205178309 0.4880312652662433
0.32890913899973384 0.4059599413776258 0.4802149487054226
0.3291073760001382 0.4040058622374205 0.47435271128480694
0.32930542699978105 0.403028822667318 0.467513434294089
0.3295032750002065 0.40205178309721545 0.45969711773326827
0.3297019559995533 0.4040058622374205 0.45481191988275516
0.32991684099943086 0.40986809965803617 0.4450415241817294
0.3301193359993704 0.4186614557889594 0.4352711284807034
0.33031896200009214 0.431362970200293 0.42452369320957506
0.3305185129993333 0.4430874450415241 0.41475329750854906
0.33071824999933597 0.4557889594528579 0.4049829018075233
0.33091613499982486 0.46946751343429405 0.4010747435271129
0.3311146119995101 0.47728382999511476 0.39716658524670256
0.33131351599968184 0.4831460674157304 0.39423546653639474
0.33151191900014965 0.4909623839765511 0.3932584269662922
0.3317110819998561 0.48998534440644836 0.39423546653639474
0.33191159599937237 0.48705422569614076 0.3961895456765998
0.3321107960000518 0.48998534440644836 0.40205178309721545
0.33247475099960866 0.4763067904250122 0.4264777723497801
0.3326937840001847 0.47239863214460187 0.44894968246213973
0.3329124829997454 0.47142159257449934 0.47923790913532005
0.3331190159997277 0.47142159257449934 0.49682462139716654
0.33331949300009 0.4753297508549097 0.5085490962383976
0.33351752599992324 0.47435271128480694 0.5173424523693209
0.3337157259993546 0.4811919882755251 0.512457254518808
0.33393916499971965 0.48216902784562765 0.5105031753786029
0.3341430129994478 0.48900830483634583 0.49682462139716654
0.3343415459994503 0.4948705422569615 0.48900830483634583
0.3345397269995374 0.49877870053737183 0.4831460674157304
0.3347372419993917 0.5017098192476794 0.4811919882755251
0.33493605199964804 0.5056179775280898 0.4753297508549097
0.33513458499965054 0.5105031753786029 0.4655593551538837
0.33533360000001267 0.5095261358085001 0.4636052760136786
0.3355318369995075 0.5075720566682951 0.45969711773326827
0.33573083200008114 0.49877870053737183 0.45969711773326827
0.3359296250000625 0.486077186126038 0.46262823644357587
0.336128601999917 0.4704445530043966 0.4665363947239862
0.33632665400000405 0.46262823644357587 0.4665363947239862
0.3365243719999853 0.45188080117244755 0.467513434294089
0.3367226270001993 0.44406448461162684 0.46165119687347334
0.3369207340001594 0.4352711284807034 0.45969711773326827
0.3371192479999081 0.4284318514899854 0.45188080117244755
0.3373186329999953 0.4235466536394723 0.4479726428920372
0.33751881399984995 0.4235466536394723 0.441133365901319
0.3377170509993448 0.4264777723497801 0.4401563263312165
0.3379287319994546 0.43429408891060084 0.43722520762090866
0.33812833899992256 0.44211040547142155 0.441133365901319
0.3383262609995654 0.44992672203224227 0.44406448461162684
0.3385245159997794 0.4636052760136786 0.44406448461162684
0.33872280800005683 0.46458231558378116 0.44992672203224227
0.34029099799954565 0.4880312652662433 0.4557889594528579
0.34056539999983215 0.48412310698583294 0.4557889594528579
0.3409187999995993 0.4782608695652173 0.4538348803126526
0.3414595479998752 0.47728382999511476 0.45188080117244755
0.3417594120001013 0.47728382999511476 0.44211040547142155
0.3426815049997458 0.46458231558378116 0.4049829018075233
0.343767296999431 0.43429408891060084 0.4206155349291647
0.344750350999675 0.4176844162188569 0.4206155349291647
0.34510902900001383 0.412799218368344 0.431362970200293
0.34539572699941345 0.40693698094772834 0.4450415241817294
0.34562468500007526 0.4010747435271129 0.46165119687347334
0.34589212399987446 0.3932584269662922 0.4753297508549097
0.3462292280000838 0.38935026868588185 0.4753297508549097
0.3464616119999846 0.38446507083536874 0.4733756717147044
0.34666460799962806 0.37957987298485585 0.47239863214460187
0.34686682599931373 0.3776257938446508 0.46458231558378116
0.34706615499999316 0.3756717147044455 0.4665363947239862
0.34726644799957285 0.3707865168539326 0.46262823644357587
0.3474668689996179 0.3678553981436248 0.46458231558378116
0.3476681060001283 0.3688324377137273 0.4665363947239862
0.3478719539998565 0.3639472398632144 0.4704445530043966
0.3480731529998593 0.36199316072300936 0.4733756717147044
0.34827418599979865 0.3629702002931119 0.4782608695652173
0.34847320100016077 0.36003908158280407 0.47923790913532005
0.34867249299986725 0.35906204201270153 0.4763067904250122
0.348871655000039 0.358085002442599 0.4763067904250122
0.3490717989998302 0.35906204201270153 0.47142159257449934
0.3492714249996425 0.3639472398632144 0.467513434294089
0.34947240200017404 0.36199316072300936 0.46458231558378116
0.3496716760000709 0.37176355642403514 0.46165119687347334
0.34987039399948117 0.38153395212506114 0.4655593551538837
0.3500721310001609 0.3952125061064973 0.46946751343429405
0.350275588999466 0.412799218368344 0.4811919882755251
0.3504767710001033 0.4284318514899854 0.4938935026868587
0.35067824799989467 0.441133365901319 0.5075720566682951
0.3508777070001088 0.4557889594528579 0.522227650219834
0.351080646999435 0.467513434294089 0.5036638983878847
0.35254313599944 0.48998534440644836 0.44211040547142155
0.35552518499935104 0.5065950170981925 0.42452369320957506
0.35744284999964293 0.5026868588177822 0.43429408891060084
0.3578798039998219 0.495847581827064 0.4264777723497801
0.3585389749996466 0.4802149487054226 0.42256961406936977
0.35884006200012664 0.4763067904250122 0.42159257449926724
0.35908650100009254 0.4733756717147044 0.4176844162188569
0.3593261070000153 0.46946751343429405 0.41475329750854906
0.3595519549999153 0.4655593551538837 0.4137762579384465
0.35977046900006826 0.4557889594528579 0.4186614557889594
0.35999616800017975 0.4479726428920372 0.42452369320957506
0.3602138480000576 0.43624816805080613 0.4284318514899854
0.36042619599993486 0.42745481191988266 0.431362970200293
0.3606373769998754 0.4255007327796776 0.43429408891060084
0.36085607599943614 0.42256961406936977 0.4382022471910112
0.3610771269995894 0.4206155349291647 0.4401563263312165
0.3612981779997426 0.4206155349291647 0.441133365901319
0.3615141919999587 0.41182217879824123 0.44211040547142155
0.3617319650002173 0.412799218368344 0.4430874450415241
0.3619813859995702 0.4176844162188569 0.441133365901319
0.36219908600014605 0.4255007327796776 0.4430874450415241
0.3624088219994519 0.4255007327796776 0.44699560332193444
0.36261474399998406 0.4323400097703958 0.4450415241817294
0.36283249799998885 0.43722520762090866 0.44406448461162684
0.3630491979993167 0.4401563263312165 0.4479726428920372
0.3632579529994473 0.44406448461162684 0.44992672203224227
0.36347517000012886 0.44406448461162684 0.4528578407425501
0.36368742499962536 0.4430874450415241 0.45481191988275516
0.3639002169993546 0.4401563263312165 0.45676599902296044
0.3641131939994011 0.43429408891060084 0.45969711773326827
0.3643343570001889 0.42940889106008795 0.45969711773326827
0.3645547779997287 0.4176844162188569 0.4636052760136786
0.3647924580000108 0.40889106008793363 0.467513434294089
0.3650090649998674 0.3952125061064973 0.467513434294089
0.36522459800016804 0.38251099169516367 0.4753297508549097
0.36543535199962207 0.37176355642403514 0.48216902784562765
0.3656507369996689 0.35710796287249624 0.48216902784562765
0.3658604550000746 0.3453834880312652 0.48705422569614076
0.3660859129995515 0.3385442110405472 0.49193942354665365
0.3663102049995359 0.32975085490962375 0.4938935026868587
0.36652082999989943 0.32486565705911086 0.49975574010747437
0.3667387699997562 0.3229115779189058 0.49877870053737183
0.3669597660000363 0.3141182217879823 0.49975574010747437
0.3671880940000847 0.3150952613580851 0.4978016609672691
0.3674955509995925 0.3150952613580851 0.4938935026868587
0.36778750800021953 0.3111871030776747 0.495847581827064
0.36801835499954905 0.3053248656570591 0.4948705422569615
0.3682251290001659 0.30727894479726436 0.49682462139716654
0.36846806799985643 0.3131411822178798 0.4938935026868587
0.3687043410000115 0.32193453834880303 0.49193942354665365
0.36921612700007245 0.34929164631167553 0.4831460674157304
0.3695515829995202 0.3639472398632144 0.4802149487054226
0.36975548600003094 0.3776257938446508 0.4763067904250122
0.3699632779998865 0.3952125061064973 0.4684904738641915
0.3701649959994029 0.4137762579384465 0.46165119687347334
0.370364769999469 0.4352711284807034 0.4538348803126526
0.3705640990001484 0.4587200781631655 0.4430874450415241
0.3707621690000451 0.4831460674157304 0.43624816805080613
0.37096064599973033 0.5065950170981925 0.431362970200293
0.3711645679995854 0.5290669272105519 0.4264777723497801
0.3713683599999058 0.5437225207620908 0.4264777723497801
0.37156698599937954 0.5564240351734244 0.42745481191988266
0.37176531499972043 0.5613092330239375 0.42745481191988266
0.3719643479998922 0.5603321934538348 0.431362970200293
0.3721633440000005 0.5583781143136297 0.4333170493404983
0.3723610809993261 0.5593551538837322 0.4382022471910112
0.3725633909998578 0.5564240351734244 0.43624816805080613
0.3728236269998888 0.5574010747435272 0.43917928676111373
0.3735269459994015 0.5720566682950659 0.4323400097703958
0.3737741069999174 0.576941866145579 0.431362970200293
0.3740715829999317 0.5749877870053737 0.4255007327796776
0.3743241519996445 0.567171470444553 0.42256961406936977
0.37485162199936894 0.550561797752809 0.4137762579384465
0.37538929599941184 0.5466536394723986 0.4059599413776258
0.3757124379999368 0.5427454811919883 0.40693698094772834
0.3760076909993586 0.5280898876404494 0.4059599413776258
0.37622703799934243 0.5202735710796287 0.403028822667318
0.3764266079997469 0.512457254518808 0.4049829018075233
0.37662567799998214 0.5046409379579873 0.4049829018075233
0.3768267109999215 0.495847581827064 0.4049829018075233
0.37702718899981846 0.4909623839765511 0.4049829018075233
0.37722564799969405 0.48998534440644836 0.4059599413776258
0.37742508799965435 0.48900830483634583 0.40693698094772834
0.3776237869997203 0.4909623839765511 0.4108451392281387
0.37782241300010355 0.4909623839765511 0.4137762579384465
0.3780673889996251 0.48705422569614076 0.4206155349291647
0.37826731099994504 0.486077186126038 0.4235466536394723
0.3784688259993345 0.48705422569614076 0.4284318514899854
0.3786681920000774 0.48900830483634583 0.4284318514899854
0.37886772499950894 0.4909623839765511 0.42745481191988266
0.3790674249994481 0.4938935026868587 0.42745481191988266
0.3792654760000005 0.49877870053737183 0.42745481191988266
0.3794636200000241 0.5007327796775769 0.42745481191988266
0.37966226400021696 0.49975574010747437 0.4352711284807034
0.37986337099937373 0.495847581827064 0.4352711284807034
0.3800618489995031 0.49682462139716654 0.4401563263312165
0.38026351099961175 0.48705422569614076 0.45188080117244755
0.3804620809996777 0.4831460674157304 0.45188080117244755
0.3806604289993629 0.4753297508549097 0.4587200781631655
0.38085947999934433 0.467513434294089 0.46458231558378116
0.38105856899983337 0.45481191988275516 0.47239863214460187
0.38125799099998403 0.44211040547142155 0.47923790913532005
0.38145991199962737 0.4352711284807034 0.48705422569614076
0.38165838999975676 0.4284318514899854 0.49193942354665365
0.3818569969998862 0.4264777723497801 0.4948705422569615
0.3820593079999526 0.4352711284807034 0.4938935026868587
0.3822577109995109 0.4323400097703958 0.49193942354665365
0.38245648500014795 0.43429408891060084 0.4909623839765511
0.38265460999991774 0.43429408891060084 0.486077186126038
0.3828549390000262 0.4333170493404983 0.486077186126038
0.38305363899962686 0.4333170493404983 0.48412310698583294
0.3832519500001581 0.4333170493404983 0.48412310698583294
0.38345446399944194 0.4284318514899854 0.48705422569614076
0.3836528299998463 0.4264777723497801 0.48705422569614076
0.38385106699934113 0.42256961406936977 0.4909623839765511
0.3840491370001473 0.4176844162188569 0.48998534440644836
0.38424800299981143 0.4137762579384465 0.4909623839765511
0.3844454809996023 0.4108451392281387 0.4909623839765511
0.3846604020000086 0.4059599413776258 0.48900830483634583
0.3848594350001804 0.40205178309721545 0.4909623839765511
0.38505774599980214 0.39228138739618945 0.48900830483634583
0.385256704999847 0.38446507083536874 0.4880312652662433
0.38545527499991294 0.37274059599413767 0.4831460674157304
0.38565386299978854 0.3610161211529066 0.4811919882755251
0.38585430399962206 0.3551538837322912 0.4753297508549097
0.3860714470001767 0.348314606741573 0.47142159257449934
0.3863007390000348 0.3404982901807523 0.4684904738641915
0.38652225299938436 0.3356130923302394 0.4665363947239862
0.38673034099974757 0.3356130923302394 0.467513434294089
0.38692918899960205 0.3365901319003419 0.4655593551538837
0.38713005499994324 0.3365901319003419 0.4655593551538837
0.3873303849995864 0.3385442110405472 0.45969711773326827
0.3875319170001603 0.3385442110405472 0.45481191988275516
0.38773033899997245 0.3414753297508548 0.4528578407425501
0.38792840899986913 0.3434294088910601 0.44699560332193444
0.38812768299976597 0.34733756717147046 0.4430874450415241
0.38833504899957916 0.34929164631167553 0.43917928676111373
0.3885349149995818 0.3531998045920859 0.4352711284807034
0.3887329109993516 0.35710796287249624 0.43429408891060084
0.3889319809995868 0.3688324377137273 0.4352711284807034
0.38912949599944113 0.3707865168539326 0.4333170493404983
0.38932823199957056 0.38251099169516367 0.431362970200293
0.3895268770002076 0.39228138739618945 0.431362970200293
0.38972496499991394 0.40009770395701016 0.42940889106008795
0.38995697900008963 0.40889106008793363 0.42159257449926724
0.39015923399983876 0.4186614557889594 0.4137762579384465
0.3903585819998625 0.4284318514899854 0.4079140205178309
0.390557114999865 0.4401563263312165 0.40205178309721545
0.39075898099963524 0.4509037616023448 0.40009770395701016
0.3909607549994689 0.4655593551538837 0.3981436248168051
0.3911635099993873 0.4684904738641915 0.40009770395701016
0.39140209699962725 0.47435271128480694 0.4059599413776258
0.39164783300020645 0.47923790913532005 0.40693698094772834
0.391872864999641 0.4763067904250122 0.4137762579384465
0.3920823059997929 0.4753297508549097 0.4206155349291647
0.3922989679995226 0.4763067904250122 0.4264777723497801
0.39251537099971756 0.4753297508549097 0.4323400097703958
0.39273027399940474 0.48412310698583294 0.4352711284807034
0.3929558989993893 0.48216902784562765 0.43722520762090866
0.39318135699977574 0.48705422569614076 0.4430874450415241
0.39340024099965376 0.495847581827064 0.4430874450415241
0.3936299400002099 0.5046409379579873 0.44406448461162684
0.393841084000087 0.5163654127992183 0.44211040547142155
0.39413670799967804 0.533952125061065 0.441133365901319
0.3943524440001056 0.5437225207620908 0.4401563263312165
0.3945771250000689 0.5534929164631168 0.44211040547142155
0.39478989799954434 0.5652173913043479 0.43917928676111373
0.3949992640000346 0.5701025891548608 0.44406448461162684
0.39520759300012287 0.578895945285784 0.44211040547142155
0.3954179040001691 0.5847581827063997 0.4401563263312165
0.3956523429997105 0.5876893014167073 0.4352711284807034
0.39592924499993387 0.5828041035661944 0.4323400097703958
0.39623666499937826 0.5720566682950659 0.4303859306301905
0.39650475199960056 0.5622862725940401 0.4255007327796776
0.3971512199996141 0.522227650219834 0.42745481191988266
0.39742256599947723 0.5056179775280898 0.4284318514899854
0.3976869309999529 0.49682462139716654 0.4264777723497801
0.3980130729996745 0.48900830483634583 0.42159257449926724
0.39834325099946 0.48216902784562765 0.4157303370786516
0.3986773919996267 0.47728382999511476 0.4049829018075233
0.3989504789997227 0.4733756717147044 0.4010747435271129
0.399190512000132 0.47435271128480694 0.39423546653639474
0.39940374799971323 0.4636052760136786 0.38641914997557403
0.3996213919999718 0.4557889594528579 0.3952125061064973
0.39984731299955456 0.44406448461162684 0.403028822667318
0.40005967900015094 0.43429408891060084 0.40986809965803617
0.4002645450000273 0.42452369320957506 0.42452369320957506
0.4004632629994376 0.412799218368344 0.441133365901319
0.4006637590000537 0.40205178309721545 0.45969711773326827
0.4008622370001831 0.3952125061064973 0.4753297508549097
0.40106039900001633 0.3913043478260869 0.48705422569614076
0.40125952499965933 0.38739618954567656 0.495847581827064
0.4014592059993447 0.3854421104054715 0.5056179775280898
0.40165879399955884 0.38641914997557403 0.5144113336590133
0.4018610859993714 0.3913043478260869 0.522227650219834
0.40215246899970225 0.39716658524670256 0.5251587689301416
0.4024132049999025 0.4010747435271129 0.5261358085002443
0.4026680329998271 0.41182217879824123 0.5202735710796287
0.40289284299979045 0.4108451392281387 0.5144113336590133
0.4030974500001321 0.41182217879824123 0.5017098192476794
0.4033218159993339 0.412799218368344 0.4948705422569615
0.40352731099937955 0.40986809965803617 0.4851001465559355
0.4037301779999325 0.41182217879824123 0.47923790913532005
0.4039317659999142 0.41475329750854906 0.4733756717147044
0.4041357619998962 0.4157303370786516 0.4684904738641915
0.4043380729999626 0.4176844162188569 0.46458231558378116
0.404540827999881 0.41963849535906195 0.46458231558378116
0.404824247999386 0.4235466536394723 0.4587200781631655
0.40517507399999886 0.42452369320957506 0.4528578407425501
0.40539916199941217 0.42452369320957506 0.44211040547142155
0.405630915999609 0.4235466536394723 0.43624816805080613
0.40585855999961495 0.42745481191988266 0.4303859306301905
0.40609205500004464 0.431362970200293 0.4303859306301905
0.4065853040001457 0.4323400097703958 0.4802149487054226
0.40709675699963555 0.41670737664875435 0.5026868588177822
0.4073205849999795 0.40693698094772834 0.5173424523693209
0.40752722900015215 0.39716658524670256 0.5368832437713726
0.4077310029997534 0.3903273082559844 0.5329750854909623
0.4079304619999675 0.3805569125549584 0.5290669272105519
0.40813110599992797 0.3776257938446508 0.524181729360039
0.4083445269998265 0.376648754274548 0.5144113336590133
0.4085503569995126 0.37469467513434296 0.5056179775280898
0.4087500559999171 0.376648754274548 0.4948705422569615
0.40894875599951774 0.376648754274548 0.48900830483634583
0.40914736299964716 0.376648754274548 0.48216902784562765
0.4093461180000304 0.3805569125549584 0.4811919882755251
0.40954479899937724 0.37957987298485585 0.4733756717147044
0.40974340599950665 0.38935026868588185 0.4704445530043966
0.4099679390001256 0.3932584269662922 0.46165119687347334
0.41019665600015287 0.4108451392281387 0.4509037616023448
0.41042748499967274 0.4303859306301905 0.43722520762090866
0.410648349999974 0.4479726428920372 0.42256961406936977
0.4108489760001248 0.4606741573033708 0.41670737664875435
0.4110482870000851 0.47142159257449934 0.41475329750854906
0.41124761599985504 0.4782608695652173 0.4137762579384465
0.4114499639999849 0.4851001465559355 0.4235466536394723
0.41165038500002993 0.486077186126038 0.4264777723497801
0.4118528069993772 0.4831460674157304 0.43429408891060084
0.4120561549998456 0.4802149487054226 0.4430874450415241
0.41225659500014444 0.4753297508549097 0.44992672203224227
0.4124570539997876 0.4733756717147044 0.45481191988275516
0.4126570869993884 0.4733756717147044 0.45969711773326827
0.412857176000216 0.4733756717147044 0.4636052760136786
0.4130549309993512 0.4733756717147044 0.45969711773326827
0.4132527599995228 0.47728382999511476 0.4587200781631655
0.41345399700003327 0.48216902784562765 0.44992672203224227
0.41365251099978195 0.486077186126038 0.4382022471910112
0.41385339599946747 0.486077186126038 0.4284318514899854
0.4140532989995336 0.48705422569614076 0.42159257449926724
0.41425175799940916 0.4880312652662433 0.4235466536394723
0.4144525869996869 0.4880312652662433 0.42940889106008795
0.4146510459995625 0.49193942354665365 0.4352711284807034
0.4148495419995015 0.4929164631167562 0.4382022471910112
0.4150494819996311 0.4909623839765511 0.43624816805080613
0.41524766400016233 0.4909623839765511 0.4401563263312165
0.41544660399995337 0.4909623839765511 0.4352711284807034
0.4156456179998713 0.4948705422569615 0.4284318514899854
0.4158433550001064 0.495847581827064 0.42256961406936977
0.4160437769996861 0.5046409379579873 0.41475329750854906
0.4162954939993142 0.5085490962383976 0.41182217879824123
0.4164952119999725 0.5163654127992183 0.40889106008793363
0.41669394899963663 0.522227650219834 0.403028822667318
0.4168920189995333 0.524181729360039 0.4010747435271129
0.4170911069995782 0.5271128480703469 0.3961895456765998
0.4172897329999614 0.5271128480703469 0.3981436248168051
0.4174991729996691 0.524181729360039 0.4040058622374205
0.41770033499960846 0.5202735710796287 0.412799218368344
0.4179281830001855 0.5134342940889105 0.431362970200293
0.4181651589997273 0.5105031753786029 0.4528578407425501
0.41839937699933216 0.5026868588177822 0.4753297508549097
0.41861728000003495 0.49877870053737183 0.4831460674157304
0.4188190899994879 0.495847581827064 0.4880312652662433
0.4190176789998077 0.4948705422569615 0.4880312652662433
0.4192196750000221 0.4938935026868587 0.4851001465559355
0.4194181149996439 0.4929164631167562 0.4811919882755251
0.4196167410000271 0.48900830483634583 0.4753297508549097
0.41981432899956417 0.4831460674157304 0.4733756717147044
0.42002397299984295 0.4802149487054226 0.46458231558378116
0.4202287090001846 0.47239863214460187 0.46262823644357587
0.42042850199959503 0.46946751343429405 0.457743038593063
0.4206270159993437 0.4655593551538837 0.4538348803126526
0.42082564199972694 0.4655593551538837 0.4509037616023448
0.421024860000216 0.46165119687347334 0.44699560332193444
0.4212230039993301 0.45481191988275516 0.44406448461162684
0.4214250549994176 0.44992672203224227 0.441133365901319
0.4216231249993143 0.44699560332193444 0.43624816805080613
0.4218206209998243 0.44894968246213973 0.4303859306301905
0.4220526159997462 0.44406448461162684 0.42159257449926724
0.4236353619999136 0.4176844162188569 0.431362970200293
0.42392715200003295 0.4186614557889594 0.43722520762090866
0.4242072939996433 0.4108451392281387 0.4528578407425501
0.4251259789998585 0.3786028334147533 0.4655593551538837
0.4254263439997885 0.36492427943331696 0.47923790913532005
0.42572702300003584 0.34929164631167553 0.48998534440644836
0.425999053999476 0.33952125061064975 0.4978016609672691
0.42625253000005614 0.3365901319003419 0.5036638983878847
0.4267489829999249 0.33756717147044446 0.5026868588177822
0.42696703399997205 0.3424523693209576 0.5007327796775769
0.42717884499961656 0.3453834880312652 0.49975574010747437
0.4273883030000434 0.3531998045920859 0.495847581827064
0.4275974470001529 0.3531998045920859 0.4948705422569615
0.42779764699935185 0.3502686858817783 0.4938935026868587
0.4279985499997565 0.3502686858817783 0.49193942354665365
0.4281986939995477 0.34929164631167553 0.48705422569614076
0.42839954200007924 0.3512457254518808 0.48412310698583294
0.42860185199970147 0.3551538837322912 0.48412310698583294
0.4288050149998526 0.36199316072300936 0.48705422569614076
0.4290052699998341 0.3659013190034197 0.4880312652662433
0.4292053399994984 0.36687835857352225 0.4938935026868587
0.429404520999924 0.37469467513434296 0.49877870053737183
0.4296054609994826 0.38251099169516367 0.49682462139716654
0.42980656799954886 0.3932584269662922 0.4909623839765511
0.4300414899998941 0.40889106008793363 0.48216902784562765
0.43024261499977 0.4255007327796776 0.47142159257449934
0.4304426479993708 0.44211040547142155 0.45969711773326827
0.43064358799983893 0.4606741573033708 0.4450415241817294
0.43084371399982047 0.47142159257449934 0.4382022471910112
0.4310430619998442 0.48216902784562765 0.4323400097703958
0.4312420389996987 0.4909623839765511 0.4264777723497801
0.43144071999995504 0.5007327796775769 0.4235466536394723
0.4316399379995346 0.5095261358085001 0.42159257449926724
0.4318416010000874 0.5134342940889105 0.41475329750854906
0.43204328199954034 0.5163654127992183 0.4137762579384465
0.4322428890000083 0.522227650219834 0.4079140205178309
0.4324418850001166 0.5290669272105519 0.40693698094772834
0.4326399550000133 0.533952125061065 0.40205178309721545
0.43284085799950844 0.540791402051783 0.39912066438690763
0.4330397610001455 0.5456765999022961 0.3932584269662922
0.4332384239996827 0.5495847581827065 0.39423546653639474
0.4334372719995372 0.5515388373229115 0.3932584269662922
0.4336535639995418 0.5515388373229115 0.3952125061064973
0.4339131319993612 0.5476306790425012 0.3981436248168051
0.4341353869995146 0.5427454811919883 0.40693698094772834
0.43436010499954136 0.5437225207620908 0.41182217879824123
0.4345923959999709 0.5398143624816805 0.4176844162188569
0.43482131699965976 0.5359062042012701 0.42256961406936977
0.43503870199947414 0.5310210063507572 0.4255007327796776
0.43527299299967126 0.5271128480703469 0.42940889106008795
0.4354939699996976 0.5290669272105519 0.42159257449926724
0.4357036880001033 0.5251587689301416 0.4186614557889594
0.43590988799951447 0.5251587689301416 0.412799218368344
0.43611386500015215 0.5310210063507572 0.41182217879824123
0.43631595299939363 0.5261358085002443 0.40889106008793363
0.4365155229997981 0.5251587689301416 0.40889106008793363
0.4367167229993356 0.5251587689301416 0.4049829018075233
0.4369303109997418 0.524181729360039 0.4049829018075233
0.4373531169994749 0.5183194919394236 0.40889106008793363
0.43761796399940067 0.5095261358085001 0.41182217879824123
0.4378384779993212 0.5114802149487054 0.4186614557889594
0.4381163239995658 0.5026868588177822 0.42256961406936977
0.43835228199986886 0.49877870053737183 0.4284318514899854
0.43855816699942807 0.4948705422569615 0.4303859306301905
0.4387608850001925 0.4909623839765511 0.42940889106008795
0.43896139899970876 0.486077186126038 0.4323400097703958
0.43930098500004533 0.4851001465559355 0.4401563263312165
0.4395205729997542 0.47728382999511476 0.44699560332193444
0.43972477199986315 0.47142159257449934 0.45481191988275516
0.43992500900003506 0.4606741573033708 0.46458231558378116
0.4401251339995724 0.4538348803126526 0.4733756717147044
0.44032401899949036 0.4430874450415241 0.47728382999511476
0.44052331100010633 0.43624816805080613 0.4782608695652173
0.4407226779994744 0.4323400097703958 0.4811919882755251
0.4409220629995616 0.4284318514899854 0.47923790913532005
0.4411220579995643 0.42256961406936977 0.47923790913532005
0.4414289970000027 0.4157303370786516 0.47435271128480694
0.4416442329993515 0.40986809965803617 0.4763067904250122
0.4418560249996517 0.40693698094772834 0.4782608695652173
0.44208696499936195 0.40693698094772834 0.48412310698583294
0.44232664499941166 0.4040058622374205 0.48900830483634583
0.44261982399984845 0.4040058622374205 0.4880312652662433
0.4428224859993861 0.40205178309721545 0.48900830483634583
0.4430221859993253 0.4010747435271129 0.4851001465559355
0.44322127499981434 0.4010747435271129 0.48412310698583294
0.44342034500004956 0.39423546653639474 0.4831460674157304
0.44361911799933296 0.3883732291157791 0.4763067904250122
0.44381907699971634 0.38641914997557403 0.47435271128480694
0.444018942999719 0.3854421104054715 0.4733756717147044
0.4442179580000811 0.38739618954567656 0.467513434294089
0.4444169909993434 0.3903273082559844 0.46262823644357587
0.44461563499953627 0.39423546653639474 0.457743038593063
0.4448142419996657 0.39716658524670256 0.45676599902296044
0.4450127189993509 0.39716658524670256 0.4528578407425501
0.4452138629994806 0.39423546653639474 0.4528578407425501
0.4454130809999697 0.3883732291157791 0.45676599902296044
0.4456126139994012 0.3834880312652662 0.46262823644357587
0.44581149899931916 0.3805569125549584 0.4665363947239862
0.44603708700014977 0.36980947728383007 0.47239863214460187
0.4462426009995397 0.3629702002931119 0.4802149487054226
0.44644609699935245 0.3561309233023937 0.486077186126038
0.44664788899990526 0.3551538837322912 0.4880312652662433
0.44684994099952746 0.3561309233023937 0.4938935026868587
0.44705288099976315 0.358085002442599 0.4938935026868587
0.4472550439995757 0.3561309233023937 0.4938935026868587
0.4474581690001287 0.3434294088910601 0.4938935026868587
0.4476615909998145 0.3180263800683927 0.48998534440644836
0.4478651049994369 0.28969223253541765 0.4851001465559355
0.4480677490000744 0.26722032242305804 0.48412310698583294
0.44826976399963314 0.24670249145090373 0.48216902784562765
0.44847390799986897 0.23693209574987795 0.4802149487054226
0.44867684800010466 0.23790913531998048 0.4811919882755251
0.44887902899972687 0.24279433317049337 0.47728382999511476
0.44908150599985674 0.25451880801172444 0.4763067904250122
0.44928720600000815 0.27015144113336587 0.4802149487054226
0.44952038599967636 0.3004396678065462 0.4753297508549097
0.449763214000086 0.33170493404982904 0.47435271128480694
0.4500400239994633 0.3756717147044455 0.4665363947239862
0.45028012999955536 0.41963849535906195 0.46165119687347334
0.45049953299985646 0.44894968246213973 0.45676599902296044
0.45071534299950144 0.4831460674157304 0.4528578407425501
0.45093493100011983 0.5134342940889105 0.4509037616023448
0.45121251799992024 0.5515388373229115 0.4479726428920372
0.4514549949999491 0.5749877870053737 0.44992672203224227
0.45168508200004 0.5906204201270151 0.4479726428920372
0.4519257069996456 0.6003908158280411 0.44894968246213973
0.4521474989996932 0.6101612115290669 0.4509037616023448
0.4523713829994449 0.6150464093795798 0.4460185637518319
0.4525889529995766 0.6150464093795798 0.4450415241817294
0.45280924500002584 0.6130923302393747 0.44406448461162684
0.4530387029999474 0.6111382510991694 0.4430874450415241
0.4532597910001641 0.6091841719589643 0.43917928676111373
0.4534934160001285 0.605276013678554 0.43624816805080613
0.45371909599998617 0.6023448949682462 0.4333170493404983
0.4541055330000745 0.5964826575476307 0.4303859306301905
0.4543292130001646 0.5896433805569126 0.4284318514899854
0.454550874999768 0.5867122618466047 0.4284318514899854
0.4548011110000516 0.5691255495847583 0.431362970200293
0.4550634019997233 0.5681485100146555 0.4303859306301905
0.4552835829999822 0.5593551538837322 0.4255007327796776
0.4555112079997343 0.5486077186126037 0.4255007327796776
0.4557325360001414 0.5486077186126037 0.4206155349291647
0.45599105000019335 0.5349291646311676 0.4157303370786516
0.45627011799933825 0.533952125061065 0.4079140205178309
0.4569508449994828 0.5095261358085001 0.4010747435271129
0.45884591699996236 0.47239863214460187 0.3981436248168051
0.45943708999948285 0.4655593551538837 0.42159257449926724
0.45997144899956766 0.4450415241817294 0.49193942354665365
0.46245752799950424 0.41670737664875435 0.4538348803126526
0.463091847999749 0.4255007327796776 0.4538348803126526
0.4634375449995787 0.4333170493404983 0.4538348803126526
0.4636868179995872 0.43624816805080613 0.44894968246213973
0.46427634300016507 0.441133365901319 0.44894968246213973
0.4649004960001548 0.441133365901319 0.45481191988275516
0.4652266189996226 0.43722520762090866 0.4557889594528579
0.46545711499948084 0.43624816805080613 0.4557889594528579
0.4656986649997634 0.42452369320957506 0.457743038593063
0.46595151200017426 0.40693698094772834 0.46458231558378116
0.46626437599934434 0.38935026868588185 0.46262823644357587
0.46648177899987786 0.376648754274548 0.4655593551538837
0.46669681099956506 0.3659013190034197 0.46946751343429405
0.4669060480000553 0.3610161211529066 0.46946751343429405
0.4671117099996991 0.3561309233023937 0.4733756717147044
0.46732252099991456 0.3551538837322912 0.4704445530043966
0.4675470160000259 0.358085002442599 0.467513434294089
0.46777541899973585 0.3610161211529066 0.46262823644357587
0.46798969199971907 0.36687835857352225 0.45676599902296044
0.4682198359996619 0.37176355642403514 0.4528578407425501
0.4684430719999 0.3737176355642404 0.4528578407425501
0.4686745669996526 0.376648754274548 0.46165119687347334
0.4708421149998685 0.431362970200293 0.4665363947239862
0.4712531069999386 0.4509037616023448 0.4655593551538837
0.4715479899996353 0.47142159257449934 0.4606741573033708
0.4723796210000728 0.49193942354665365 0.44992672203224227
0.47270481799932895 0.495847581827064 0.4430874450415241
0.47293299800003297 0.49975574010747437 0.44211040547142155
0.47341259899985744 0.5095261358085001 0.43917928676111373
0.473645316999864 0.5202735710796287 0.4401563263312165
0.47385531300005823 0.5319980459208598 0.4382022471910112
0.4740698079995127 0.5310210063507572 0.43624816805080613
0.4742758219999814 0.5368832437713726 0.4382022471910112
0.47448057800011156 0.540791402051783 0.43624816805080613
0.47468346200003 0.540791402051783 0.4333170493404983
0.47488595799950417 0.5378602833414754 0.43429408891060084
0.47509410200018465 0.5329750854909623 0.4333170493404983
0.4752967639997223 0.5329750854909623 0.4333170493404983
0.47549940799945034 0.522227650219834 0.431362970200293
0.4757027380001091 0.5153883732291158 0.42452369320957506
0.47591002999979537 0.5085490962383976 0.42256961406936977
0.4761226919999899 0.5046409379579873 0.42159257449926724
0.47633879899967724 0.5026868588177822 0.4186614557889594
0.4765398869994897 0.49877870053737183 0.41670737664875435
0.47674371599987353 0.5007327796775769 0.41963849535906195
0.47694721199968626 0.49682462139716654 0.4235466536394723
0.4771568930000285 0.5007327796775769 0.4255007327796776
0.47737333299937745 0.4938935026868587 0.4284318514899854
0.477582755000185 0.4909623839765511 0.4303859306301905
0.4777911020000829 0.4880312652662433 0.43429408891060084
0.478037392999795 0.4880312652662433 0.4333170493404983
0.4782438889997138 0.47923790913532005 0.4333170493404983
0.47844844100018236 0.47142159257449934 0.4333170493404983
0.4786507509998046 0.46458231558378116 0.4382022471910112
0.47885302499980753 0.45676599902296044 0.44211040547142155
0.47905987200010713 0.4538348803126526 0.4460185637518319
0.4792634609993911 0.45188080117244755 0.4479726428920372
0.47946677199979604 0.45188080117244755 0.4479726428920372
0.47967335999965144 0.44992672203224227 0.4509037616023448
0.48020258999986254 0.431362970200293 0.45481191988275516
0.4804419739994046 0.4264777723497801 0.45188080117244755
0.48064745099964057 0.4264777723497801 0.44992672203224227
0.48085163199993985 0.4303859306301905 0.4460185637518319
0.4810531089997312 0.4352711284807034 0.4460185637518319
0.48125527199954377 0.44211040547142155 0.44992672203224227
0.4814572489995044 0.44894968246213973 0.4460185637518319
0.4816592639999726 0.4509037616023448 0.4460185637518319
0.48186235199955263 0.45481191988275516 0.44406448461162684
0.48206681099964044 0.457743038593063 0.4430874450415241
0.48226871399947413 0.45969711773326827 0.441133365901319
0.4824705989994982 0.4587200781631655 0.4450415241817294
0.48267165000015666 0.45676599902296044 0.44211040547142155
0.4828745529994194 0.45676599902296044 0.44406448461162684
0.4830766049999511 0.45481191988275516 0.4450415241817294
0.4832794149997426 0.4528578407425501 0.4479726428920372
0.483481281999957 0.4528578407425501 0.44992672203224227
0.4836824260000867 0.44894968246213973 0.45188080117244755
0.48388444000011077 0.44699560332193444 0.4509037616023448
0.4840863250001348 0.4450415241817294 0.44992672203224227
0.4842876359998627 0.44406448461162684 0.4479726428920372
0.48448957599975984 0.44211040547142155 0.44894968246213973
0.48469175699938205 0.43722520762090866 0.44699560332193444
0.48489627099934296 0.4352711284807034 0.44894968246213973
0.4851012859999173 0.4303859306301905 0.4509037616023448
0.4853028549996452 0.4284318514899854 0.4538348803126526
0.48550448100013455 0.42159257449926724 0.4557889594528579
0.4857062920000317 0.41182217879824123 0.46262823644357587
0.48592611999993096 0.39912066438690763 0.46458231558378116
0.4861352090001674 0.3883732291157791 0.46946751343429405
0.48633711200000107 0.3776257938446508 0.4733756717147044
0.48653907100015203 0.3707865168539326 0.47728382999511476
0.48674236299939366 0.3629702002931119 0.47923790913532005
0.48694459999933315 0.35906204201270153 0.4811919882755251
0.4871474659994419 0.3551538837322912 0.4802149487054226
0.4873493690001851 0.3551538837322912 0.4851001465559355
0.48755086499932077 0.3561309233023937 0.48412310698583294
0.4877532499995141 0.35417684416218864 0.48900830483634583
0.4879556340001727 0.35710796287249624 0.4880312652662433
0.4881575379995411 0.35710796287249624 0.48998534440644836
0.48836006999954407 0.35906204201270153 0.49193942354665365
0.4885620659997585 0.35710796287249624 0.49193942354665365
0.4887634329998036 0.3512457254518808 0.48998534440644836
0.48896496499946807 0.348314606741573 0.49193942354665365
0.4891669059998094 0.34929164631167553 0.49193942354665365
0.489371513000151 0.348314606741573 0.4880312652662433
0.48957415699987905 0.3512457254518808 0.4831460674157304
0.48977568999998766 0.3551538837322912 0.48216902784562765
0.4899919809995481 0.358085002442599 0.47239863214460187
0.49019482899984723 0.36687835857352225 0.467513434294089
0.49039636199995584 0.3786028334147533 0.46458231558378116
0.4905982279997261 0.3952125061064973 0.457743038593063
0.4908027060000677 0.40889106008793363 0.4528578407425501
0.49100446099964756 0.42159257449926724 0.45188080117244755
0.4912078269999256 0.4323400097703958 0.44894968246213973
0.4914124709994212 0.4450415241817294 0.45188080117244755
0.491613819000122 0.4538348803126526 0.44894968246213973
0.4918158330001461 0.4587200781631655 0.4509037616023448
0.4920174399994721 0.4606741573033708 0.44406448461162684
0.4922199359998558 0.46458231558378116 0.4430874450415241
0.49242180199962604 0.47142159257449934 0.44211040547142155
0.4926244829994175 0.4802149487054226 0.44406448461162684
0.4928259419993992 0.48412310698583294 0.44894968246213973
0.49302747499950783 0.48900830483634583 0.4538348803126526
0.49323271100001875 0.4938935026868587 0.4587200781631655
0.49343513299936603 0.5007327796775769 0.4606741573033708
0.49363749900021503 0.5075720566682951 0.467513434294089
0.4938386989997525 0.5114802149487054 0.4684904738641915
0.4940396759993746 0.5173424523693209 0.4665363947239862
0.4942408389997581 0.5212506106497312 0.4704445530043966
0.494443001000036 0.5183194919394236 0.45969711773326827
0.49464434899982734 0.5212506106497312 0.4479726428920372
0.49484541899983014 0.5251587689301416 0.4401563263312165
0.4950463219993253 0.5329750854909623 0.4303859306301905
0.4952483549996032 0.5417684416218858 0.41963849535906195
0.4954506659996696 0.550561797752809 0.4059599413776258
0.49565475399958814 0.5622862725940401 0.39912066438690763
0.49586011999963375 0.5710796287249633 0.39423546653639474
0.4960614679994251 0.5779189057156815 0.3913043478260869
0.4962652969998089 0.578895945285784 0.38641914997557403
0.4964666079995368 0.578895945285784 0.38641914997557403
0.49666869599968777 0.5779189057156815 0.38153395212506114
0.496870117999606 0.5759648265754762 0.3737176355642404
0.4970802249999906 0.5720566682950659 0.3688324377137273
0.49728436899931694 0.5632633121641426 0.3512457254518808
0.4974961239995537 0.5564240351734244 0.3404982901807523
0.497699675000149 0.550561797752809 0.3356130923302394
0.4979180969994559 0.5437225207620908 0.3385442110405472
0.4981218889997763 0.5349291646311676 0.35417684416218864
0.49832371799948305 0.5280898876404494 0.37176355642403514
0.4985259909999513 0.5192965315095261 0.3961895456765998
0.49872885799959477 0.5144113336590133 0.4186614557889594
0.498932204999619 0.512457254518808 0.4382022471910112
0.49913651599945297 0.5065950170981925 0.45188080117244755
0.49933823399987887 0.4978016609672691 0.46165119687347334
0.499540044999776 0.4929164631167562 0.46946751343429405
0.49974107799971534 0.48412310698583294 0.47435271128480694
