0 0.36980947728383007 0.4606741573033708
0.0014448250003624707 0.36003908158280407 0.4587200781631655
0.0018994100000782055 0.3531998045920859 0.45969711773326827
0.0022097190003478318 0.3502686858817783 0.457743038593063
0.0025018800006364472 0.34929164631167553 0.45969711773326827
0.0027335240001775674 0.35222276502198335 0.457743038593063
0.0029710939998039976 0.34929164631167553 0.4606741573033708
0.0032128670000020065 0.34929164631167553 0.46165119687347334
0.0034563630006232415 0.35710796287249624 0.4606741573033708
0.003724320999936026 0.35710796287249624 0.4655593551538837
0.0039489830005550175 0.36003908158280407 0.46165119687347334
0.0041639790006229305 0.3639472398632144 0.46262823644357587
0.00436969800011866 0.37469467513434296 0.4655593551538837
0.004571583000142709 0.38935026868588185 0.4587200781631655
0.004772357000547345 0.4079140205178309 0.4538348803126526
0.0050009090000457945 0.42745481191988266 0.45188080117244755
0.005211182000493864 0.44406448461162684 0.44992672203224227
0.005418142000053194 0.4587200781631655 0.44699560332193444
0.005619027000648202 0.47142159257449934 0.4528578407425501
0.005818986000122095 0.47923790913532005 0.4450415241817294
0.006019131000357447 0.4880312652662433 0.44406448461162684
0.006220701000529516 0.495847581827064 0.44211040547142155
0.006421400999897742 0.5007327796775769 0.441133365901319
0.006625101000281575 0.5007327796775769 0.441133365901319
0.006825153000136197 0.4978016609672691 0.44406448461162684
0.007026020000012068 0.495847581827064 0.4479726428920372
0.007226294000247435 0.4948705422569615 0.45481191988275516
0.007424920000630664 0.4938935026868587 0.45188080117244755
0.0076460450000013225 0.4929164631167562 0.4509037616023448
0.007846542000152112 0.4929164631167562 0.44894968246213973
0.00804713100023946 0.4978016609672691 0.4479726428920372
0.008247905000644096 0.4978016609672691 0.4460185637518319
0.008450512000308663 0.5007327796775769 0.4450415241817294
0.00865526800043881 0.5026868588177822 0.4479726428920372
0.008864412000548327 0.5065950170981925 0.4460185637518319
0.009065111999916553 0.5065950170981925 0.44894968246213973
0.009264422999876842 0.5056179775280898 0.44992672203224227
0.009463807999964047 0.5075720566682951 0.4528578407425501
0.009663564000220504 0.5085490962383976 0.45188080117244755
0.009862968000561523 0.5105031753786029 0.4509037616023448
0.01006248300018342 0.512457254518808 0.44992672203224227
0.010280590000547818 0.5163654127992183 0.4460185637518319
0.010485919000529975 0.5173424523693209 0.4401563263312165
0.010685582000405702 0.5192965315095261 0.4382022471910112
0.010885949000112305 0.5202735710796287 0.4382022471910112
0.011084871000093699 0.5212506106497312 0.43722520762090866
0.011284960000011779 0.5192965315095261 0.43624816805080613
0.011484974999802944 0.5192965315095261 0.4382022471910112
0.011690731000271626 0.5202735710796287 0.4352711284807034
0.011892059999809135 0.5183194919394236 0.43429408891060084
0.012092019000192522 0.5202735710796287 0.4333170493404983
0.012299238000196056 0.5153883732291158 0.43429408891060084
0.012500474999797007 0.5153883732291158 0.43429408891060084
0.012701823000497825 0.5173424523693209 0.43624816805080613
0.012901318999865907 0.5144113336590133 0.4352711284807034
0.013100612000016554 0.5144113336590133 0.43917928676111373
0.013300164000611403 0.5134342940889105 0.441133365901319
0.013500346000000718 0.5114802149487054 0.441133365901319
0.013699396999982127 0.512457254518808 0.44992672203224227
0.013898246000280778 0.5105031753786029 0.43917928676111373
0.014098075000219978 0.5075720566682951 0.441133365901319
0.01429797899982077 0.4978016609672691 0.4450415241817294
0.014497326999844518 0.48412310698583294 0.4460185637518319
0.014696731000185537 0.47435271128480694 0.4479726428920372
0.014899597999828984 0.46262823644357587 0.4460185637518319
0.015104168000107165 0.4557889594528579 0.44894968246213973
0.015303850000236707 0.4460185637518319 0.45188080117244755
0.015503401000387385 0.43722520762090866 0.4538348803126526
0.015715601000010793 0.431362970200293 0.45481191988275516
0.015916393999759748 0.42745481191988266 0.457743038593063
0.016115612000248802 0.4284318514899854 0.4587200781631655
0.016315887000018847 0.4206155349291647 0.4587200781631655
0.016518641999937245 0.42256961406936977 0.45676599902296044
0.01671828700000333 0.42940889106008795 0.457743038593063
0.016918135000196344 0.43429408891060084 0.45481191988275516
0.017119019999881857 0.43722520762090866 0.4528578407425501
0.01731829399977869 0.4382022471910112 0.44992672203224227
0.01752001300064876 0.44211040547142155 0.4479726428920372
0.017722768000567157 0.43917928676111373 0.44406448461162684
0.01792328300052759 0.43722520762090866 0.4460185637518319
0.018122575999768742 0.43429408891060084 0.44406448461162684
0.01832233100049052 0.4303859306301905 0.4460185637518319
0.018521420000070066 0.4284318514899854 0.4479726428920372
0.018721102000199608 0.42452369320957506 0.44894968246213973
0.01892093200058298 0.42159257449926724 0.4509037616023448
0.019121946000268508 0.41963849535906195 0.4538348803126526
0.01932199800012313 0.41670737664875435 0.4557889594528579
0.01960630800022045 0.40986809965803617 0.4606741573033708
0.019820897000499826 0.4040058622374205 0.467513434294089
0.020024782000291452 0.39912066438690763 0.4636052760136786
0.020228092999786895 0.3913043478260869 0.4636052760136786
0.020430921999832208 0.38446507083536874 0.46262823644357587
0.020633918999919842 0.37469467513434296 0.46262823644357587
0.020838119000472943 0.37274059599413767 0.46262823644357587
0.021040467000602803 0.36687835857352225 0.45969711773326827
0.021242851999886625 0.36199316072300936 0.457743038593063
0.02144558899999538 0.35906204201270153 0.4528578407425501
0.021647956000379054 0.3551538837322912 0.4538348803126526
0.02185065600042435 0.3502686858817783 0.457743038593063
0.022052559000258043 0.34929164631167553 0.457743038593063
0.022256259000641876 0.34733756717147046 0.46165119687347334
0.02245860699986224 0.34733756717147046 0.46165119687347334
0.02266034500007663 0.348314606741573 0.46458231558378116
0.022863119000248844 0.34733756717147046 0.46946751343429405
0.0230659110002307 0.348314606741573 0.4684904738641915
0.02327146300012828 0.34733756717147046 0.4684904738641915
0.023474069999792846 0.3531998045920859 0.4665363947239862
0.023678825999922992 0.3551538837322912 0.4655593551538837
0.02388058100041235 0.358085002442599 0.467513434294089
0.024083948000225064 0.3610161211529066 0.46262823644357587
0.024286704000587633 0.3707865168539326 0.4606741573033708
0.024488830000336748 0.38251099169516367 0.45676599902296044
0.02469104800002242 0.4010747435271129 0.4538348803126526
0.02489298900036374 0.4186614557889594 0.44992672203224227
0.02511807700011559 0.441133365901319 0.4460185637518319
0.025378610000188928 0.45481191988275516 0.44406448461162684
0.025586771999769553 0.4665363947239862 0.4430874450415241
0.02579034300015337 0.4782608695652173 0.44211040547142155
0.025994821000494994 0.48705422569614076 0.4430874450415241
0.026199558000371326 0.4929164631167562 0.44406448461162684
0.02640272000007826 0.49877870053737183 0.44211040547142155
0.026605142999869713 0.49975574010747437 0.44406448461162684
0.026807232000464865 0.49682462139716654 0.4450415241817294
0.027025876000152493 0.4938935026868587 0.44699560332193444
0.02722970500053634 0.49193942354665365 0.4460185637518319
0.027432924000095227 0.48998534440644836 0.4430874450415241
0.027642216000458575 0.4909623839765511 0.4430874450415241
0.02784567600065202 0.4929164631167562 0.44406448461162684
0.028054709000571165 0.49682462139716654 0.4460185637518319
0.028260168000088015 0.49682462139716654 0.4460185637518319
0.028464127000006556 0.495847581827064 0.45188080117244755
0.028667161000157648 0.49877870053737183 0.45188080117244755
0.028870416000245314 0.49975574010747437 0.4538348803126526
0.029072227000142448 0.49975574010747437 0.45481191988275516
0.029275835000589723 0.5026868588177822 0.457743038593063
0.029478553000444663 0.5017098192476794 0.45481191988275516
0.029680772000574507 0.5026868588177822 0.4538348803126526
0.02988308300064091 0.5065950170981925 0.4479726428920372
0.030686623999827134 0.5202735710796287 0.4401563263312165
0.03105785800016747 0.5202735710796287 0.4352711284807034
0.03126796500055207 0.5192965315095261 0.4333170493404983
0.03147281300061877 0.5173424523693209 0.431362970200293
0.03170240100007504 0.5212506106497312 0.4323400097703958
0.031906786000035936 0.5183194919394236 0.431362970200293
0.032110005000504316 0.5192965315095261 0.43429408891060084
0.03231424200021138 0.5163654127992183 0.4333170493404983
0.032517442000425945 0.5144113336590133 0.43624816805080613
0.032719753000492346 0.5134342940889105 0.4352711284807034
0.032921656999860716 0.5163654127992183 0.43722520762090866
0.03312374600045587 0.5144113336590133 0.43624816805080613
0.03332714899988787 0.5144113336590133 0.4401563263312165
0.03353186799995456 0.5134342940889105 0.4382022471910112
0.03373654900042311 0.512457254518808 0.43624816805080613
0.03393817500000296 0.5114802149487054 0.4401563263312165
0.03414007900028082 0.5065950170981925 0.44211040547142155
0.03434148300038942 0.4929164631167562 0.44406448461162684
0.03454425700056163 0.4811919882755251 0.4460185637518319
0.0347464750002473 0.4684904738641915 0.44699560332193444
0.034949064000102226 0.45969711773326827 0.4528578407425501
0.035152041999936046 0.44992672203224227 0.4538348803126526
0.03535813100006635 0.44211040547142155 0.4538348803126526
0.035561257000154 0.4333170493404983 0.45481191988275516
0.035764975000347476 0.431362970200293 0.45481191988275516
0.035967638000329316 0.42452369320957506 0.45676599902296044
0.036170559999845864 0.42256961406936977 0.4557889594528579
0.03637325999989116 0.42452369320957506 0.4557889594528579
0.03657642300004227 0.42452369320957506 0.4509037616023448
0.036778659999981755 0.4303859306301905 0.4528578407425501
0.0369853600004717 0.4333170493404983 0.45188080117244755
0.0371886530001575 0.4401563263312165 0.44992672203224227
0.03739694500018231 0.4382022471910112 0.45188080117244755
0.03759968200029107 0.4382022471910112 0.45188080117244755
0.037803363999955764 0.43917928676111373 0.45188080117244755
0.038006138000127976 0.43722520762090866 0.4538348803126526
0.03820985600032145 0.43917928676111373 0.45188080117244755
0.03841185300007055 0.4333170493404983 0.45481191988275516
0.03861462700024276 0.4255007327796776 0.4557889594528579
0.03881677099980152 0.4235466536394723 0.4557889594528579
0.03902256400033366 0.41963849535906195 0.45481191988275516
0.039226263999808 0.4206155349291647 0.45481191988275516
0.039428240999768605 0.41670737664875435 0.45481191988275516
0.0396479780001755 0.41182217879824123 0.457743038593063
0.0398502340003688 0.4040058622374205 0.45676599902296044
0.040052414999991015 0.3981436248168051 0.45676599902296044
0.04025574500064977 0.38935026868588185 0.45969711773326827
0.04045838900037779 0.3834880312652662 0.46458231558378116
0.04066677399987384 0.376648754274548 0.4606741573033708
0.0408882520005136 0.37176355642403514 0.4636052760136786
0.04110224800024298 0.36492427943331696 0.46262823644357587
0.041308392000246386 0.36199316072300936 0.4655593551538837
0.041513629000291985 0.3561309233023937 0.4655593551538837
0.04171655099980853 0.35710796287249624 0.4665363947239862
0.04191902900038258 0.3512457254518808 0.46458231558378116
0.0421220620000895 0.35222276502198335 0.46458231558378116
0.04232537300049444 0.34733756717147046 0.46458231558378116
0.04252744400037045 0.348314606741573 0.46165119687347334
0.04272953300005611 0.348314606741573 0.46165119687347334
0.04293141800008016 0.348314606741573 0.46262823644357587
0.04313500700027362 0.3502686858817783 0.46165119687347334
0.043336744000043836 0.35417684416218864 0.4655593551538837
0.043543165999835765 0.35417684416218864 0.46262823644357587
0.04374640300011379 0.3551538837322912 0.46262823644357587
0.043955398999969475 0.35906204201270153 0.46262823644357587
0.04415832100039552 0.3629702002931119 0.4606741573033708
0.044360188000609924 0.37469467513434296 0.46262823644357587
0.04456249899976683 0.3913043478260869 0.4636052760136786
0.04476457000055234 0.40889106008793363 0.45481191988275516
0.04497606600034487 0.4264777723497801 0.4528578407425501
0.04518554300011601 0.44406448461162684 0.44992672203224227
0.04538907700043637 0.457743038593063 0.44992672203224227
0.045590683999762405 0.4684904738641915 0.4460185637518319
0.04579444000046351 0.4811919882755251 0.4460185637518319
0.04599710300044535 0.4880312652662433 0.4460185637518319
0.04619987700061756 0.495847581827064 0.4450415241817294
0.046411225000156264 0.5007327796775769 0.44406448461162684
0.046618999000202166 0.5017098192476794 0.44211040547142155
0.04682247599976108 0.49877870053737183 0.4460185637518319
0.047025713000039104 0.4948705422569615 0.4479726428920372
0.047228580000592046 0.49877870053737183 0.44699560332193444
0.04743137300010858 0.4909623839765511 0.4479726428920372
0.04764644300030341 0.4909623839765511 0.4528578407425501
0.04784927200034872 0.4880312652662433 0.4479726428920372
0.048051806000330544 0.48998534440644836 0.44992672203224227
0.04825689500012231 0.4929164631167562 0.4479726428920372
0.04845929800012527 0.4938935026868587 0.4479726428920372
0.04866264600059367 0.4948705422569615 0.4509037616023448
0.04886508700019476 0.4978016609672691 0.44699560332193444
0.04906810200009204 0.4978016609672691 0.44699560332193444
0.0492701909997777 0.495847581827064 0.4479726428920372
0.04947403900041536 0.4978016609672691 0.44894968246213973
0.04967638700054522 0.5007327796775769 0.45188080117244755
0.04987930900006177 0.5026868588177822 0.44894968246213973
0.050081194000085816 0.5065950170981925 0.44992672203224227
0.050284523999835073 0.5105031753786029 0.44992672203224227
0.05048622400045133 0.5134342940889105 0.4430874450415241
0.050688035000348464 0.5163654127992183 0.4450415241817294
0.0508906980003303 0.5183194919394236 0.44406448461162684
0.05109289800020633 0.5192965315095261 0.44211040547142155
0.051295357000526565 0.5192965315095261 0.43917928676111373
0.05149748300027568 0.5202735710796287 0.4401563263312165
0.05173129400009202 0.522227650219834 0.4382022471910112
0.05193647499982035 0.5202735710796287 0.4382022471910112
0.05213887900026748 0.5192965315095261 0.4382022471910112
0.05234189400016476 0.5173424523693209 0.4460185637518319
0.05254446399976587 0.5163654127992183 0.43722520762090866
0.05274734900012845 0.5153883732291158 0.4382022471910112
0.05294975300057558 0.5144113336590133 0.44211040547142155
0.05315174899988051 0.5134342940889105 0.43917928676111373
0.05335444899992581 0.5134342940889105 0.43917928676111373
0.05355685300037294 0.5114802149487054 0.43722520762090866
0.05375886799993168 0.512457254518808 0.441133365901319
0.053960809000273 0.5114802149487054 0.4352711284807034
0.05416337899987411 0.5036638983878847 0.4401563263312165
0.054365689999940514 0.4909623839765511 0.44211040547142155
0.054568409000239626 0.4782608695652173 0.44406448461162684
0.05478340500030754 0.46946751343429405 0.44894968246213973
0.05498788200020499 0.45676599902296044 0.44894968246213973
0.05522487800044473 0.4460185637518319 0.4528578407425501
0.05545348499981628 0.4382022471910112 0.4528578407425501
0.05567849900035071 0.431362970200293 0.4528578407425501
0.05589097699976264 0.42940889106008795 0.4528578407425501
0.0561046399998304 0.4264777723497801 0.4557889594528579
0.05632269099987752 0.42452369320957506 0.4538348803126526
0.056557724000413145 0.431362970200293 0.4538348803126526
0.05677607200050261 0.4323400097703958 0.4557889594528579
0.05699080900012632 0.43624816805080613 0.44992672203224227
0.05722400800004834 0.44211040547142155 0.44894968246213973
0.057446892999905685 0.44211040547142155 0.44894968246213973
0.057729943000595085 0.43917928676111373 0.44894968246213973
0.05799966100039455 0.4352711284807034 0.44992672203224227
0.058297637000578106 0.4323400097703958 0.44992672203224227
0.05863346400019509 0.42745481191988266 0.44992672203224227
0.059005253000577795 0.42452369320957506 0.4509037616023448
0.059288026000103855 0.4206155349291647 0.44894968246213973
0.059704166000301484 0.4108451392281387 0.45188080117244755
0.0599804210005459 0.4049829018075233 0.457743038593063
0.060210250000636734 0.3961895456765998 0.4528578407425501
0.06063559399990481 0.3805569125549584 0.45676599902296044
0.06089901500035921 0.3737176355642404 0.45676599902296044
0.061125715000343916 0.36687835857352225 0.45481191988275516
0.0613322290000724 0.3639472398632144 0.4587200781631655
0.06153468899992731 0.35906204201270153 0.46262823644357587
0.06173892600054387 0.3561309233023937 0.46165119687347334
0.061939311000060115 0.3561309233023937 0.4636052760136786
0.062139381000633875 0.3512457254518808 0.4655593551538837
0.06233974800034048 0.35417684416218864 0.46262823644357587
0.06253967000066041 0.348314606741573 0.46458231558378116
0.0627404260003459 0.34929164631167553 0.4606741573033708
0.06294057000013709 0.34733756717147046 0.46165119687347334
0.06314128899975913 0.34929164631167553 0.45969711773326827
0.06334134100052324 0.3512457254518808 0.46165119687347334
0.06356794800012722 0.35417684416218864 0.45969711773326827
0.06377999899996212 0.358085002442599 0.46165119687347334
0.06401003200062405 0.3629702002931119 0.4636052760136786
0.0642583979997653 0.3707865168539326 0.45969711773326827
0.06451905999983865 0.3883732291157791 0.45481191988275516
0.0647517590005009 0.4108451392281387 0.4557889594528579
0.064998032999938 0.431362970200293 0.4528578407425501
0.06525589800003218 0.4479726428920372 0.4528578407425501
0.06551711600059207 0.46262823644357587 0.4509037616023448
0.06580414700056281 0.4811919882755251 0.44992672203224227
0.06608256800063828 0.4880312652662433 0.44894968246213973
0.06636008199984644 0.4948705422569615 0.4528578407425501
0.06661859500036371 0.4948705422569615 0.44992672203224227
0.06684455400045408 0.4929164631167562 0.44894968246213973
0.06706379099978221 0.4909623839765511 0.44992672203224227
0.06729273100063438 0.4909623839765511 0.44894968246213973
0.06758385600005568 0.4909623839765511 0.44699560332193444
0.0678712019998784 0.4938935026868587 0.4479726428920372
0.06809190200056037 0.495847581827064 0.44992672203224227
0.0683084720003535 0.4978016609672691 0.4460185637518319
0.06852513500052737 0.5017098192476794 0.44992672203224227
0.06873427900063689 0.5056179775280898 0.4460185637518319
0.06894845999977406 0.5026868588177822 0.4479726428920372
0.069162253000286 0.5046409379579873 0.4460185637518319
0.06936576699990837 0.5046409379579873 0.4460185637518319
0.06957107800008089 0.5056179775280898 0.44699560332193444
0.06978503800019098 0.5085490962383976 0.4460185637518319
0.06999910800004727 0.5114802149487054 0.44406448461162684
0.07022273300026427 0.5153883732291158 0.44992672203224227
0.07044267400033277 0.5183194919394236 0.44992672203224227
0.07066159599980892 0.5202735710796287 0.4401563263312165
0.07088772099996277 0.522227650219834 0.44211040547142155
0.07110121700043237 0.5232046897899365 0.441133365901319
0.07131495400062704 0.5300439667806547 0.43917928676111373
0.07157565299985436 0.5232046897899365 0.43917928676111373
0.07179579700004979 0.5202735710796287 0.44211040547142155
0.07202125599997089 0.5192965315095261 0.4401563263312165
0.07223525200060976 0.5173424523693209 0.43722520762090866
0.07252513599996746 0.5163654127992183 0.43624816805080613
0.07276405700031319 0.5153883732291158 0.43722520762090866
0.0729735350005285 0.5183194919394236 0.43722520762090866
0.07317886400051066 0.5153883732291158 0.43722520762090866
0.07338171199990029 0.5134342940889105 0.43722520762090866
0.07358265299990308 0.5114802149487054 0.4382022471910112
0.07378727900049853 0.512457254518808 0.4401563263312165
0.07400918199982698 0.512457254518808 0.441133365901319
0.07422512300036033 0.5017098192476794 0.4430874450415241
0.07443934100047045 0.48705422569614076 0.4460185637518319
0.07465733700064447 0.47239863214460187 0.44992672203224227
0.07489605499995378 0.46165119687347334 0.45188080117244755
0.0751395320003212 0.4538348803126526 0.45188080117244755
0.07539745299982314 0.4401563263312165 0.45676599902296044
0.07573148400024365 0.4284318514899854 0.457743038593063
0.07600090500000078 0.4235466536394723 0.45969711773326827
0.0762675300002229 0.4206155349291647 0.45676599902296044
0.0765351730005932 0.4255007327796776 0.4557889594528579
0.07677570600026229 0.431362970200293 0.4538348803126526
0.07700247899992974 0.4352711284807034 0.4509037616023448
0.07724243800021213 0.4382022471910112 0.44894968246213973
0.07751634000032936 0.44211040547142155 0.44406448461162684
0.07778653900004429 0.43917928676111373 0.4430874450415241
0.07806853400052205 0.43624816805080613 0.44406448461162684
0.07832175200019265 0.4323400097703958 0.44406448461162684
0.07855221000045276 0.42745481191988266 0.44406448461162684
0.07878707600048074 0.4255007327796776 0.44699560332193444
0.07900881300065521 0.42159257449926724 0.45188080117244755
0.07923980899977323 0.4186614557889594 0.4528578407425501
0.07948797100016236 0.4137762579384465 0.45676599902296044
0.07985305700003664 0.4049829018075233 0.4587200781631655
0.08026540100036073 0.3883732291157791 0.45969711773326827
0.08054150699990714 0.3805569125549584 0.4636052760136786
0.08080435400006536 0.3737176355642404 0.4655593551538837
0.08103325800038874 0.3659013190034197 0.46458231558378116
0.08124053200026538 0.3629702002931119 0.46458231558378116
0.08144136100054311 0.358085002442599 0.46458231558378116
0.08164406100058841 0.3531998045920859 0.4636052760136786
0.08184389100006229 0.35222276502198335 0.4636052760136786
0.08204460900014965 0.34636052760136793 0.46262823644357587
0.08224979100032215 0.34733756717147046 0.4636052760136786
0.08245062100013456 0.348314606741573 0.46165119687347334
0.08265128400034882 0.3453834880312652 0.46165119687347334
0.08285172400064766 0.34636052760136793 0.46165119687347334
0.0830517949998466 0.34733756717147046 0.46165119687347334
0.08325134700044146 0.3502686858817783 0.4606741573033708
0.08345195400033845 0.35222276502198335 0.46262823644357587
0.08368095000059839 0.3551538837322912 0.46165119687347334
0.08388196499981859 0.358085002442599 0.4636052760136786
0.08408181300001161 0.3629702002931119 0.4655593551538837
0.08428056899992953 0.3707865168539326 0.4636052760136786
0.08447995400001673 0.3854421104054715 0.45676599902296044
0.08467922799991356 0.4040058622374205 0.45676599902296044
0.08488144600050873 0.42159257449926724 0.45188080117244755
0.08508190600059606 0.4382022471910112 0.44894968246213973
0.08528266099983739 0.4528578407425501 0.4460185637518319
0.08548262099975545 0.46458231558378116 0.441133365901319
0.08568143200045597 0.4782608695652173 0.44211040547142155
0.08588250200045877 0.4851001465559355 0.44211040547142155
0.08608249799999612 0.4948705422569615 0.4430874450415241
0.08628197600046406 0.5007327796775769 0.441133365901319
0.08648206500038214 0.5036638983878847 0.44211040547142155
0.0866814320006597 0.5007327796775769 0.4460185637518319
0.08689772399975482 0.5007327796775769 0.44699560332193444
0.08709946100043453 0.495847581827064 0.4479726428920372
0.08730093899976055 0.49682462139716654 0.4509037616023448
0.08750154700010171 0.4978016609672691 0.44894968246213973
0.08773148700038291 0.5007327796775769 0.4509037616023448
0.08793672400042851 0.5026868588177822 0.44992672203224227
0.08814070200060087 0.5017098192476794 0.4528578407425501
0.08834266099984234 0.5036638983878847 0.4509037616023448
0.0885516380003537 0.5056179775280898 0.44894968246213973
0.08875374600029318 0.5065950170981925 0.4509037616023448
0.08895666799980972 0.5095261358085001 0.4430874450415241
0.08915923800032033 0.5075720566682951 0.4430874450415241
0.08936180900036561 0.5075720566682951 0.44211040547142155
0.08956441600003018 0.5065950170981925 0.4401563263312165
0.08976583799994842 0.5095261358085001 0.4382022471910112
0.08996855700024753 0.512457254518808 0.43624816805080613
0.09017209000012372 0.5134342940889105 0.43624816805080613
0.09037480900042283 0.5153883732291158 0.4352711284807034
0.09057700900029886 0.5163654127992183 0.4382022471910112
0.09078337499977351 0.5202735710796287 0.4401563263312165
0.09098666800036881 0.5183194919394236 0.44211040547142155
0.09118799800035049 0.5212506106497312 0.441133365901319
0.09138940100001491 0.5192965315095261 0.4430874450415241
0.09159497200016631 0.5192965315095261 0.4450415241817294
0.09179778300040198 0.5173424523693209 0.4450415241817294
0.09219027600011032 0.5173424523693209 0.4430874450415241
0.0924343080005201 0.5163654127992183 0.44211040547142155
0.09264215599978343 0.5134342940889105 0.4460185637518319
0.09284922599999845 0.5163654127992183 0.4430874450415241
0.09305205600048794 0.5163654127992183 0.44211040547142155
0.09325621900006809 0.5144113336590133 0.44211040547142155
0.09345914100049413 0.512457254518808 0.44211040547142155
0.09366187800060288 0.512457254518808 0.441133365901319
0.09386343000005581 0.5114802149487054 0.4450415241817294
0.09406635200048186 0.5085490962383976 0.43917928676111373
0.09426927500044258 0.49877870053737183 0.44406448461162684
0.09447260400065716 0.4851001465559355 0.45188080117244755
0.09467837800002599 0.47239863214460187 0.4479726428920372
0.09488128200064239 0.4606741573033708 0.44894968246213973
0.09508451900001091 0.4538348803126526 0.44894968246213973
0.09528786700047931 0.4460185637518319 0.4509037616023448
0.09549051100020733 0.4401563263312165 0.4479726428920372
0.09570452600019053 0.4323400097703958 0.4460185637518319
0.09590715200010891 0.4303859306301905 0.44894968246213973
0.09610994500053494 0.4264777723497801 0.44992672203224227
0.09631203299977642 0.431362970200293 0.4538348803126526
0.09651625200058334 0.4284318514899854 0.457743038593063
0.09671808199982479 0.431362970200293 0.45188080117244755
0.09691974500037759 0.43624816805080613 0.4538348803126526
0.09712238900010561 0.44211040547142155 0.4528578407425501
0.09732545899987599 0.4430874450415241 0.4538348803126526
0.09752677000051335 0.44211040547142155 0.4528578407425501
0.09772935900036828 0.441133365901319 0.4509037616023448
0.09793133699986356 0.4401563263312165 0.45188080117244755
0.09813316700001451 0.4352711284807034 0.4509037616023448
0.09833547800008091 0.4303859306301905 0.45188080117244755
0.09853721499985113 0.42745481191988266 0.4509037616023448
0.09874063700044644 0.4264777723497801 0.45188080117244755
0.09894367000015336 0.4235466536394723 0.4509037616023448
0.09914516700064269 0.42256961406936977 0.45188080117244755
0.09934694100047636 0.4186614557889594 0.4557889594528579
0.09955082600026799 0.4137762579384465 0.4557889594528579
0.09975350800050364 0.40693698094772834 0.4557889594528579
0.09995737400004145 0.40205178309721545 0.45481191988275516
0.10016066700063675 0.39423546653639474 0.45676599902296044
0.10036484800002654 0.3883732291157791 0.4557889594528579
0.10056745600013528 0.3786028334147533 0.45676599902296044
0.10076991500045551 0.3756717147044455 0.45676599902296044
0.100972152000395 0.36980947728383007 0.457743038593063
0.10117374099991139 0.3639472398632144 0.45676599902296044
0.10137590400063345 0.3610161211529066 0.4636052760136786
0.1015777890006575 0.35710796287249624 0.4636052760136786
0.10178106300008949 0.3551538837322912 0.457743038593063
0.1019839669997964 0.35417684416218864 0.45969711773326827
0.10218814800009568 0.35222276502198335 0.45969711773326827
0.10239095900033135 0.3512457254518808 0.45969711773326827
0.1025931780004612 0.35222276502198335 0.46165119687347334
0.10279715500018938 0.35222276502198335 0.45969711773326827
0.10299937400031922 0.3551538837322912 0.46165119687347334
0.10320131500066054 0.35417684416218864 0.45969711773326827
0.10340497800007142 0.3561309233023937 0.46262823644357587
0.10363013999995019 0.36003908158280407 0.46165119687347334
0.10383765500046138 0.3629702002931119 0.46262823644357587
0.10404015099993558 0.36492427943331696 0.46165119687347334
0.10424190699995961 0.37274059599413767 0.46165119687347334
0.1044441439998991 0.3854421104054715 0.457743038593063
0.10466151000036916 0.4040058622374205 0.4538348803126526
0.10486478399980115 0.4206155349291647 0.4538348803126526
0.10506705799980409 0.43624816805080613 0.44894968246213973
0.10527657300008286 0.45188080117244755 0.4557889594528579
0.10547892100021272 0.4655593551538837 0.4460185637518319
0.10568095500002528 0.47728382999511476 0.44406448461162684
0.10588320999977441 0.48705422569614076 0.44211040547142155
0.10608546599996771 0.4938935026868587 0.4430874450415241
0.10628818399982265 0.49975574010747437 0.43917928676111373
0.10648984700037545 0.5017098192476794 0.441133365901319
0.10669226900063222 0.5026868588177822 0.43917928676111373
0.10689472900048713 0.49682462139716654 0.43917928676111373
0.10709731800034206 0.4948705422569615 0.4450415241817294
0.10730740600047284 0.49193942354665365 0.44894968246213973
0.10754127200016228 0.4929164631167562 0.44992672203224227
0.10776873099985096 0.4909623839765511 0.45188080117244755
0.10798755999985588 0.49682462139716654 0.4557889594528579
0.10819492700011324 0.49877870053737183 0.4528578407425501
0.10839909000060288 0.49975574010747437 0.4538348803126526
0.10860228999990795 0.5007327796775769 0.4528578407425501
0.10880747100054577 0.5026868588177822 0.44894968246213973
0.10900974500054872 0.5046409379579873 0.4460185637518319
0.10921248300019215 0.5007327796775769 0.44211040547142155
0.10941547899983561 0.5056179775280898 0.441133365901319
0.10961778999990202 0.5065950170981925 0.44406448461162684
0.10982195300039166 0.5046409379579873 0.44211040547142155
0.11002359699978115 0.5075720566682951 0.441133365901319
0.1102254819998052 0.5114802149487054 0.441133365901319
0.1104285900000832 0.512457254518808 0.44211040547142155
0.11063021600057255 0.5153883732291158 0.44406448461162684
0.11083362000044872 0.5202735710796287 0.44406448461162684
0.11103815300066344 0.5192965315095261 0.4430874450415241
0.1112440750002861 0.5212506106497312 0.44211040547142155
0.11146303399982571 0.5202735710796287 0.4382022471910112
0.11167091900006199 0.5202735710796287 0.43624816805080613
0.1118743410006573 0.5202735710796287 0.43722520762090866
0.11207726300017384 0.5183194919394236 0.4479726428920372
0.11227987100028258 0.5163654127992183 0.45188080117244755
0.11248288600017986 0.5134342940889105 0.4382022471910112
0.11268445600035193 0.5105031753786029 0.44211040547142155
0.11288678599976265 0.5095261358085001 0.441133365901319
0.11308854100025201 0.5105031753786029 0.4401563263312165
0.11329127800036076 0.512457254518808 0.44211040547142155
0.11349336700004642 0.5095261358085001 0.4430874450415241
0.11369527100032428 0.5114802149487054 0.441133365901319
0.11389704500015796 0.5105031753786029 0.44406448461162684
0.11410181900009775 0.5036638983878847 0.44211040547142155
0.11430592600027012 0.4929164631167562 0.44211040547142155
0.11450779300048453 0.48216902784562765 0.44699560332193444
0.11471034500027599 0.47239863214460187 0.4450415241817294
0.11491234100049041 0.45969711773326827 0.4450415241817294
0.11511583700030315 0.45188080117244755 0.44894968246213973
0.1153183149999677 0.4450415241817294 0.45188080117244755
0.11553303399978176 0.43722520762090866 0.44894968246213973
0.11573875200065231 0.4333170493404983 0.4557889594528579
0.11594082200008415 0.4284318514899854 0.45188080117244755
0.11614313300015056 0.4264777723497801 0.4528578407425501
0.11634716700064018 0.4255007327796776 0.45188080117244755
0.11654970000017784 0.4303859306301905 0.45188080117244755
0.11675254800047696 0.43429408891060084 0.44992672203224227
0.11695465600041643 0.43917928676111373 0.44894968246213973
0.1171604480005044 0.441133365901319 0.4479726428920372
0.11736681500042323 0.44406448461162684 0.44992672203224227
0.11757186700015154 0.44406448461162684 0.44992672203224227
0.11777454799994302 0.44992672203224227 0.45188080117244755
0.11797608100005164 0.43917928676111373 0.44992672203224227
0.11817839200011804 0.43429408891060084 0.4509037616023448
0.1183857590003754 0.431362970200293 0.4509037616023448
0.11858805200063216 0.42940889106008795 0.4509037616023448
0.11879004799993709 0.4255007327796776 0.45188080117244755
0.11899304400049004 0.4235466536394723 0.45188080117244755
0.1191951330001757 0.42159257449926724 0.44992672203224227
0.11939825900026335 0.4176844162188569 0.44894968246213973
0.11961518099997193 0.4137762579384465 0.44992672203224227
0.11981947399999626 0.40889106008793363 0.44992672203224227
0.12002250700061268 0.40205178309721545 0.4528578407425501
0.12022481799976958 0.39228138739618945 0.45676599902296044
0.12042683300023782 0.38739618954567656 0.4538348803126526
0.12077147499985585 0.37469467513434296 0.4557889594528579
0.12098950800009334 0.3707865168539326 0.4557889594528579
0.12119567100035056 0.3629702002931119 0.4606741573033708
0.12139885200031131 0.36003908158280407 0.46262823644357587
0.12160162600048352 0.3561309233023937 0.4636052760136786
0.1218040479998308 0.35710796287249624 0.46458231558378116
0.12201837800057547 0.3512457254518808 0.4665363947239862
0.12223141100002977 0.3502686858817783 0.4665363947239862
0.12245007399997121 0.34733756717147046 0.4655593551538837
0.12267419900035748 0.34733756717147046 0.4655593551538837
0.1229001950005113 0.35417684416218864 0.4655593551538837
0.12314870899990638 0.3512457254518808 0.4636052760136786
0.12336587200024951 0.3531998045920859 0.45969711773326827
0.12358638600017002 0.3561309233023937 0.46165119687347334
0.12382617799994478 0.36003908158280407 0.45969711773326827
0.1240918210005475 0.3659013190034197 0.45969711773326827
0.12436290900041058 0.3786028334147533 0.4538348803126526
0.12470953200045187 0.40889106008793363 0.45188080117244755
0.12505385900021793 0.441133365901319 0.44894968246213973
0.12535996499991597 0.45969711773326827 0.44992672203224227
0.12570323599993571 0.4782608695652173 0.44992672203224227
0.1259682680001788 0.48998534440644836 0.44992672203224227
0.126189505000184 0.495847581827064 0.44894968246213973
0.12645450000036362 0.49975574010747437 0.45188080117244755
0.12666592200002924 0.4978016609672691 0.4557889594528579
0.1268892150001193 0.4929164631167562 0.45481191988275516
0.12709356300001673 0.4929164631167562 0.4557889594528579
0.12729491099980805 0.49193942354665365 0.45481191988275516
0.12749525900017034 0.49193942354665365 0.45676599902296044
0.12772443999983807 0.49193942354665365 0.4557889594528579
0.1279241030006233 0.4948705422569615 0.4528578407425501
0.12812530300016078 0.4948705422569615 0.4557889594528579
0.12832735499978298 0.49877870053737183 0.4528578407425501
0.1285272770001029 0.4978016609672691 0.4528578407425501
0.12873129200033873 0.5026868588177822 0.4509037616023448
0.12893141800032026 0.49877870053737183 0.44992672203224227
0.12913213600040763 0.5007327796775769 0.45188080117244755
0.1293340590000298 0.5065950170981925 0.44894968246213973
0.12953522200041334 0.5046409379579873 0.44699560332193444
0.12973525500001415 0.5046409379579873 0.44894968246213973
0.12994054800037702 0.5085490962383976 0.45188080117244755
0.1301405069998509 0.5114802149487054 0.4460185637518319
0.13033965100021305 0.512457254518808 0.4430874450415241
0.1305431850005334 0.5163654127992183 0.44211040547142155
0.1307459400004518 0.5173424523693209 0.44211040547142155
0.13096123300056206 0.5192965315095261 0.4430874450415241
0.13116580299993075 0.5212506106497312 0.441133365901319
0.13137129900042055 0.5212506106497312 0.44406448461162684
0.13157609200061415 0.5202735710796287 0.44406448461162684
0.1317775690004055 0.5173424523693209 0.44992672203224227
0.13197778799985826 0.5192965315095261 0.4401563263312165
0.13217717299994547 0.5163654127992183 0.4382022471910112
0.13238435499988555 0.5153883732291158 0.43722520762090866
0.13258724000024813 0.5134342940889105 0.43624816805080613
0.13278679199993348 0.5144113336590133 0.431362970200293
0.1329878810001901 0.5134342940889105 0.431362970200293
0.13318928399985452 0.5144113336590133 0.4333170493404983
0.13338894700063975 0.512457254518808 0.4333170493404983
0.1335879810003462 0.5095261358085001 0.4333170493404983
0.13378751399977773 0.5105031753786029 0.43429408891060084
0.1339873990000342 0.5075720566682951 0.4352711284807034
0.13418659899980412 0.49877870053737183 0.43722520762090866
0.1343860590004624 0.48412310698583294 0.43917928676111373
0.1345855740000843 0.47435271128480694 0.44406448461162684
0.13479058800021448 0.46262823644357587 0.4460185637518319
0.1349918810001327 0.4528578407425501 0.4460185637518319
0.13519283999994514 0.4479726428920372 0.4479726428920372
0.13539107700034947 0.43722520762090866 0.44992672203224227
0.13559229600014078 0.4323400097703958 0.45188080117244755
0.1357931809998263 0.4284318514899854 0.4538348803126526
0.13599541799976578 0.42452369320957506 0.4538348803126526
0.13619595199998002 0.4206155349291647 0.4528578407425501
0.1363962810000885 0.4206155349291647 0.4538348803126526
0.1365952220003237 0.42745481191988266 0.45188080117244755
0.1367951259999245 0.42745481191988266 0.44992672203224227
0.13699415900009626 0.4333170493404983 0.4479726428920372
0.13720213699980377 0.43722520762090866 0.44699560332193444
0.13740152199989097 0.43722520762090866 0.44406448461162684
0.13760348100004194 0.4382022471910112 0.44699560332193444
0.13780253300046752 0.43624816805080613 0.44992672203224227
0.13800228899981448 0.4323400097703958 0.45188080117244755
0.13820341500013456 0.4303859306301905 0.4538348803126526
0.1384026330006236 0.42940889106008795 0.45676599902296044
0.13861912900028983 0.4235466536394723 0.45676599902296044
0.1388185149999117 0.42256961406936977 0.45969711773326827
0.13901754800008348 0.4206155349291647 0.45969711773326827
0.13921774800019193 0.4176844162188569 0.4587200781631655
0.1394173190001311 0.4137762579384465 0.45676599902296044
0.1396371660002842 0.41182217879824123 0.45481191988275516
0.1398394960006044 0.40205178309721545 0.4528578407425501
0.1400422520000575 0.39716658524670256 0.4528578407425501
0.14024445199993352 0.3913043478260869 0.45188080117244755
0.14044670700059214 0.38446507083536874 0.45481191988275516
0.1406497030002356 0.3786028334147533 0.45481191988275516
0.14085171799979435 0.37274059599413767 0.46165119687347334
0.14107378800053993 0.36687835857352225 0.45676599902296044
0.1412874510006077 0.3629702002931119 0.4557889594528579
0.14149142899987055 0.3610161211529066 0.45481191988275516
0.14169335099995806 0.35417684416218864 0.4587200781631655
0.1418954400005532 0.35417684416218864 0.45969711773326827
0.14209706600013305 0.35222276502198335 0.46165119687347334
0.14229930300007254 0.34929164631167553 0.467513434294089
0.1425032810002449 0.34929164631167553 0.46262823644357587
0.14270433199999388 0.34929164631167553 0.4655593551538837
0.14290888400046242 0.3502686858817783 0.4636052760136786
0.14311147300031735 0.348314606741573 0.4606741573033708
0.14331341400065867 0.3512457254518808 0.46458231558378116
0.14353287300036754 0.3561309233023937 0.45969711773326827
0.1437380730003497 0.358085002442599 0.46165119687347334
0.14394012499997189 0.36492427943331696 0.45676599902296044
0.14414169500014395 0.36980947728383007 0.45676599902296044
0.1443483950006339 0.37957987298485585 0.4587200781631655
0.14457705699987855 0.3961895456765998 0.4557889594528579
0.14486373700037802 0.42452369320957506 0.44894968246213973
0.14516951000041445 0.4479726428920372 0.44894968246213973
0.14550320699981967 0.46946751343429405 0.4450415241817294
0.14588395900045725 0.4851001465559355 0.441133365901319
0.14632763600002363 0.4978016609672691 0.4430874450415241
0.14680101700014347 0.4978016609672691 0.44992672203224227
0.14725599000030343 0.49193942354665365 0.44699560332193444
0.14760679800019716 0.49193942354665365 0.4460185637518319
0.1479345520001516 0.4948705422569615 0.4450415241817294
0.14816895500007377 0.49877870053737183 0.4479726428920372
0.14839902499988966 0.5007327796775769 0.44699560332193444
0.1486180020001484 0.49877870053737183 0.4450415241817294
0.1488394240004709 0.5036638983878847 0.4450415241817294
0.14906925300056173 0.5026868588177822 0.44699560332193444
0.14929408199986938 0.5026868588177822 0.4460185637518319
0.1495152080005937 0.5036638983878847 0.4460185637518319
0.1497246670005552 0.5036638983878847 0.4430874450415241
0.14992857100060064 0.5075720566682951 0.44406448461162684
0.1501311040001383 0.5114802149487054 0.44406448461162684
0.15033584100001463 0.5114802149487054 0.4430874450415241
0.15053793000060978 0.5144113336590133 0.4430874450415241
0.15073968500018964 0.5183194919394236 0.44211040547142155
0.15094164499987528 0.5183194919394236 0.441133365901319
0.1511438450006608 0.5202735710796287 0.4401563263312165
0.15134528500038869 0.5183194919394236 0.4430874450415241
0.1515574850000121 0.522227650219834 0.44211040547142155
0.1517604440005016 0.5192965315095261 0.44211040547142155
0.1521127530004378 0.5173424523693209 0.4430874450415241
0.1523305820001042 0.5173424523693209 0.4430874450415241
0.15253442999983235 0.5153883732291158 0.43917928676111373
0.15273764900030073 0.5134342940889105 0.4382022471910112
0.15293892299996514 0.5144113336590133 0.43624816805080613
0.1531414560004123 0.5153883732291158 0.4352711284807034
0.15334382299988647 0.5153883732291158 0.43429408891060084
0.1535461530002067 0.5134342940889105 0.4323400097703958
0.15374790799978655 0.5163654127992183 0.43624816805080613
0.153955644999769 0.5114802149487054 0.4352711284807034
0.1541727150006409 0.5007327796775769 0.4382022471910112
0.15438778499992623 0.4880312652662433 0.44406448461162684
0.1545975039998666 0.4782608695652173 0.44699560332193444
0.1548004630003561 0.4636052760136786 0.44699560332193444
0.15500314400014759 0.45676599902296044 0.45188080117244755
0.1552102149998973 0.4460185637518319 0.45188080117244755
0.15541217400004825 0.43917928676111373 0.4557889594528579
0.1556319480005186 0.43429408891060084 0.457743038593063
0.1558339250004792 0.42745481191988266 0.46165119687347334
0.1560367000001861 0.42256961406936977 0.46165119687347334
0.1562417880004432 0.42452369320957506 0.4636052760136786
0.15644387700012885 0.42452369320957506 0.4636052760136786
0.15664605900019524 0.4303859306301905 0.4655593551538837
0.15684883300036745 0.43624816805080613 0.457743038593063
0.15705284800060326 0.43917928676111373 0.45676599902296044
0.15725714000018343 0.44211040547142155 0.4557889594528579
0.15746052499980578 0.44894968246213973 0.45481191988275516
0.15766931800044404 0.4450415241817294 0.4528578407425501
0.15789061000032234 0.43917928676111373 0.4509037616023448
0.15813829099988652 0.4382022471910112 0.4538348803126526
0.15837160099999892 0.4303859306301905 0.4509037616023448
0.15857639400019252 0.42745481191988266 0.45481191988275516
0.15878164900004776 0.4235466536394723 0.4538348803126526
0.15898316400034673 0.42256961406936977 0.45481191988275516
0.15918793800028652 0.41963849535906195 0.4528578407425501
0.15939021200028947 0.4176844162188569 0.45188080117244755
0.1596178380004858 0.412799218368344 0.45188080117244755
0.15982366700063722 0.40693698094772834 0.45188080117244755
0.16002553399994213 0.39912066438690763 0.4538348803126526
0.16023280799981876 0.3932584269662922 0.45481191988275516
0.16044572999999218 0.38739618954567656 0.45676599902296044
0.16069244800019078 0.376648754274548 0.4557889594528579
0.16092570300043008 0.36980947728383007 0.45676599902296044
0.16123012299976835 0.3639472398632144 0.46165119687347334
0.16144771200015384 0.3610161211529066 0.4636052760136786
0.16165356000055908 0.3610161211529066 0.4636052760136786
0.1618571859999065 0.3531998045920859 0.4665363947239862
0.1620596820002902 0.3531998045920859 0.4665363947239862
0.16226540000025125 0.3512457254518808 0.46262823644357587
0.16246936000061396 0.3512457254518808 0.46262823644357587
0.16267165200042655 0.3512457254518808 0.4636052760136786
0.1628745930001969 0.3512457254518808 0.4636052760136786
0.16307907100053853 0.3502686858817783 0.46165119687347334
0.16328269699988596 0.3531998045920859 0.4655593551538837
0.16348584099978325 0.35710796287249624 0.46458231558378116
0.16369118900001922 0.358085002442599 0.46458231558378116
0.16389340800014907 0.36199316072300936 0.467513434294089
0.16409571900021547 0.3678553981436248 0.4636052760136786
0.1642989560004935 0.3756717147044455 0.46165119687347334
0.1645021740005177 0.39228138739618945 0.4587200781631655
0.16470457800005533 0.40889106008793363 0.45676599902296044
0.16490805600005842 0.4255007327796776 0.4528578407425501
0.16511066300063248 0.44406448461162684 0.44894968246213973
0.16531386299993756 0.457743038593063 0.44894968246213973
0.16552256300019508 0.4684904738641915 0.4479726428920372
0.16572613300013472 0.47923790913532005 0.4450415241817294
0.1659286300000531 0.48900830483634583 0.44406448461162684
0.1661310150002464 0.4938935026868587 0.441133365901319
0.16633345500031282 0.5017098192476794 0.4401563263312165
0.16653635900001973 0.5026868588177822 0.44211040547142155
0.1667384669999592 0.5065950170981925 0.44211040547142155
0.16694137000013143 0.49682462139716654 0.44894968246213973
0.16714407000017673 0.49682462139716654 0.44992672203224227
0.16735160400003224 0.4938935026868587 0.4509037616023448
0.16755632200056425 0.4948705422569615 0.4509037616023448
0.16775907800001733 0.4938935026868587 0.44992672203224227
0.1679637779998302 0.495847581827064 0.4528578407425501
0.16816684800051007 0.4978016609672691 0.4509037616023448
0.1683693069999208 0.49975574010747437 0.4528578407425501
0.16857230300047377 0.5017098192476794 0.44992672203224227
0.16877459599982103 0.5017098192476794 0.44992672203224227
0.16898737000065012 0.5007327796775769 0.44992672203224227
0.16920582900002046 0.5017098192476794 0.4479726428920372
0.16943284300032246 0.5065950170981925 0.4479726428920372
0.16965176499979862 0.5046409379579873 0.4479726428920372
0.1698636319997604 0.5114802149487054 0.44894968246213973
0.1700667760005672 0.512457254518808 0.4460185637518319
0.1702703279997877 0.5134342940889105 0.4460185637518319
0.1704719910003405 0.5163654127992183 0.44699560332193444
0.17067780199977278 0.5183194919394236 0.4460185637518319
0.17089740900064498 0.5183194919394236 0.4450415241817294
0.1711170899998251 0.522227650219834 0.4450415241817294
0.17133540099985112 0.5183194919394236 0.4430874450415241
0.1715704710004502 0.5202735710796287 0.4450415241817294
0.17179963299986412 0.5183194919394236 0.44211040547142155
0.17203012900063186 0.5183194919394236 0.441133365901319
0.17224736600019241 0.5153883732291158 0.4382022471910112
0.17246636199979548 0.5153883732291158 0.4382022471910112
0.1727009870000984 0.5144113336590133 0.43722520762090866
0.17294952000065678 0.5163654127992183 0.4352711284807034
0.17317279300004884 0.512457254518808 0.43624816805080613
0.1734328070006086 0.5095261358085001 0.4382022471910112
0.17368652500044846 0.5105031753786029 0.43722520762090866
0.17393257599997014 0.5134342940889105 0.43722520762090866
0.1741633860001457 0.49877870053737183 0.43917928676111373
0.17437843800053088 0.486077186126038 0.44211040547142155
0.17460284099979617 0.4704445530043966 0.4479726428920372
0.1748149109998849 0.46458231558378116 0.4479726428920372
0.1750239450002482 0.45188080117244755 0.44992672203224227
0.17522938500042073 0.4430874450415241 0.4528578407425501
0.17543180699976801 0.4382022471910112 0.45481191988275516
0.1756481000002168 0.4323400097703958 0.4538348803126526
0.17585439200047404 0.4264777723497801 0.4528578407425501
0.176057980999758 0.4255007327796776 0.45481191988275516
0.1762636069997825 0.42256961406936977 0.4557889594528579
0.1764665850005258 0.42452369320957506 0.45188080117244755
0.17667008100033854 0.4284318514899854 0.45188080117244755
0.17687291099991853 0.4323400097703958 0.44894968246213973
0.1770801480006412 0.4352711284807034 0.44992672203224227
0.17728590299975622 0.4382022471910112 0.45188080117244755
0.17748849200052064 0.43917928676111373 0.4509037616023448
0.17769174800014298 0.43917928676111373 0.4528578407425501
0.1778958920003788 0.4352711284807034 0.45676599902296044
0.17810003600061464 0.4333170493404983 0.4587200781631655
0.1783031619997928 0.4303859306301905 0.45676599902296044
0.17850688100043044 0.4284318514899854 0.45676599902296044
0.17871024699979898 0.42452369320957506 0.4557889594528579
0.17891263300043647 0.42452369320957506 0.457743038593063
0.1791171660006512 0.42159257449926724 0.4557889594528579
0.17932049600040045 0.4176844162188569 0.45481191988275516
0.17955137999979343 0.412799218368344 0.45481191988275516
0.17975576499975432 0.4079140205178309 0.4528578407425501
0.17996029900041322 0.40009770395701016 0.4538348803126526
0.1801642950003952 0.3913043478260869 0.4557889594528579
0.18036690200005978 0.38739618954567656 0.4557889594528579
0.18057023199980904 0.3805569125549584 0.457743038593063
0.1807728390003831 0.37274059599413767 0.457743038593063
0.18097650199979398 0.36980947728383007 0.457743038593063
0.18118596099975548 0.3629702002931119 0.4587200781631655
0.18138904999977967 0.36003908158280407 0.46165119687347334
0.1818271720003395 0.35222276502198335 0.46458231558378116
0.18206840800030477 0.3502686858817783 0.46458231558378116
0.18227890399975877 0.358085002442599 0.4636052760136786
0.1824848820006082 0.34929164631167553 0.4636052760136786
0.18268932299997687 0.34929164631167553 0.46262823644357587
0.1828919119998318 0.34929164631167553 0.46262823644357587
0.1830983150002794 0.34929164631167553 0.46262823644357587
0.18330138600049395 0.35222276502198335 0.46262823644357587
0.18350414100041235 0.35417684416218864 0.4636052760136786
0.18373413700010133 0.358085002442599 0.45969711773326827
0.18393879999985074 0.36003908158280407 0.4606741573033708
0.18414168500021333 0.3678553981436248 0.45969711773326827
0.1843441070004701 0.3776257938446508 0.4606741573033708
0.18454689999998664 0.39423546653639474 0.457743038593063
0.18474995199994737 0.412799218368344 0.4557889594528579
0.1849521519998234 0.4303859306301905 0.4538348803126526
0.18515494399980525 0.4460185637518319 0.45188080117244755
0.1853570330004004 0.4587200781631655 0.44894968246213973
0.18556049200014968 0.47142159257449934 0.44992672203224227
0.18576313700032188 0.4802149487054226 0.44894968246213973
0.185965263000071 0.4880312652662433 0.44699560332193444
0.1861669999998412 0.495847581827064 0.4460185637518319
0.18636982899988652 0.5017098192476794 0.4479726428920372
0.18657165900003747 0.5007327796775769 0.4479726428920372
0.18677437800033658 0.5036638983878847 0.4528578407425501
0.1869767630005299 0.4978016609672691 0.44992672203224227
0.18717953699979262 0.495847581827064 0.44992672203224227
0.1873811260002185 0.4948705422569615 0.44894968246213973
0.18758454799990432 0.4978016609672691 0.44894968246213973
0.1877865810001822 0.4938935026868587 0.44699560332193444
0.18798876300024858 0.495847581827064 0.44699560332193444
0.18819112900018808 0.49877870053737183 0.4460185637518319
0.18839540400040278 0.49877870053737183 0.4479726428920372
0.18859749200055376 0.5026868588177822 0.4479726428920372
0.18880080400049337 0.5026868588177822 0.44699560332193444
0.18900294800005213 0.5007327796775769 0.44992672203224227
0.18920461100060493 0.5017098192476794 0.44894968246213973
0.18940684800054441 0.5017098192476794 0.44992672203224227
0.1896105850000822 0.5065950170981925 0.4538348803126526
0.18981208100012736 0.5085490962383976 0.44992672203224227
0.1900168180000037 0.5114802149487054 0.44894968246213973
0.19023127699983888 0.5134342940889105 0.44894968246213973
0.19043577400043432 0.5183194919394236 0.4479726428920372
0.1906386589998874 0.5192965315095261 0.44894968246213973
0.1908403770003133 0.5202735710796287 0.4460185637518319
0.19104211400008353 0.5192965315095261 0.4430874450415241
0.19124416600061522 0.5192965315095261 0.4430874450415241
0.19144610700004705 0.5192965315095261 0.44406448461162684
0.191652807000537 0.522227650219834 0.44211040547142155
0.1918560250005612 0.5212506106497312 0.4401563263312165
0.19205894800052192 0.524181729360039 0.4382022471910112
0.1922609809998903 0.5202735710796287 0.441133365901319
0.19246482900052797 0.5183194919394236 0.4382022471910112
0.19266751099985413 0.5192965315095261 0.44211040547142155
0.19286935899981472 0.5153883732291158 0.43917928676111373
0.1930713920000926 0.5163654127992183 0.44406448461162684
0.19327338800030702 0.5163654127992183 0.441133365901319
0.1934751620001407 0.5163654127992183 0.44211040547142155
0.19367769600012252 0.5134342940889105 0.44211040547142155
0.193879933000062 0.5114802149487054 0.44211040547142155
0.1940832620002766 0.5046409379579873 0.4479726428920372
0.19428561099994113 0.4909623839765511 0.44894968246213973
0.19448831099998642 0.4811919882755251 0.44894968246213973
0.19469010300053924 0.4684904738641915 0.44992672203224227
0.19489615500060609 0.45969711773326827 0.4538348803126526
0.19509898500018608 0.4509037616023448 0.45188080117244755
0.19530096200014668 0.441133365901319 0.44699560332193444
0.1955034220000016 0.43624816805080613 0.4479726428920372
0.19572701000015513 0.42940889106008795 0.4479726428920372
0.19592957999975624 0.42745481191988266 0.4460185637518319
0.19613279900022462 0.4264777723497801 0.4450415241817294
0.19633649900060846 0.4255007327796776 0.4430874450415241
0.1965389030001461 0.4255007327796776 0.4450415241817294
0.19674080599997978 0.4323400097703958 0.4450415241817294
0.19694363600046927 0.43624816805080613 0.4460185637518319
0.19714663200011273 0.43917928676111373 0.4479726428920372
0.19735222100007377 0.4401563263312165 0.4509037616023448
0.19756114299980254 0.4401563263312165 0.44992672203224227
0.19776345399986894 0.4333170493404983 0.45188080117244755
0.19796641399989312 0.4352711284807034 0.4509037616023448
0.19817037299981166 0.4284318514899854 0.44992672203224227
0.19837455400011095 0.4264777723497801 0.45188080117244755
0.19857718000002933 0.4284318514899854 0.45188080117244755
0.19878006500039191 0.42452369320957506 0.4528578407425501
0.19898228400052176 0.42452369320957506 0.45676599902296044
0.19918489100018633 0.41963849535906195 0.4528578407425501
0.19938755400016817 0.4157303370786516 0.4538348803126526
0.1995930690000023 0.41182217879824123 0.4557889594528579
0.19979917599994224 0.40693698094772834 0.45676599902296044
0.20001961700018 0.3981436248168051 0.45481191988275516
0.20022431699999288 0.3913043478260869 0.4587200781631655
0.20042792399999598 0.3834880312652662 0.4636052760136786
0.2006312909998087 0.3776257938446508 0.45969711773326827
0.2008327499997904 0.3707865168539326 0.46165119687347334
0.2010353940004279 0.36492427943331696 0.46262823644357587
0.20123794600021938 0.36199316072300936 0.46165119687347334
0.20143990599990502 0.358085002442599 0.45969711773326827
0.2016424020002887 0.3531998045920859 0.4587200781631655
0.20184473100016476 0.35222276502198335 0.45676599902296044
0.20204743100021005 0.3512457254518808 0.4557889594528579
0.2022494459997688 0.348314606741573 0.457743038593063
0.20245303499996226 0.3502686858817783 0.457743038593063
0.20265517999996518 0.348314606741573 0.4606741573033708
0.20285819400032779 0.3502686858817783 0.4606741573033708
0.20306067199999234 0.3512457254518808 0.46165119687347334
0.2032655020002494 0.35417684416218864 0.46165119687347334
0.2034696279997661 0.3531998045920859 0.46165119687347334
0.20367319800061523 0.35710796287249624 0.46262823644357587
0.2038752870003009 0.35906204201270153 0.4587200781631655
0.20407748700017692 0.3659013190034197 0.4606741573033708
0.20428000199990493 0.3756717147044455 0.45676599902296044
0.20448257200041553 0.3913043478260869 0.4557889594528579
0.2046855130001859 0.40889106008793363 0.45188080117244755
0.20488819399997737 0.4284318514899854 0.44992672203224227
0.20508989400059363 0.4430874450415241 0.44894968246213973
0.20530418700036535 0.45676599902296044 0.44894968246213973
0.20552201600003173 0.47239863214460187 0.4460185637518319
0.2057336600000781 0.4802149487054226 0.45188080117244755
0.20596773000033863 0.4909623839765511 0.44894968246213973
0.2061939479999637 0.49877870053737183 0.4430874450415241
0.206434296000225 0.5017098192476794 0.4430874450415241
0.20665366200046265 0.49877870053737183 0.44211040547142155
0.2068704909997905 0.49682462139716654 0.44211040547142155
0.20715217100041627 0.495847581827064 0.44406448461162684
0.2074249070001315 0.4938935026868587 0.4430874450415241
0.20778212300047016 0.49975574010747437 0.44406448461162684
0.20803843300018343 0.4978016609672691 0.4450415241817294
0.2083759450006255 0.5007327796775769 0.44211040547142155
0.20865012500053126 0.5017098192476794 0.44211040547142155
0.2089187130004575 0.5036638983878847 0.4430874450415241
0.20933313099976658 0.5046409379579873 0.44406448461162684
0.20961105200058228 0.5065950170981925 0.4450415241817294
0.20984662200044113 0.5085490962383976 0.441133365901319
0.2101474680002866 0.5114802149487054 0.4430874450415241
0.21039739000025293 0.5163654127992183 0.43917928676111373
0.2106167190004271 0.5232046897899365 0.4401563263312165
0.21084203000009438 0.5202735710796287 0.441133365901319
0.21107430299980479 0.5192965315095261 0.44406448461162684
0.21132679899983486 0.5212506106497312 0.44211040547142155
0.2116010340005232 0.5202735710796287 0.44406448461162684
0.21216763499978697 0.5173424523693209 0.441133365901319
0.212431667000601 0.5163654127992183 0.441133365901319
0.21263895999982196 0.5173424523693209 0.4430874450415241
0.212844548999783 0.5144113336590133 0.44406448461162684
0.21304447100010293 0.5144113336590133 0.4430874450415241
0.21324328199989395 0.512457254518808 0.44699560332193444
0.21344918600061646 0.5095261358085001 0.44894968246213973
0.21365047800009052 0.5105031753786029 0.4509037616023448
0.2138509559999875 0.512457254518808 0.44894968246213973
0.21405058199979976 0.5046409379579873 0.44894968246213973
0.2142503189998024 0.4909623839765511 0.4509037616023448
0.2144502970004396 0.47923790913532005 0.44992672203224227
0.21464990399999806 0.4684904738641915 0.4538348803126526
0.21485095600019122 0.457743038593063 0.4528578407425501
0.21505093399991893 0.44992672203224227 0.45188080117244755
0.21525163400019665 0.44211040547142155 0.4528578407425501
0.21545194500049547 0.44211040547142155 0.4528578407425501
0.21567277499980264 0.4323400097703958 0.4528578407425501
0.21587475199976325 0.4284318514899854 0.4528578407425501
0.2160745080000197 0.4235466536394723 0.4538348803126526
0.21627476400044543 0.4255007327796776 0.45481191988275516
0.21647496400055388 0.4255007327796776 0.45676599902296044
0.2166746270004296 0.431362970200293 0.457743038593063
0.21687408600064373 0.43624816805080613 0.45969711773326827
0.21707848999994894 0.43917928676111373 0.45969711773326827
0.21727843000007852 0.441133365901319 0.46165119687347334
0.2174782789998062 0.43917928676111373 0.457743038593063
0.21767770099995687 0.4401563263312165 0.457743038593063
0.21787917900019238 0.43429408891060084 0.4587200781631655
0.21807937900030083 0.43429408891060084 0.45676599902296044
0.21827909700004966 0.4323400097703958 0.457743038593063
0.218479686000137 0.4264777723497801 0.4587200781631655
0.21868001599978015 0.4264777723497801 0.45481191988275516
0.21887947499999427 0.4235466536394723 0.4587200781631655
0.2190825080006107 0.4206155349291647 0.457743038593063
0.2192828200004442 0.41670737664875435 0.45481191988275516
0.21948466800040478 0.4157303370786516 0.4538348803126526
0.21968657199977315 0.40889106008793363 0.4528578407425501
0.21988754900030472 0.4049829018075233 0.45188080117244755
0.22008815700064588 0.39423546653639474 0.4606741573033708
0.22028919000058522 0.38739618954567656 0.45481191988275516
0.22049039000012272 0.37957987298485585 0.457743038593063
0.22068955299982917 0.3756717147044455 0.4587200781631655
0.2208881240003393 0.3688324377137273 0.4587200781631655
0.22108784200008813 0.3639472398632144 0.4587200781631655
0.22128848700049275 0.36003908158280407 0.4587200781631655
0.22149435299979814 0.3551538837322912 0.45969711773326827
0.2216943680004988 0.3531998045920859 0.4606741573033708
0.22189601300033246 0.3512457254518808 0.4636052760136786
0.22209647199997562 0.34929164631167553 0.46262823644357587
0.22229689400046482 0.3502686858817783 0.46262823644357587
0.22249644600015017 0.348314606741573 0.46165119687347334
0.22269783100000495 0.3502686858817783 0.4665363947239862
0.22289864200047305 0.34733756717147046 0.4636052760136786
0.22309830500034877 0.34636052760136793 0.4655593551538837
0.22329793100016104 0.3512457254518808 0.46262823644357587
0.22349737200056552 0.3531998045920859 0.46262823644357587
0.223709812999914 0.3531998045920859 0.46262823644357587
0.22391275300014968 0.3610161211529066 0.4636052760136786
0.22411643499981437 0.3688324377137273 0.4636052760136786
0.2243175789999441 0.376648754274548 0.46262823644357587
0.22451831600028527 0.3981436248168051 0.4557889594528579
0.22472857200045837 0.41670737664875435 0.44992672203224227
0.22495654900012596 0.4303859306301905 0.44894968246213973
0.22523335900041275 0.45481191988275516 0.4460185637518319
0.22552994600027887 0.4733756717147044 0.4450415241817294
0.2258762729998125 0.48998534440644836 0.44699560332193444
0.22625011800028005 0.49975574010747437 0.4479726428920372
0.22660544500013202 0.4978016609672691 0.44699560332193444
0.22689273600008164 0.49682462139716654 0.44699560332193444
0.22718580499986274 0.49877870053737183 0.4528578407425501
0.22746989200004464 0.4929164631167562 0.45188080117244755
0.22768835100032447 0.4938935026868587 0.45188080117244755
0.22789153200028522 0.4978016609672691 0.44992672203224227
0.22809197300011874 0.49877870053737183 0.4460185637518319
0.22829124700001557 0.5017098192476794 0.4460185637518319
0.2284995030004211 0.5007327796775769 0.44406448461162684
0.2287007770000855 0.5056179775280898 0.44211040547142155
0.22890064400053234 0.5046409379579873 0.44211040547142155
0.22909977000017534 0.5036638983878847 0.4430874450415241
0.22929932100032602 0.5056179775280898 0.43722520762090866
0.22950107700035005 0.5046409379579873 0.43917928676111373
0.2297010180000143 0.5056179775280898 0.4401563263312165
0.22990080999989004 0.5114802149487054 0.43917928676111373
0.23010039900054835 0.5105031753786029 0.4352711284807034
0.23030022900002223 0.5153883732291158 0.44211040547142155
0.23049981799977104 0.5183194919394236 0.43722520762090866
0.23069959199983714 0.5183194919394236 0.4401563263312165
0.23089868100032618 0.524181729360039 0.44211040547142155
0.23109771400049794 0.5183194919394236 0.441133365901319
0.2313031920002686 0.522227650219834 0.43624816805080613
0.23150428100052522 0.5202735710796287 0.43624816805080613
0.23172285100008594 0.5192965315095261 0.43624816805080613
0.23192243999983475 0.5183194919394236 0.4352711284807034
0.23212136199981614 0.5173424523693209 0.43624816805080613
0.23232115500013606 0.5183194919394236 0.43624816805080613
0.23252080000020214 0.5163654127992183 0.4352711284807034
0.23272011100016243 0.5202735710796287 0.4352711284807034
0.23292040300020744 0.512457254518808 0.43722520762090866
0.23312082600023132 0.5095261358085001 0.4352711284807034
0.23332026600019162 0.5095261358085001 0.43722520762090866
0.23352089200034243 0.5114802149487054 0.4401563263312165
0.23372022200055653 0.5105031753786029 0.43624816805080613
0.2339197740002419 0.5095261358085001 0.44211040547142155
0.23412069599999086 0.49877870053737183 0.44211040547142155
0.23432022999986657 0.4851001465559355 0.4460185637518319
0.23452024400012306 0.4763067904250122 0.4460185637518319
0.2347208330002104 0.4655593551538837 0.44699560332193444
0.23492101500050921 0.4557889594528579 0.44992672203224227
0.23512147400015238 0.44406448461162684 0.4509037616023448
0.23532098899977427 0.4382022471910112 0.44894968246213973
0.2355352260001382 0.43624816805080613 0.45188080117244755
0.23573775900058536 0.4264777723497801 0.45188080117244755
0.23593747799986886 0.4235466536394723 0.44894968246213973
0.23613754800044262 0.42159257449926724 0.4509037616023448
0.23633771100048762 0.41963849535906195 0.4538348803126526
0.23653755899977114 0.42159257449926724 0.45188080117244755
0.23673701900042943 0.4303859306301905 0.45188080117244755
0.236936959000559 0.4333170493404983 0.4479726428920372
0.2371372710003925 0.4382022471910112 0.4479726428920372
0.2373374890003106 0.43917928676111373 0.44894968246213973
0.2375368740003978 0.43917928676111373 0.4479726428920372
0.2377363890000197 0.43917928676111373 0.4479726428920372
0.23793573700004345 0.4333170493404983 0.44992672203224227
0.2381366600002366 0.4352711284807034 0.4479726428920372
0.23833554500015453 0.431362970200293 0.44894968246213973
0.23853841199979797 0.4303859306301905 0.44992672203224227
0.2387382040005832 0.4255007327796776 0.45188080117244755
0.23893868200048018 0.42256961406936977 0.4538348803126526
0.23913836400060973 0.42159257449926724 0.4557889594528579
0.23933793400010472 0.4176844162188569 0.45969711773326827
0.23954765200051042 0.41182217879824123 0.45969711773326827
0.23975440800040815 0.40205178309721545 0.46165119687347334
0.23995879300036904 0.39716658524670256 0.4636052760136786
0.24016117800056236 0.3903273082559844 0.4636052760136786
0.24036750800041773 0.3805569125549584 0.46458231558378116
0.2405740230005904 0.3737176355642404 0.4655593551538837
0.24078787000053126 0.3688324377137273 0.46262823644357587
0.24102958799994667 0.36199316072300936 0.4655593551538837
0.2412669730001653 0.3610161211529066 0.4655593551538837
0.24170615000002726 0.3502686858817783 0.46262823644357587
0.24193603500043537 0.3502686858817783 0.46262823644357587
0.24214351200043893 0.3502686858817783 0.46165119687347334
0.24234758300008252 0.34929164631167553 0.4606741573033708
0.24255035700025473 0.34733756717147046 0.4557889594528579
0.24275253799987695 0.348314606741573 0.45676599902296044
0.2429682749998392 0.348314606741573 0.4587200781631655
0.2431711790004556 0.35222276502198335 0.45676599902296044
0.24337384200043743 0.35417684416218864 0.45676599902296044
0.24358328200014512 0.35710796287249624 0.4587200781631655
0.2437873340004444 0.35710796287249624 0.4606741573033708
0.24399034900034167 0.36492427943331696 0.46262823644357587
0.2441929380001966 0.37176355642403514 0.45676599902296044
0.24439471200003027 0.38739618954567656 0.45481191988275516
0.2445990599999277 0.4040058622374205 0.4509037616023448
0.2448011860005863 0.42256961406936977 0.44894968246213973
0.24500542300029338 0.43917928676111373 0.4450415241817294
0.2452088449999792 0.457743038593063 0.4450415241817294
0.24541047100046853 0.4684904738641915 0.4460185637518319
0.2456130780001331 0.4802149487054226 0.43722520762090866
0.24581648200000927 0.48705422569614076 0.44211040547142155
0.2460197190002873 0.49682462139716654 0.441133365901319
0.24622323400035384 0.5007327796775769 0.4401563263312165
0.24642582300020877 0.5007327796775769 0.4401563263312165
0.24662907800029643 0.5026868588177822 0.44699560332193444
0.24683237099998223 0.5026868588177822 0.4528578407425501
0.24703477500042936 0.495847581827064 0.4479726428920372
0.24723727099990356 0.4929164631167562 0.44894968246213973
0.24744139700032974 0.49682462139716654 0.4528578407425501
0.24764461500035395 0.4938935026868587 0.44699560332193444
0.2478470380001454 0.4978016609672691 0.44992672203224227
0.24804946000040218 0.49975574010747437 0.44699560332193444
0.24825495599998249 0.5007327796775769 0.44406448461162684
0.24845945200013375 0.5046409379579873 0.44406448461162684
0.24866242999996757 0.5026868588177822 0.44406448461162684
0.2488645000003089 0.5056179775280898 0.4450415241817294
0.2490694039997834 0.5085490962383976 0.44406448461162684
0.24927167799978633 0.5085490962383976 0.44699560332193444
0.24947613699987414 0.5095261358085001 0.4450415241817294
0.24967952299994067 0.512457254518808 0.4460185637518319
0.2498836670001765 0.5153883732291158 0.44699560332193444
0.2500857189997987 0.5134342940889105 0.44699560332193444
0.2502881410000555 0.5153883732291158 0.4479726428920372
0.25049050800043915 0.5212506106497312 0.4460185637518319
0.2506922080001459 0.5212506106497312 0.4430874450415241
0.25089390799985267 0.522227650219834 0.4382022471910112
0.25109653399977105 0.522227650219834 0.4401563263312165
0.2512986970004931 0.522227650219834 0.43722520762090866
0.2515008600003057 0.5212506106497312 0.4382022471910112
0.25172076299986657 0.5202735710796287 0.4382022471910112
0.25192383300054644 0.5192965315095261 0.43917928676111373
0.2521262000000206 0.5192965315095261 0.43917928676111373
0.2523386410002786 0.5163654127992183 0.441133365901319
0.2525798400001804 0.5114802149487054 0.43722520762090866
0.2527957990005234 0.5173424523693209 0.4382022471910112
0.2529997400006323 0.5163654127992183 0.43624816805080613
0.25320597600057226 0.5114802149487054 0.43624816805080613
0.25340882500040607 0.5144113336590133 0.4382022471910112
0.25361106200034556 0.5105031753786029 0.4382022471910112
0.2538131319997774 0.5153883732291158 0.44211040547142155
0.2540185540001403 0.5085490962383976 0.44406448461162684
0.2542444760001672 0.48900830483634583 0.44406448461162684
0.25446695299979183 0.4811919882755251 0.4479726428920372
0.25467311600004905 0.4655593551538837 0.45188080117244755
0.25488614900041284 0.45676599902296044 0.4557889594528579
0.25509223800054315 0.44699560332193444 0.45481191988275516
0.2552952530004404 0.4401563263312165 0.45676599902296044
0.25549712000065483 0.431362970200293 0.45676599902296044
0.2557234490004703 0.4255007327796776 0.45481191988275516
0.2559270010006003 0.42452369320957506 0.45481191988275516
0.2561288670003705 0.4206155349291647 0.4557889594528579
0.2563312530000985 0.42256961406936977 0.4557889594528579
0.2565343420001227 0.42745481191988266 0.45188080117244755
0.25674115299989353 0.4303859306301905 0.4479726428920372
0.25695003800046834 0.43722520762090866 0.44894968246213973
0.25715740400028153 0.441133365901319 0.44894968246213973
0.2573639930005811 0.4430874450415241 0.44699560332193444
0.2575668039999073 0.43917928676111373 0.4509037616023448
0.257770449000418 0.44211040547142155 0.4538348803126526
0.2579733150005268 0.4352711284807034 0.45481191988275516
0.25817614500010677 0.4323400097703958 0.4557889594528579
0.2583793260000675 0.4323400097703958 0.4557889594528579
0.258581119000155 0.42940889106008795 0.457743038593063
0.25878370800000994 0.42745481191988266 0.4538348803126526
0.25898640800005523 0.4235466536394723 0.44992672203224227
0.25919029299984686 0.42256961406936977 0.44992672203224227
0.25939330800065363 0.4186614557889594 0.4509037616023448
0.25961519300017244 0.40986809965803617 0.4509037616023448
0.2598186519999217 0.40889106008793363 0.44894968246213973
0.2600197219999245 0.4010747435271129 0.44992672203224227
0.26022266300060437 0.3913043478260869 0.45188080117244755
0.2604242150000573 0.38446507083536874 0.45676599902296044
0.2606281550006315 0.38446507083536874 0.4587200781631655
0.26082965200021135 0.37469467513434296 0.46262823644357587
0.261032463000447 0.36492427943331696 0.4606741573033708
0.2612354040002174 0.3629702002931119 0.4655593551538837
0.2615752860001521 0.3561309233023937 0.4636052760136786
0.26178567100032524 0.35222276502198335 0.4655593551538837
0.2619904820003285 0.35417684416218864 0.4587200781631655
0.26219503399988753 0.34929164631167553 0.4587200781631655
0.2623974560001443 0.35222276502198335 0.4587200781631655
0.26260045300023194 0.3512457254518808 0.4587200781631655
0.26280418999976973 0.34929164631167553 0.4587200781631655
0.26300676000028034 0.35222276502198335 0.4606741573033708
0.26321010799983924 0.3512457254518808 0.4636052760136786
0.26341386400054034 0.35710796287249624 0.46262823644357587
0.26363054500052385 0.3561309233023937 0.46165119687347334
0.2638332820006326 0.3639472398632144 0.46262823644357587
0.2640421490004883 0.36492427943331696 0.46262823644357587
0.2642447190000894 0.3756717147044455 0.45676599902296044
0.2644480670005578 0.38935026868588185 0.4587200781631655
0.2646505080001589 0.4079140205178309 0.457743038593063
0.26485404100003507 0.4255007327796776 0.457743038593063
0.26505751900003816 0.4430874450415241 0.4509037616023448
0.26526021900008345 0.457743038593063 0.4509037616023448
0.2654621780002344 0.4665363947239862 0.4450415241817294
0.2656661190003433 0.47923790913532005 0.44992672203224227
0.2658706339998389 0.4880312652662433 0.44992672203224227
0.26607420399977855 0.4978016609672691 0.44406448461162684
0.2662771260002046 0.49877870053737183 0.441133365901319
0.2664798450005037 0.5017098192476794 0.441133365901319
0.26668510000035894 0.4978016609672691 0.44211040547142155
0.26689013299983344 0.4948705422569615 0.43917928676111373
0.2670936479999 0.4938935026868587 0.4401563263312165
0.2672979779999878 0.49193942354665365 0.43917928676111373
0.2675002890000542 0.4909623839765511 0.43917928676111373
0.26771832200029166 0.49193942354665365 0.44406448461162684
0.2679222260003371 0.4948705422569615 0.4460185637518319
0.26812705500015 0.49877870053737183 0.4430874450415241
0.2683304030006184 0.5007327796775769 0.44406448461162684
0.26853588100038905 0.5036638983878847 0.4430874450415241
0.2687381740006458 0.5036638983878847 0.4430874450415241
0.2689406509998662 0.5036638983878847 0.4430874450415241
0.2691431110006306 0.5026868588177822 0.4430874450415241
0.2693456810002317 0.5085490962383976 0.4430874450415241
0.2695478440000443 0.5036638983878847 0.4430874450415241
0.26975046999996266 0.5153883732291158 0.4430874450415241
0.26995302199975413 0.5134342940889105 0.44699560332193444
0.2701546850003069 0.5163654127992183 0.4450415241817294
0.27035686599992914 0.5163654127992183 0.44699560332193444
0.2708315429999857 0.522227650219834 0.4479726428920372
0.2710666869998022 0.5192965315095261 0.44406448461162684
0.27127568300056737 0.5183194919394236 0.43917928676111373
0.2714801609999995 0.5202735710796287 0.43917928676111373
0.2716837490006583 0.5192965315095261 0.43624816805080613
0.2718870050002806 0.5202735710796287 0.43917928676111373
0.2720910010002626 0.5173424523693209 0.43722520762090866
0.2722938860006252 0.5173424523693209 0.4382022471910112
0.27249758600009955 0.5153883732291158 0.44406448461162684
0.2727018790001239 0.5163654127992183 0.4450415241817294
0.2729067270001906 0.5144113336590133 0.44894968246213973
0.27310959399983403 0.5114802149487054 0.45188080117244755
0.2733117570005561 0.5144113336590133 0.44699560332193444
0.2735144010002841 0.5144113336590133 0.4509037616023448
0.27371697099988523 0.5105031753786029 0.44894968246213973
0.2739257080002062 0.5095261358085001 0.4479726428920372
0.27413753800010454 0.49682462139716654 0.4509037616023448
0.27434218200050964 0.48216902784562765 0.4479726428920372
0.2745450490001531 0.4733756717147044 0.45188080117244755
0.27474811899992346 0.4636052760136786 0.4479726428920372
0.2749508010001591 0.45188080117244755 0.45188080117244755
0.275152834000437 0.4430874450415241 0.44992672203224227
0.27535497799999575 0.4352711284807034 0.44894968246213973
0.27555912299976626 0.4323400097703958 0.4509037616023448
0.27576350800063665 0.42745481191988266 0.4509037616023448
0.27596622700002627 0.42745481191988266 0.4538348803126526
0.27616879700053687 0.42159257449926724 0.4538348803126526
0.27637155200045527 0.4235466536394723 0.45481191988275516
0.276574475000416 0.4284318514899854 0.4538348803126526
0.2767762670000593 0.431362970200293 0.45481191988275516
0.2769782080004006 0.4352711284807034 0.45481191988275516
0.2771798339999805 0.4401563263312165 0.4557889594528579
0.2773834409999836 0.43917928676111373 0.4538348803126526
0.27758586399977503 0.43722520762090866 0.4538348803126526
0.27778811900043365 0.4352711284807034 0.4587200781631655
0.277996245000395 0.4323400097703958 0.4557889594528579
0.27819846300008066 0.4284318514899854 0.4557889594528579
0.27840299699983007 0.42745481191988266 0.45676599902296044
0.2786054560001503 0.4235466536394723 0.45676599902296044
0.2788077120003436 0.42256961406936977 0.4538348803126526
0.2790119119999872 0.4206155349291647 0.45481191988275516
0.2792161859997577 0.4176844162188569 0.4538348803126526
0.27941812600056437 0.41475329750854906 0.4528578407425501
0.2796357520001038 0.40986809965803617 0.4538348803126526
0.2798384890002126 0.403028822667318 0.4538348803126526
0.28004565199989884 0.3961895456765998 0.45481191988275516
0.28024837000066327 0.3883732291157791 0.4606741573033708
0.28045081100026437 0.38153395212506114 0.45969711773326827
0.28065408500060585 0.3737176355642404 0.46262823644357587
0.2808571000005031 0.36980947728383007 0.46458231558378116
0.28106033699987165 0.36492427943331696 0.4655593551538837
0.28126292600063607 0.35906204201270153 0.4665363947239862
0.2814661630000046 0.358085002442599 0.4655593551538837
0.28166843700000754 0.35417684416218864 0.4636052760136786
0.28187076700032776 0.35222276502198335 0.4636052760136786
0.28207339300024614 0.3502686858817783 0.4606741573033708
0.28227583300031256 0.348314606741573 0.4606741573033708
0.28247755200027314 0.34929164631167553 0.45969711773326827
0.2826799559998108 0.3531998045920859 0.46262823644357587
0.2828828040001099 0.3512457254518808 0.45969711773326827
0.2830846329998167 0.3531998045920859 0.4587200781631655
0.2832857220000733 0.35906204201270153 0.4606741573033708
0.2834881070002666 0.358085002442599 0.46165119687347334
0.2836928810002064 0.36003908158280407 0.45969711773326827
0.28389926700037904 0.3639472398632144 0.45969711773326827
0.2841022439997687 0.36980947728383007 0.45969711773326827
0.2843047590004062 0.38251099169516367 0.45969711773326827
0.28450638499998604 0.39716658524670256 0.4557889594528579
0.2847104920001584 0.41670737664875435 0.4538348803126526
0.28491250700062665 0.4323400097703958 0.4509037616023448
0.2851153550000163 0.4479726428920372 0.44406448461162684
0.28531746299995575 0.4606741573033708 0.43917928676111373
0.2855192180004451 0.4733756717147044 0.43917928676111373
0.28572273300051165 0.4831460674157304 0.4333170493404983
0.28592554399983783 0.4880312652662433 0.4333170493404983
0.28612780000003113 0.495847581827064 0.4333170493404983
0.2863313150000977 0.5007327796775769 0.4333170493404983
0.2865332370001852 0.5007327796775769 0.4333170493404983
0.28673539999999775 0.5007327796775769 0.43722520762090866
0.28693776599993726 0.495847581827064 0.4382022471910112
0.28714028100057476 0.495847581827064 0.43917928676111373
0.28734246300064115 0.495847581827064 0.4382022471910112
0.28754451500026335 0.4938935026868587 0.43917928676111373
0.287747770000351 0.495847581827064 0.43917928676111373
0.2879498219999732 0.5017098192476794 0.4401563263312165
0.28815268900052615 0.5007327796775769 0.44211040547142155
0.2883546849998311 0.5017098192476794 0.4430874450415241
0.28856973700021626 0.5026868588177822 0.4401563263312165
0.28879654699994717 0.5017098192476794 0.43917928676111373
0.28900593199978175 0.5017098192476794 0.4382022471910112
0.2892279280004004 0.5046409379579873 0.4323400097703958
0.28945055399981356 0.5056179775280898 0.4333170493404983
0.2897504740003569 0.5085490962383976 0.4333170493404983
0.28996508100044593 0.512457254518808 0.4352711284807034
0.29019276200051536 0.5173424523693209 0.441133365901319
0.29042218399990816 0.5163654127992183 0.44406448461162684
0.2907468820003487 0.5173424523693209 0.441133365901319
0.2909734330005449 0.5183194919394236 0.4450415241817294
0.29120255900033953 0.5202735710796287 0.4430874450415241
0.2914312950006206 0.5212506106497312 0.44406448461162684
0.29173765999985335 0.524181729360039 0.44211040547142155
0.29199528499975713 0.5153883732291158 0.44699560332193444
0.29239801800031273 0.5173424523693209 0.44699560332193444
0.29266282800017507 0.5134342940889105 0.4479726428920372
0.29292858300050284 0.5144113336590133 0.4509037616023448
0.29329107600005955 0.5134342940889105 0.4509037616023448
0.2935463310004707 0.5114802149487054 0.44699560332193444
0.29377053000007436 0.5134342940889105 0.4460185637518319
0.2940495809998538 0.5017098192476794 0.44992672203224227
0.2942721139997957 0.49193942354665365 0.45188080117244755
0.2945376640000177 0.4733756717147044 0.45481191988275516
0.29476316000000224 0.46262823644357587 0.4606741573033708
0.2949644710006396 0.4528578407425501 0.45969711773326827
0.2951645049997751 0.44699560332193444 0.45969711773326827
0.2953858709997803 0.43722520762090866 0.4606741573033708
0.29561227400063217 0.431362970200293 0.4655593551538837
0.29581775200040283 0.4264777723497801 0.4704445530043966
0.29601941500004614 0.42256961406936977 0.46262823644357587
0.2962258190000284 0.4206155349291647 0.4606741573033708
0.2964304450006239 0.4235466536394723 0.45969711773326827
0.2966302370004996 0.4255007327796776 0.457743038593063
0.2968296220005868 0.4323400097703958 0.457743038593063
0.29703052600052615 0.4352711284807034 0.45481191988275516
0.2972312259998944 0.4352711284807034 0.45188080117244755
0.29743014799987577 0.43624816805080613 0.45188080117244755
0.29763101500066114 0.4352711284807034 0.4538348803126526
0.29783014100030414 0.431362970200293 0.4528578407425501
0.2980305450000742 0.42940889106008795 0.4528578407425501
0.29823224499978096 0.4255007327796776 0.45188080117244755
0.29843307500050287 0.4303859306301905 0.45188080117244755
0.2986334409997653 0.42159257449926724 0.45188080117244755
0.29883234499993705 0.41963849535906195 0.45188080117244755
0.2990322860005108 0.41670737664875435 0.4538348803126526
0.2992331710001963 0.4157303370786516 0.4538348803126526
0.29943726000055904 0.412799218368344 0.457743038593063
0.299643367000499 0.40693698094772834 0.46165119687347334
0.29984499300007883 0.3981436248168051 0.4587200781631655
0.3000454900002296 0.3913043478260869 0.4704445530043966
0.3002446710006552 0.38739618954567656 0.46165119687347334
0.3004441120001502 0.3786028334147533 0.45969711773326827
0.3006440160006605 0.37469467513434296 0.4557889594528579
0.3010152309998375 0.3659013190034197 0.4509037616023448
0.3012350970002444 0.36492427943331696 0.4509037616023448
0.30143553800007794 0.358085002442599 0.4509037616023448
0.3016351639998902 0.3531998045920859 0.4509037616023448
0.30183464200035814 0.35222276502198335 0.4509037616023448
0.30203423100010696 0.35222276502198335 0.4557889594528579
0.302233449000596 0.34733756717147046 0.45481191988275516
0.302432575000239 0.3502686858817783 0.4557889594528579
0.30263207200005127 0.3531998045920859 0.45969711773326827
0.30283175300064613 0.3531998045920859 0.4606741573033708
0.3030310089998238 0.35222276502198335 0.46165119687347334
0.30323020900050324 0.3512457254518808 0.4606741573033708
0.3034290020004846 0.3561309233023937 0.4606741573033708
0.30365062700002454 0.35906204201270153 0.4636052760136786
0.3038502720000906 0.35906204201270153 0.46458231558378116
0.30404936100057967 0.3678553981436248 0.46165119687347334
0.30424872700041306 0.376648754274548 0.4636052760136786
0.3044482240002253 0.3913043478260869 0.46262823644357587
0.3046480720004183 0.41182217879824123 0.4606741573033708
0.3048477910006113 0.4264777723497801 0.4587200781631655
0.30504717599978903 0.44406448461162684 0.457743038593063
0.3052473759998975 0.45676599902296044 0.4528578407425501
0.30545800199979567 0.46946751343429405 0.44894968246213973
0.3056914600001619 0.48216902784562765 0.44699560332193444
0.3060009729997546 0.4929164631167562 0.44699560332193444
0.3062961900004666 0.49877870053737183 0.4460185637518319
0.3065634439999485 0.5065950170981925 0.4460185637518319
0.30684432799989736 0.49682462139716654 0.44406448461162684
0.3071169530003317 0.4948705422569615 0.44699560332193444
0.30742800300049566 0.4948705422569615 0.4430874450415241
0.3077505150004072 0.495847581827064 0.4460185637518319
0.3080667499998526 0.49877870053737183 0.44406448461162684
0.30831563399988227 0.49975574010747437 0.44894968246213973
0.30853776000003563 0.5026868588177822 0.4509037616023448
0.3087552560000404 0.5017098192476794 0.4460185637518319
0.30895819699981075 0.5065950170981925 0.44699560332193444
0.30915802600065945 0.5065950170981925 0.4479726428920372
0.3093575040002179 0.5075720566682951 0.44699560332193444
0.3095570929999667 0.5085490962383976 0.44699560332193444
0.3097575709998637 0.5095261358085001 0.44211040547142155
0.30995825300033175 0.5144113336590133 0.4382022471910112
0.3101586930006306 0.5163654127992183 0.43624816805080613
0.3103586900006121 0.5192965315095261 0.43722520762090866
0.3105579080001917 0.5202735710796287 0.43722520762090866
0.31075975600015227 0.5202735710796287 0.4352711284807034
0.31095967900000687 0.5212506106497312 0.4352711284807034
0.31115984200005187 0.5212506106497312 0.4333170493404983
0.3113597080000545 0.522227650219834 0.43624816805080613
0.31156963000012183 0.5192965315095261 0.441133365901319
0.3117717929999344 0.5183194919394236 0.441133365901319
0.311972882000191 0.5173424523693209 0.441133365901319
0.31217189700055314 0.5144113336590133 0.44211040547142155
0.3123755050000909 0.5144113336590133 0.4430874450415241
0.3125755930004743 0.512457254518808 0.43917928676111373
0.31277507100003277 0.512457254518808 0.4382022471910112
0.31297406800058525 0.5114802149487054 0.43722520762090866
0.31317391599986877 0.5114802149487054 0.43722520762090866
0.31337270899985015 0.5144113336590133 0.4382022471910112
0.3135719830006565 0.512457254518808 0.43722520762090866
0.3137709789998553 0.512457254518808 0.4401563263312165
0.3139715860006618 0.5065950170981925 0.44699560332193444
0.31417095300002984 0.4978016609672691 0.45188080117244755
0.3143713010003921 0.4811919882755251 0.4509037616023448
0.3145715010005006 0.4733756717147044 0.4528578407425501
0.3147743130002709 0.45676599902296044 0.4538348803126526
0.3149740130002101 0.45188080117244755 0.4538348803126526
0.31517380500008585 0.44406448461162684 0.4528578407425501
0.3153729129999192 0.43624816805080613 0.4538348803126526
0.31557396500011237 0.4333170493404983 0.457743038593063
0.3157736829998612 0.4303859306301905 0.45676599902296044
0.315973550000308 0.4255007327796776 0.4557889594528579
0.316172675999951 0.4235466536394723 0.4557889594528579
0.3163719129997844 0.42256961406936977 0.457743038593063
0.31657094599995617 0.42940889106008795 0.4557889594528579
0.3167706089998319 0.431362970200293 0.4538348803126526
0.31697017999977106 0.4352711284807034 0.4509037616023448
0.31717182400007005 0.43917928676111373 0.44992672203224227
0.31737133900060144 0.4401563263312165 0.44992672203224227
0.3175706870006252 0.4382022471910112 0.4509037616023448
0.3177704059999087 0.4333170493404983 0.4509037616023448
0.3179694210002708 0.4323400097703958 0.45188080117244755
0.31816897299995617 0.4303859306301905 0.4538348803126526
0.3183699130004243 0.431362970200293 0.4557889594528579
0.3185698540000885 0.4235466536394723 0.4587200781631655
0.31876918400030263 0.4264777723497801 0.4587200781631655
0.318968106000284 0.42256961406936977 0.4636052760136786
0.31917791700016096 0.41475329750854906 0.45481191988275516
0.3194105419997868 0.41670737664875435 0.4587200781631655
0.3196392420004486 0.40889106008793363 0.45676599902296044
0.31984133100013423 0.40009770395701016 0.4587200781631655
0.3200415310002427 0.3932584269662922 0.46165119687347334
0.3202421010000762 0.38739618954567656 0.457743038593063
0.3204435610005021 0.38153395212506114 0.4655593551538837
0.32064494600035687 0.3756717147044455 0.4557889594528579
0.3208445899999788 0.3688324377137273 0.457743038593063
0.32105514200065954 0.36492427943331696 0.45676599902296044
0.32125608300066233 0.35906204201270153 0.45676599902296044
0.32145561600009387 0.358085002442599 0.46165119687347334
0.3216561870003716 0.3551538837322912 0.4636052760136786
0.3218625899999097 0.3531998045920859 0.4636052760136786
0.3220619200001238 0.3531998045920859 0.4636052760136786
0.3222606380004436 0.34733756717147046 0.4606741573033708
0.32246046799991746 0.348314606741573 0.45676599902296044
0.322660872000597 0.34929164631167553 0.4587200781631655
0.32286107199979597 0.3561309233023937 0.46262823644357587
0.32306103100017936 0.35222276502198335 0.46262823644357587
0.3232606569999916 0.35417684416218864 0.4587200781631655
0.3234597090004172 0.35222276502198335 0.45969711773326827
0.3236794459999146 0.358085002442599 0.45969711773326827
0.32388562699998147 0.3610161211529066 0.4587200781631655
0.3240884940005344 0.3659013190034197 0.45969711773326827
0.3242960640000092 0.37957987298485585 0.457743038593063
0.32449970900051994 0.39912066438690763 0.457743038593063
0.32470202000058634 0.4157303370786516 0.44992672203224227
0.3249063310004203 0.43624816805080613 0.45188080117244755
0.32510827199985215 0.44894968246213973 0.4509037616023448
0.3253104900004473 0.457743038593063 0.4479726428920372
0.32551261600019643 0.4733756717147044 0.4460185637518319
0.325715372000559 0.4851001465559355 0.4460185637518319
0.32591960900026606 0.4929164631167562 0.44211040547142155
0.32612221599993063 0.4929164631167562 0.4401563263312165
0.32632369400016614 0.4978016609672691 0.44211040547142155
0.32652709700050764 0.49877870053737183 0.4430874450415241
0.3267283340001086 0.495847581827064 0.44211040547142155
0.32693179400030203 0.4909623839765511 0.4450415241817294
0.32713540100030514 0.4929164631167562 0.44894968246213973
0.3273378230005619 0.4929164631167562 0.44699560332193444
0.327545134000502 0.4929164631167562 0.4450415241817294
0.32774996399984957 0.49682462139716654 0.44406448461162684
0.3279563300002337 0.4948705422569615 0.4460185637518319
0.3281585680006174 0.5017098192476794 0.44406448461162684
0.3283631009999226 0.5017098192476794 0.44992672203224227
0.3285655230001794 0.5017098192476794 0.4450415241817294
0.32876748200033035 0.5046409379579873 0.44406448461162684
0.3289697560003333 0.5007327796775769 0.4450415241817294
0.3291712340005688 0.5007327796775769 0.44406448461162684
0.3293732120000641 0.5017098192476794 0.441133365901319
0.3295754119999401 0.5036638983878847 0.4460185637518319
0.3297778340001969 0.5085490962383976 0.4430874450415241
0.32997966400034784 0.5134342940889105 0.44406448461162684
0.3301829379997798 0.5134342940889105 0.441133365901319
0.3305557459998454 0.5183194919394236 0.44406448461162684
0.33078033400033746 0.5183194919394236 0.4401563263312165
0.33098738599983335 0.522227650219834 0.441133365901319
0.3311914380001326 0.522227650219834 0.43917928676111373
0.33139465600015683 0.5192965315095261 0.4352711284807034
0.3316377080000166 0.5192965315095261 0.4401563263312165
0.33185820400012744 0.5183194919394236 0.4382022471910112
0.3320593660000668 0.5202735710796287 0.4401563263312165
0.33226404800007003 0.5202735710796287 0.4401563263312165
0.33246558100017864 0.5173424523693209 0.4401563263312165
0.33266770699992776 0.5153883732291158 0.44211040547142155
0.3328720549998252 0.5173424523693209 0.441133365901319
0.33307368100031454 0.5163654127992183 0.4450415241817294
0.3332758630003809 0.5114802149487054 0.441133365901319
0.33347748899996077 0.5114802149487054 0.44406448461162684
0.33368011499987915 0.5114802149487054 0.44406448461162684
0.3338824439997552 0.5085490962383976 0.4450415241817294
0.33408342199982144 0.5026868588177822 0.4479726428920372
0.33428621500024747 0.4909623839765511 0.44699560332193444
0.334489136999764 0.4763067904250122 0.4479726428920372
0.33469366999997874 0.4636052760136786 0.44894968246213973
0.3348958329997913 0.4538348803126526 0.45481191988275516
0.33509875500021735 0.4450415241817294 0.45481191988275516
0.3353012890001992 0.43917928676111373 0.4587200781631655
0.3355042110006252 0.431362970200293 0.4606741573033708
0.33572681799978454 0.4264777723497801 0.457743038593063
0.335928499000147 0.4235466536394723 0.45969711773326827
0.33613143999991735 0.4206155349291647 0.4557889594528579
0.3363346960004492 0.42256961406936977 0.46165119687347334
0.3365365990002829 0.4303859306301905 0.4538348803126526
0.33673852199990506 0.431362970200293 0.45188080117244755
0.33694064800056367 0.4352711284807034 0.45188080117244755
0.3371461070000805 0.43917928676111373 0.44699560332193444
0.3373488070001258 0.43917928676111373 0.44894968246213973
0.3375583580000239 0.43722520762090866 0.44699560332193444
0.3377610210000057 0.43624816805080613 0.4450415241817294
0.3379629250002836 0.43624816805080613 0.4450415241817294
0.3381646810003076 0.43429408891060084 0.4460185637518319
0.33836667700052203 0.42940889106008795 0.44406448461162684
0.3385704510001233 0.4264777723497801 0.44699560332193444
0.3387741320002533 0.4206155349291647 0.4450415241817294
0.33897692499976984 0.4186614557889594 0.4450415241817294
0.33917814400047064 0.4176844162188569 0.44699560332193444
0.3393803070002832 0.4137762579384465 0.4509037616023448
0.3395835810006247 0.40986809965803617 0.44992672203224227
0.3397869099999298 0.403028822667318 0.44992672203224227
0.3399887770001442 0.3961895456765998 0.4528578407425501
0.3401906440003586 0.3903273082559844 0.4557889594528579
0.34039176999976917 0.3834880312652662 0.4538348803126526
0.3405948030003856 0.37469467513434296 0.45676599902296044
0.3407977070000925 0.37274059599413767 0.45969711773326827
0.3410032030005823 0.3678553981436248 0.46165119687347334
0.3412074030002259 0.3610161211529066 0.4587200781631655
0.3414098620005461 0.358085002442599 0.46165119687347334
0.3416129320003165 0.35710796287249624 0.4606741573033708
0.34181540999998106 0.35222276502198335 0.4606741573033708
0.3420177950001744 0.34929164631167553 0.46262823644357587
0.3422201060002408 0.35222276502198335 0.45969711773326827
0.3424216029998206 0.3502686858817783 0.4606741573033708
0.3426238399997601 0.3502686858817783 0.45969711773326827
0.3428262990000803 0.3502686858817783 0.45969711773326827
0.3430281290002313 0.3502686858817783 0.46165119687347334
0.34323132900044584 0.35710796287249624 0.4636052760136786
0.3434333989998777 0.35417684416218864 0.46262823644357587
0.34364809900034743 0.35710796287249624 0.46262823644357587
0.3438531689998854 0.3639472398632144 0.4655593551538837
0.3440569060003327 0.3688324377137273 0.46165119687347334
0.34425893900061055 0.37957987298485585 0.4606741573033708
0.344464751000487 0.39716658524670256 0.457743038593063
0.3446675060004054 0.412799218368344 0.4587200781631655
0.34487029899992194 0.4303859306301905 0.4587200781631655
0.34507377600039035 0.44699560332193444 0.4557889594528579
0.34527634700043563 0.45969711773326827 0.4538348803126526
0.3454803800004811 0.4704445530043966 0.4538348803126526
0.34568565400059015 0.48412310698583294 0.44992672203224227
0.34588966899991647 0.4880312652662433 0.4460185637518319
0.3460967580003853 0.49877870053737183 0.4450415241817294
0.34630032800032495 0.5017098192476794 0.44406448461162684
0.3465026760004548 0.49975574010747437 0.44406448461162684
0.34670450600060576 0.49975574010747437 0.44406448461162684
0.34690831700027047 0.4978016609672691 0.44406448461162684
0.34711101700031577 0.49682462139716654 0.4460185637518319
0.347313197999938 0.4880312652662433 0.4460185637518319
0.3475310459998582 0.4978016609672691 0.44211040547142155
0.34773607999977685 0.495847581827064 0.44406448461162684
0.34794163100013975 0.4948705422569615 0.4430874450415241
0.34814362799988885 0.5017098192476794 0.4450415241817294
0.3483460500001456 0.5017098192476794 0.4460185637518319
0.3485480280005504 0.5036638983878847 0.4460185637518319
0.3487510610002573 0.5046409379579873 0.4450415241817294
0.34895450200019695 0.5075720566682951 0.4460185637518319
0.3491572940001788 0.5056179775280898 0.44406448461162684
0.34936093899978005 0.5056179775280898 0.441133365901319
0.3495623050002905 0.5065950170981925 0.4430874450415241
0.34976426499997615 0.5085490962383976 0.43722520762090866
0.34996616799980984 0.5105031753786029 0.4382022471910112
0.35016785000061645 0.5144113336590133 0.43722520762090866
0.3503702349999003 0.5163654127992183 0.4333170493404983
0.3505729349999456 0.5153883732291158 0.431362970200293
0.35077445000024454 0.5183194919394236 0.4303859306301905
0.35097727900028985 0.5212506106497312 0.4284318514899854
0.35117940500003897 0.5202735710796287 0.4284318514899854
0.3513821790002112 0.5202735710796287 0.4303859306301905
0.35158578700065846 0.5192965315095261 0.43624816805080613
0.35178945000006934 0.5202735710796287 0.4323400097703958
0.351992576000157 0.5163654127992183 0.4382022471910112
0.35219510900060413 0.5114802149487054 0.43917928676111373
0.35239692000050127 0.5153883732291158 0.441133365901319
0.35259952800061 0.512457254518808 0.44699560332193444
0.35280167200016876 0.5114802149487054 0.4460185637518319
0.35300363100031973 0.5134342940889105 0.4479726428920372
0.3532051460006187 0.5095261358085001 0.457743038593063
0.35340762400028325 0.5065950170981925 0.44992672203224227
0.3536102680000113 0.5065950170981925 0.45188080117244755
0.35381237599995075 0.5075720566682951 0.44894968246213973
0.3540147049998268 0.495847581827064 0.4538348803126526
0.3542178130001048 0.4851001465559355 0.4528578407425501
0.3544201980002981 0.4704445530043966 0.4557889594528579
0.35462323100000503 0.45969711773326827 0.45676599902296044
0.35484493100011605 0.4538348803126526 0.457743038593063
0.35506361199986713 0.44211040547142155 0.4587200781631655
0.35527816400008305 0.4382022471910112 0.46262823644357587
0.3554794749998109 0.42940889106008795 0.46262823644357587
0.35568186000000424 0.4264777723497801 0.46262823644357587
0.3558848560005572 0.42159257449926724 0.4606741573033708
0.35608800099998916 0.42159257449926724 0.45969711773326827
0.3562906080005632 0.4264777723497801 0.4606741573033708
0.3564927900006296 0.4264777723497801 0.45969711773326827
0.35669667500042124 0.431362970200293 0.4538348803126526
0.3568992270002127 0.43429408891060084 0.4538348803126526
0.3571027039997716 0.43917928676111373 0.457743038593063
0.35730445999979565 0.4430874450415241 0.4557889594528579
0.35750671599998896 0.44211040547142155 0.45188080117244755
0.35770947099990735 0.43624816805080613 0.4509037616023448
0.35791652300031274 0.43624816805080613 0.45188080117244755
0.35812825999983033 0.4352711284807034 0.4509037616023448
0.35833069999989675 0.431362970200293 0.4479726428920372
0.3585340859999633 0.4284318514899854 0.45188080117244755
0.3587369150000086 0.4255007327796776 0.44894968246213973
0.3589404860003924 0.42256961406936977 0.44894968246213973
0.3591425000004165 0.4176844162188569 0.4509037616023448
0.3594872160001614 0.4137762579384465 0.45481191988275516
0.35973708199981047 0.4079140205178309 0.4557889594528579
0.3599417639998137 0.40205178309721545 0.45481191988275516
0.36015307399975427 0.39228138739618945 0.457743038593063
0.3603549600002225 0.38446507083536874 0.4557889594528579
0.36055788200064853 0.3776257938446508 0.4557889594528579
0.3607593229999111 0.3707865168539326 0.46458231558378116
0.36095985600059066 0.37176355642403514 0.46165119687347334
0.3611621300005936 0.3659013190034197 0.46458231558378116
0.3613646260000678 0.3639472398632144 0.4655593551538837
0.36167839800054935 0.358085002442599 0.46262823644357587
0.3618957090002368 0.3561309233023937 0.46458231558378116
0.362100594000367 0.3531998045920859 0.46458231558378116
0.3623093129999688 0.35417684416218864 0.4636052760136786
0.3625130870004796 0.35417684416218864 0.4655593551538837
0.36271945299995423 0.35222276502198335 0.4636052760136786
0.36292328299987275 0.3512457254518808 0.46165119687347334
0.3631271869999182 0.3512457254518808 0.46262823644357587
0.3633309790002386 0.3551538837322912 0.4606741573033708
0.3635452720000103 0.3561309233023937 0.45969711773326827
0.3637486750003518 0.358085002442599 0.46165119687347334
0.3639520420001645 0.36687835857352225 0.4587200781631655
0.3641543530002309 0.37274059599413767 0.4587200781631655
0.36435603500012803 0.38446507083536874 0.4538348803126526
0.3645592350003426 0.4049829018075233 0.45188080117244755
0.3647642679998171 0.42452369320957506 0.44894968246213973
0.3649671720004335 0.441133365901319 0.4479726428920372
0.3651708340003097 0.4528578407425501 0.4430874450415241
0.365372367999953 0.4665363947239862 0.441133365901319
0.3655751420001252 0.4763067904250122 0.43917928676111373
0.3657770830004665 0.48216902784562765 0.43917928676111373
0.3659834489999412 0.48705422569614076 0.4352711284807034
0.36618731599992316 0.49682462139716654 0.4401563263312165
0.36638973800017993 0.49877870053737183 0.4479726428920372
0.3665921600004367 0.4948705422569615 0.44894968246213973
0.36679448999984743 0.4948705422569615 0.44894968246213973
0.36699656000018877 0.49193942354665365 0.4528578407425501
0.3671994269998322 0.4938935026868587 0.4509037616023448
0.3674013310001101 0.4929164631167562 0.4509037616023448
0.3676179009999032 0.4938935026868587 0.44894968246213973
0.36782367500018154 0.4948705422569615 0.44894968246213973
0.36802580099993065 0.49877870053737183 0.44894968246213973
0.3682277970001451 0.495847581827064 0.44894968246213973
0.36842951600010565 0.5026868588177822 0.4509037616023448
0.36863151200032007 0.49975574010747437 0.44992672203224227
0.36883460100034426 0.5026868588177822 0.4479726428920372
0.36903746700045303 0.5036638983878847 0.44699560332193444
0.3692397040003925 0.5036638983878847 0.44699560332193444
0.3694414230003531 0.5085490962383976 0.4460185637518319
0.3696432900005675 0.5085490962383976 0.4430874450415241
0.3698452670005281 0.5095261358085001 0.44211040547142155
0.3700477080001292 0.5163654127992183 0.4382022471910112
0.37025331600034406 0.5134342940889105 0.43917928676111373
0.37045710799975495 0.5183194919394236 0.4401563263312165
0.37065982700005407 0.524181729360039 0.43722520762090866
0.3708618970003954 0.522227650219834 0.43917928676111373
0.3710648559999754 0.524181729360039 0.43722520762090866
0.37126681600057054 0.5251587689301416 0.4382022471910112
0.3714688489999389 0.522227650219834 0.4382022471910112
0.3716729010002382 0.5202735710796287 0.43917928676111373
0.37188350799988257 0.5192965315095261 0.4382022471910112
0.37209068900028797 0.5183194919394236 0.4401563263312165
0.3723097960000814 0.5202735710796287 0.441133365901319
0.37252501500006474 0.5192965315095261 0.44211040547142155
0.3727570850005577 0.5163654127992183 0.441133365901319
0.37303741300002 0.5173424523693209 0.4401563263312165
0.37326087200017355 0.5183194919394236 0.44211040547142155
0.373483497000052 0.5153883732291158 0.43917928676111373
0.3737056780000785 0.5163654127992183 0.441133365901319
0.3739895059998162 0.5065950170981925 0.441133365901319
0.3742309090002891 0.48900830483634583 0.4450415241817294
0.37447129400061385 0.47239863214460187 0.44699560332193444
0.3747433070002444 0.45969711773326827 0.4538348803126526
0.37500463600008516 0.44894968246213973 0.45676599902296044
0.3752807050004776 0.4382022471910112 0.45676599902296044
0.3757123639998099 0.4255007327796776 0.46165119687347334
0.37605019100010395 0.42159257449926724 0.4587200781631655
0.37634103700020205 0.4206155349291647 0.45969711773326827
0.37668651300009515 0.4303859306301905 0.4557889594528579
0.37694817400006286 0.4382022471910112 0.44992672203224227
0.37718409599983715 0.43917928676111373 0.45188080117244755
0.3774019620004765 0.4401563263312165 0.44992672203224227
0.37765534700065473 0.4382022471910112 0.4450415241817294
0.3778576390004673 0.4382022471910112 0.4460185637518319
0.3780577839997932 0.431362970200293 0.4450415241817294
0.37825715100007073 0.4284318514899854 0.44992672203224227
0.3784572949998619 0.42745481191988266 0.44992672203224227
0.37867836500026897 0.4255007327796776 0.45676599902296044
0.3788796580001872 0.4206155349291647 0.4479726428920372
0.37908400600008463 0.41670737664875435 0.44894968246213973
0.37928429800012964 0.41475329750854906 0.44894968246213973
0.37948699800017494 0.40986809965803617 0.4528578407425501
0.3797005320002427 0.4059599413776258 0.4538348803126526
0.37990049100062606 0.3961895456765998 0.45676599902296044
0.3801013199999943 0.38641914997557403 0.457743038593063
0.38030089099993347 0.3834880312652662 0.4587200781631655
0.38050285000008444 0.3786028334147533 0.457743038593063
0.38070142100059456 0.3737176355642404 0.45969711773326827
0.3809005100001741 0.3659013190034197 0.4606741573033708
0.3810994320001555 0.3639472398632144 0.46262823644357587
0.38130041000022175 0.3610161211529066 0.46165119687347334
0.38150005399984366 0.3551538837322912 0.4557889594528579
0.3816995130000578 0.35222276502198335 0.4636052760136786
0.38189856500048336 0.34733756717147046 0.46262823644357587
0.3820983209998303 0.34929164631167553 0.4636052760136786
0.3822989469999811 0.34636052760136793 0.45969711773326827
0.38250011000036466 0.34929164631167553 0.4606741573033708
0.3826990690004095 0.34733756717147046 0.4587200781631655
0.3828994909999892 0.3502686858817783 0.46262823644357587
0.38309998800014 0.35417684416218864 0.4636052760136786
0.38330102100007934 0.3531998045920859 0.46165119687347334
0.3835005920000185 0.3551538837322912 0.467513434294089
0.38371006899978966 0.35906204201270153 0.4704445530043966
0.3839111209999828 0.3639472398632144 0.4704445530043966
0.38411002500015456 0.36980947728383007 0.4753297508549097
0.384311577000517 0.38153395212506114 0.4704445530043966
0.38451248000001215 0.39716658524670256 0.46458231558378116
0.38471305100028985 0.41963849535906195 0.467513434294089
0.38491217699993285 0.43429408891060084 0.4655593551538837
0.3851118399998086 0.44992672203224227 0.4636052760136786
0.38531154000065726 0.46262823644357587 0.4587200781631655
0.3855251290005981 0.47239863214460187 0.45676599902296044
0.38574438400064537 0.4851001465559355 0.4538348803126526
0.38596045400026924 0.49193942354665365 0.44992672203224227
0.3861845790006555 0.49682462139716654 0.4460185637518319
0.38643431600030453 0.49975574010747437 0.4450415241817294
0.3867345140006364 0.4938935026868587 0.4450415241817294
0.3870655259997875 0.48998534440644836 0.44406448461162684
0.38747183400028007 0.49193942354665365 0.44699560332193444
0.3879426029998285 0.4948705422569615 0.44992672203224227
0.38826267100012046 0.4948705422569615 0.4509037616023448
0.3886422200002926 0.5007327796775769 0.4479726428920372
0.38901443499980815 0.5026868588177822 0.44992672203224227
0.38925002300038614 0.5046409379579873 0.4479726428920372
0.389480851999906 0.5056179775280898 0.4460185637518319
0.3897294590005913 0.5105031753786029 0.44211040547142155
0.3900256389997594 0.5114802149487054 0.43917928676111373
0.39031068900021637 0.5163654127992183 0.43917928676111373
0.39054329600003257 0.5153883732291158 0.43917928676111373
0.39075288500043825 0.5192965315095261 0.4333170493404983
0.3909576770001877 0.5251587689301416 0.4352711284807034
0.3913520400001289 0.5202735710796287 0.4284318514899854
0.39172931099983543 0.5173424523693209 0.4284318514899854
0.39195230699988315 0.5202735710796287 0.4264777723497801
0.392154526000013 0.5163654127992183 0.4235466536394723
0.3923540960004175 0.5163654127992183 0.41963849535906195
0.39255403700008173 0.5134342940889105 0.42159257449926724
0.3927537930003382 0.5163654127992183 0.42256961406936977
0.39295384400065814 0.5153883732291158 0.42745481191988266
0.3931535259998782 0.512457254518808 0.4303859306301905
0.3933531890006634 0.5114802149487054 0.431362970200293
0.39355318500020076 0.5095261358085001 0.4352711284807034
0.3937530520006476 0.512457254518808 0.43722520762090866
0.3939547150002909 0.5026868588177822 0.44406448461162684
0.3941560630000822 0.48998534440644836 0.44699560332193444
0.3943564299997888 0.47923790913532005 0.4528578407425501
0.3945570559999396 0.46458231558378116 0.457743038593063
0.3947570890004499 0.4538348803126526 0.457743038593063
0.39495693700064294 0.4450415241817294 0.4587200781631655
0.3951563230002648 0.4401563263312165 0.457743038593063
0.39535668900043675 0.4333170493404983 0.45969711773326827
0.3955630000000383 0.4284318514899854 0.457743038593063
0.3957647930001258 0.4255007327796776 0.4557889594528579
0.3959631600000648 0.42256961406936977 0.45676599902296044
0.39616256400040584 0.4206155349291647 0.4587200781631655
0.39636326399977406 0.42256961406936977 0.457743038593063
0.39656200100034766 0.42452369320957506 0.4528578407425501
0.3967604970002867 0.4284318514899854 0.45676599902296044
0.39695951200064883 0.43722520762090866 0.4528578407425501
0.39715824900031294 0.4401563263312165 0.457743038593063
0.39735693100010394 0.441133365901319 0.45188080117244755
0.3975558160000219 0.43722520762090866 0.45676599902296044
0.39775466399987636 0.4382022471910112 0.4528578407425501
0.3979558270002599 0.431362970200293 0.45188080117244755
0.3981546380000509 0.4284318514899854 0.457743038593063
0.3983537829999477 0.4255007327796776 0.4557889594528579
0.39855253800033097 0.42256961406936977 0.4587200781631655
0.39875131200005853 0.42256961406936977 0.457743038593063
0.39895038299982843 0.4176844162188569 0.44992672203224227
0.39915017600014835 0.41670737664875435 0.4479726428920372
0.39934995000021445 0.4157303370786516 0.4509037616023448
0.3995537979999426 0.40986809965803617 0.4528578407425501
0.3997544049998396 0.40009770395701016 0.4509037616023448
0.39995390200056136 0.3932584269662922 0.4509037616023448
0.40015536100054305 0.38935026868588185 0.4538348803126526
0.4003562650004824 0.3786028334147533 0.45188080117244755
0.4005556500005696 0.37274059599413767 0.4528578407425501
0.40075533100025496 0.36980947728383007 0.45676599902296044
0.40095653099979245 0.3639472398632144 0.4587200781631655
0.4011556200002815 0.36003908158280407 0.45481191988275516
0.40135719099998823 0.3639472398632144 0.4557889594528579
0.4015564279998216 0.3561309233023937 0.4557889594528579
0.4017565909998666 0.3531998045920859 0.45481191988275516
0.40195790200050396 0.35222276502198335 0.4587200781631655
0.4021576390005066 0.348314606741573 0.45676599902296044
0.4023582460004036 0.3512457254518808 0.45969711773326827
0.4025584830005755 0.34733756717147046 0.45969711773326827
0.4027570170001127 0.34929164631167553 0.46458231558378116
0.4029561980005383 0.3531998045920859 0.46262823644357587
0.4031558060005409 0.35222276502198335 0.4606741573033708
0.4033581730000151 0.35417684416218864 0.457743038593063
0.40361533499981306 0.358085002442599 0.4606741573033708
0.40386192300047696 0.3629702002931119 0.45969711773326827
0.4040697340005863 0.37176355642403514 0.45969711773326827
0.40427239700056816 0.38153395212506114 0.4557889594528579
0.4044815590004873 0.4010747435271129 0.4636052760136786
0.4046856109998771 0.41963849535906195 0.44894968246213973
0.40488875600021856 0.4333170493404983 0.4538348803126526
0.40509091900003114 0.45188080117244755 0.45481191988275516
0.40529343300022447 0.46458231558378116 0.4587200781631655
0.40549535599984665 0.4763067904250122 0.45969711773326827
0.405697111000336 0.48900830483634583 0.457743038593063
0.40589853300025425 0.49193942354665365 0.4606741573033708
0.40610110400029953 0.495847581827064 0.4587200781631655
0.40630265600066195 0.4978016609672691 0.457743038593063
0.40650611500041123 0.49975574010747437 0.457743038593063
0.40670966700054123 0.5026868588177822 0.4538348803126526
0.40691445900029066 0.495847581827064 0.4557889594528579
0.40711682599976484 0.4948705422569615 0.4538348803126526
0.4073182110005291 0.49193942354665365 0.45481191988275516
0.40754707700034487 0.495847581827064 0.4538348803126526
0.40775120299986156 0.4948705422569615 0.4557889594528579
0.4079541440005414 0.4978016609672691 0.45481191988275516
0.4081972690000839 0.495847581827064 0.457743038593063
0.4084143580003001 0.49975574010747437 0.457743038593063
0.408623928000452 0.49975574010747437 0.457743038593063
0.4088268129999051 0.5026868588177822 0.45481191988275516
0.4090316609999718 0.5017098192476794 0.45481191988275516
0.40923415799989016 0.5056179775280898 0.4538348803126526
0.40943561699987185 0.5065950170981925 0.4509037616023448
0.4096387429999595 0.5095261358085001 0.4509037616023448
0.4098406840003008 0.512457254518808 0.44992672203224227
0.4100434760002827 0.512457254518808 0.4479726428920372
0.41024739800013776 0.5144113336590133 0.4460185637518319
0.41044989500005613 0.5163654127992183 0.44406448461162684
0.41065226099999563 0.5192965315095261 0.43917928676111373
0.41085503500016785 0.5212506106497312 0.44211040547142155
0.4110572540002977 0.5202735710796287 0.43917928676111373
0.4112666569999419 0.5163654127992183 0.43917928676111373
0.41149876400049834 0.5173424523693209 0.43722520762090866
0.411779074000151 0.5183194919394236 0.43917928676111373
0.4119922919999226 0.5163654127992183 0.4382022471910112
0.4121942150004543 0.5144113336590133 0.43917928676111373
0.41239806300018245 0.5163654127992183 0.4382022471910112
0.41260035499999503 0.5163654127992183 0.4401563263312165
0.41280392600037885 0.5144113336590133 0.4352711284807034
0.41300719999981084 0.5163654127992183 0.4352711284807034
0.4132099919997927 0.5144113336590133 0.43429408891060084
0.4134122290006417 0.522227650219834 0.431362970200293
0.41361615100049676 0.5114802149487054 0.4303859306301905
0.4138186290001613 0.5095261358085001 0.43429408891060084
0.41402103300060844 0.5017098192476794 0.43429408891060084
0.41422302899991337 0.48900830483634583 0.43624816805080613
0.4144252480000432 0.47923790913532005 0.43917928676111373
0.4146276139999827 0.46458231558378116 0.43917928676111373
0.4148295370005144 0.45969711773326827 0.4430874450415241
0.4150331440005175 0.44699560332193444 0.4430874450415241
0.4152361220003513 0.441133365901319 0.4479726428920372
0.4154403030006506 0.43624816805080613 0.4528578407425501
0.4156494480002948 0.431362970200293 0.457743038593063
0.4158547590004673 0.42745481191988266 0.45481191988275516
0.416056977000153 0.4264777723497801 0.457743038593063
0.4162581400005365 0.4235466536394723 0.45481191988275516
0.41645943300045474 0.4255007327796776 0.45481191988275516
0.41666155900020385 0.431362970200293 0.4557889594528579
0.4168640730003972 0.43624816805080613 0.45188080117244755
0.4170671809997657 0.4401563263312165 0.45676599902296044
0.4172688990001916 0.4401563263312165 0.44699560332193444
0.417470451000554 0.4401563263312165 0.44894968246213973
0.4176728920001551 0.441133365901319 0.44406448461162684
0.4178770919997987 0.43624816805080613 0.4479726428920372
0.41807877300016116 0.43429408891060084 0.44992672203224227
0.4182825289999528 0.4303859306301905 0.44894968246213973
0.41848495100020955 0.4255007327796776 0.44894968246213973
0.41868804000023374 0.4235466536394723 0.4538348803126526
0.4188893509999616 0.42256961406936977 0.457743038593063
0.4190909590006413 0.41963849535906195 0.4587200781631655
0.4192946960001791 0.412799218368344 0.45969711773326827
0.4194961550001608 0.4059599413776258 0.46262823644357587
0.4197166690000813 0.40205178309721545 0.45969711773326827
0.4199205550003171 0.3952125061064973 0.46458231558378116
0.42012314300063736 0.3903273082559844 0.4655593551538837
0.4205343029998403 0.37274059599413767 0.467513434294089
0.4207621499999732 0.36980947728383007 0.46946751343429405
0.4209688320006535 0.36199316072300936 0.4704445530043966
0.4211728090003817 0.3610161211529066 0.4733756717147044
0.4213753240001097 0.3561309233023937 0.47239863214460187
0.42157741299979534 0.3512457254518808 0.47435271128480694
0.42177863200049615 0.3502686858817783 0.4782608695652173
0.421980072000224 0.3502686858817783 0.4733756717147044
0.42218175400012115 0.3502686858817783 0.47239863214460187
0.4223848060000819 0.34636052760136793 0.4782608695652173
0.4225860240003385 0.34733756717147046 0.47239863214460187
0.42278829800034146 0.34733756717147046 0.47728382999511476
0.4229907210001329 0.3502686858817783 0.47728382999511476
0.42319280999981856 0.3531998045920859 0.47239863214460187
0.423394491000181 0.3531998045920859 0.47239863214460187
0.42362615300044126 0.3561309233023937 0.4704445530043966
0.42383292700014863 0.36199316072300936 0.4655593551538837
0.4240391829998771 0.3659013190034197 0.4655593551538837
0.4242471610004941 0.38153395212506114 0.46165119687347334
0.4244539720002649 0.3961895456765998 0.4557889594528579
0.42466019000039523 0.4137762579384465 0.4557889594528579
0.42486289000044053 0.43429408891060084 0.45188080117244755
0.4250654970001051 0.44894968246213973 0.44992672203224227
0.42526877199998125 0.4606741573033708 0.44699560332193444
0.42547274900061893 0.47142159257449934 0.44699560332193444
0.42567609700017783 0.48412310698583294 0.44406448461162684
0.4258783900004346 0.4929164631167562 0.44406448461162684
0.4260804969999299 0.495847581827064 0.441133365901319
0.42628175299978466 0.5017098192476794 0.4401563263312165
0.4264843600003587 0.5046409379579873 0.44211040547142155
0.4266862829999809 0.49682462139716654 0.44406448461162684
0.42688835300032224 0.495847581827064 0.441133365901319
0.4270926640001562 0.4929164631167562 0.4430874450415241
0.42729447500005335 0.495847581827064 0.43917928676111373
0.4274964160003947 0.4948705422569615 0.43624816805080613
0.42771965300016745 0.495847581827064 0.4352711284807034
0.42792259300040314 0.49975574010747437 0.43624816805080613
0.42812497800059646 0.49682462139716654 0.43624816805080613
0.4283275859997957 0.495847581827064 0.4333170493404983
0.4285293780003485 0.49877870053737183 0.4333170493404983
0.42873496700030955 0.5007327796775769 0.4303859306301905
0.428939315000207 0.5017098192476794 0.42940889106008795
0.4291416450005272 0.5026868588177822 0.42940889106008795
0.4293438820004667 0.5036638983878847 0.4255007327796776
0.42954519300019456 0.5065950170981925 0.4264777723497801
0.4297463009997955 0.5105031753786029 0.4255007327796776
0.4299481120006021 0.5105031753786029 0.4333170493404983
0.4301496080006473 0.5144113336590133 0.43917928676111373
0.43035195599986764 0.5183194919394236 0.441133365901319
0.43055400800039934 0.5173424523693209 0.4460185637518319
0.43075633799981006 0.522227650219834 0.4479726428920372
0.4309582229998341 0.5202735710796287 0.44894968246213973
0.4311623490002603 0.5212506106497312 0.44992672203224227
0.4313645490001363 0.5232046897899365 0.44406448461162684
0.4315663779998431 0.522227650219834 0.4479726428920372
0.43176711600062845 0.5212506106497312 0.44406448461162684
0.4319689450003352 0.522227650219834 0.44406448461162684
0.4321713859999363 0.5183194919394236 0.441133365901319
0.4323731790000238 0.5183194919394236 0.43917928676111373
0.43257517500023823 0.5163654127992183 0.43917928676111373
0.4327770230001988 0.5163654127992183 0.4333170493404983
0.43297857500056125 0.5153883732291158 0.43917928676111373
0.4331805159999931 0.5153883732291158 0.43624816805080613
0.43338254900027096 0.5134342940889105 0.43624816805080613
0.43358978600008413 0.5114802149487054 0.4382022471910112
0.4337922270005947 0.5134342940889105 0.43624816805080613
0.43399505600064003 0.5026868588177822 0.43917928676111373
0.4341966270003468 0.4851001465559355 0.4430874450415241
0.4343995859999268 0.4763067904250122 0.4430874450415241
0.4346007300000565 0.46458231558378116 0.44894968246213973
0.4348022640006093 0.4557889594528579 0.4528578407425501
0.43500500099980854 0.4460185637518319 0.45481191988275516
0.4352066270002979 0.43917928676111373 0.457743038593063
0.435409196999899 0.4323400097703958 0.45676599902296044
0.43562384100005147 0.4255007327796776 0.46165119687347334
0.4358260409999275 0.4235466536394723 0.46262823644357587
0.43602916700001515 0.42256961406936977 0.4636052760136786
0.43623160800052574 0.4206155349291647 0.46262823644357587
0.43643410399999993 0.4255007327796776 0.4655593551538837
0.43663584099977015 0.4303859306301905 0.46262823644357587
0.4368379859997731 0.4333170493404983 0.46165119687347334
0.4370406859998184 0.4382022471910112 0.4606741573033708
0.43724629300049855 0.4401563263312165 0.4587200781631655
0.43746030800048175 0.4430874450415241 0.457743038593063
0.43768037800055026 0.4382022471910112 0.4587200781631655
0.4379089109997949 0.4333170493404983 0.4557889594528579
0.4381142960000943 0.4323400097703958 0.4587200781631655
0.43831638499978 0.4284318514899854 0.4587200781631655
0.43851795499995205 0.42452369320957506 0.4587200781631655
0.438720543999807 0.42745481191988266 0.4587200781631655
0.4389267619999373 0.42256961406936977 0.45969711773326827
0.4391371840001739 0.4186614557889594 0.457743038593063
0.43934306900064257 0.4157303370786516 0.4606741573033708
0.4395509169999059 0.40693698094772834 0.4587200781631655
0.4397529879997819 0.40205178309721545 0.457743038593063
0.43995492900012323 0.3961895456765998 0.457743038593063
