0 0.49193942354665365 0.4235466536394723
0.000986255000498204 0.48705422569614076 0.4264777723497801
0.0012596570004461682 0.4811919882755251 0.4303859306301905
0.0015860379999139695 0.47435271128480694 0.431362970200293
0.0018921789996966254 0.47142159257449934 0.4303859306301905
0.0021303029998307466 0.46262823644357587 0.4333170493404983
0.0023586309998790966 0.4538348803126526 0.4401563263312165
0.0026137370005017146 0.43917928676111373 0.44699560332193444
0.002854823999768996 0.42159257449926724 0.457743038593063
0.0030822999997326406 0.41475329750854906 0.45188080117244755
0.0033289419998254743 0.403028822667318 0.45676599902296044
0.0036086580003029667 0.40009770395701016 0.4557889594528579
0.003844060000119498 0.39912066438690763 0.4528578407425501
0.004090962000191212 0.39716658524670256 0.4509037616023448
0.004316956999900867 0.40205178309721545 0.4538348803126526
0.004525432999798795 0.4049829018075233 0.45188080117244755
0.004751909999868076 0.41475329750854906 0.4528578407425501
0.004994367000108468 0.4206155349291647 0.45676599902296044
0.005202676999942923 0.42452369320957506 0.457743038593063
0.005534613999770954 0.4284318514899854 0.46458231558378116
0.005762572000094224 0.4284318514899854 0.46165119687347334
0.006001343999741948 0.42940889106008795 0.45969711773326827
0.006257023000216577 0.431362970200293 0.46458231558378116
0.006486555000265071 0.4284318514899854 0.4538348803126526
0.006708179999804997 0.4255007327796776 0.45481191988275516
0.006952896000257169 0.41670737664875435 0.4528578407425501
0.007166946999859647 0.40986809965803617 0.45188080117244755
0.007400405000225874 0.40693698094772834 0.4538348803126526
0.0076112890001240885 0.39912066438690763 0.457743038593063
0.007818562000466045 0.39716658524670256 0.46458231558378116
0.008036463999815169 0.3932584269662922 0.4684904738641915
0.008255163000285393 0.3903273082559844 0.4782608695652173
0.008466825000141398 0.3854421104054715 0.4782608695652173
0.008707523000339279 0.38153395212506114 0.48412310698583294
0.008939610000197717 0.38153395212506114 0.4851001465559355
0.009153363999757858 0.37469467513434296 0.4831460674157304
0.009352897000098892 0.3756717147044455 0.48216902784562765
0.009564373000102933 0.3737176355642404 0.48216902784562765
0.009762923999915074 0.3737176355642404 0.47923790913532005
0.0099613459997272 0.37274059599413767 0.47923790913532005
0.010160155999983544 0.37176355642403514 0.48216902784562765
0.010392187999968883 0.37274059599413767 0.4811919882755251
0.010597442000289448 0.37469467513434296 0.4763067904250122
0.010798530000101891 0.376648754274548 0.4753297508549097
0.010999265999998897 0.38446507083536874 0.46946751343429405
0.011198002999663004 0.38739618954567656 0.4684904738641915
0.011397498000405903 0.3913043478260869 0.46946751343429405
0.01159690100030275 0.3961895456765998 0.4753297508549097
0.011795469999924535 0.4040058622374205 0.4733756717147044
0.011994188000244321 0.4137762579384465 0.47142159257449934
0.0121930909999719 0.4176844162188569 0.4733756717147044
0.012390846000016609 0.4264777723497801 0.4665363947239862
0.012599656000020332 0.43722520762090866 0.46262823644357587
0.012804281000171613 0.4528578407425501 0.457743038593063
0.013003646000470326 0.46165119687347334 0.4557889594528579
0.013202142000409367 0.47239863214460187 0.44992672203224227
0.013505208999958995 0.47923790913532005 0.441133365901319
0.013707314999919618 0.4851001465559355 0.44699560332193444
0.013906754999879922 0.4929164631167562 0.4509037616023448
0.014108287999988534 0.495847581827064 0.4460185637518319
0.01430752400028723 0.49682462139716654 0.44699560332193444
0.01450581599965517 0.49877870053737183 0.44699560332193444
0.014704385000186448 0.5007327796775769 0.44894968246213973
0.01490356599970255 0.49975574010747437 0.44894968246213973
0.015112820000467764 0.5017098192476794 0.4509037616023448
0.01531918599994242 0.5056179775280898 0.4509037616023448
0.015519180999945092 0.5075720566682951 0.45188080117244755
0.015717973000391794 0.5153883732291158 0.4557889594528579
0.015916987000309746 0.5163654127992183 0.44992672203224227
0.016115592999994988 0.5192965315095261 0.4479726428920372
0.0163142000001244 0.5212506106497312 0.4479726428920372
0.016513677000148164 0.5202735710796287 0.44406448461162684
0.01671369100040465 0.5202735710796287 0.43917928676111373
0.016913168000428414 0.5183194919394236 0.43722520762090866
0.017111867000494385 0.5183194919394236 0.431362970200293
0.017311565999989398 0.5202735710796287 0.4255007327796776
0.01753098700010014 0.5183194919394236 0.42452369320957506
0.017730927000229713 0.5192965315095261 0.41670737664875435
0.01793038499999966 0.5251587689301416 0.4235466536394723
0.018128825000530924 0.522227650219834 0.42159257449926724
0.01832833899970865 0.5232046897899365 0.4284318514899854
0.018528870999944047 0.5202735710796287 0.4382022471910112
0.01872664500024257 0.5202735710796287 0.4333170493404983
0.01892410300024494 0.5173424523693209 0.43722520762090866
0.01912263600024744 0.5134342940889105 0.43722520762090866
0.019320594000419078 0.512457254518808 0.43722520762090866
0.019519811999998637 0.5065950170981925 0.4303859306301905
0.01971789999970497 0.5026868588177822 0.42452369320957506
0.01993513500019617 0.495847581827064 0.4176844162188569
0.02013713100041059 0.49193942354665365 0.4108451392281387
0.020336774000497826 0.48900830483634583 0.40205178309721545
0.020535880999887013 0.48900830483634583 0.39912066438690763
0.02073350600039703 0.48412310698583294 0.40009770395701016
0.02093196399982844 0.4851001465559355 0.4059599413776258
0.021129960000507708 0.4831460674157304 0.4108451392281387
0.021328140999685274 0.4802149487054226 0.4137762579384465
0.02155313500043121 0.4782608695652173 0.4176844162188569
0.021758760000011534 0.4782608695652173 0.42452369320957506
0.021961348000331782 0.4733756717147044 0.4235466536394723
0.02216354699976364 0.46262823644357587 0.4382022471910112
0.022365097999681893 0.4557889594528579 0.4430874450415241
0.022570131000065885 0.44406448461162684 0.44992672203224227
0.022772459000407252 0.4333170493404983 0.4538348803126526
0.022974325000177487 0.4264777723497801 0.45969711773326827
0.023176208999757364 0.41475329750854906 0.4606741573033708
0.023378853000394884 0.40889106008793363 0.4636052760136786
0.02358103300048242 0.40693698094772834 0.46165119687347334
0.02378245500040066 0.40205178309721545 0.46262823644357587
0.023984487000234367 0.403028822667318 0.46458231558378116
0.024188389999835636 0.403028822667318 0.45969711773326827
0.02438977400015574 0.40693698094772834 0.45676599902296044
0.024591288000010536 0.40693698094772834 0.45676599902296044
0.02479350500016153 0.40986809965803617 0.45188080117244755
0.024995519000185595 0.412799218368344 0.44894968246213973
0.02519929200025217 0.41475329750854906 0.45188080117244755
0.025413047000256483 0.41670737664875435 0.4509037616023448
0.025616079000428726 0.4186614557889594 0.4538348803126526
0.02581850000024133 0.4186614557889594 0.4538348803126526
0.026020014000096126 0.42256961406936977 0.4528578407425501
0.026223101999676146 0.42452369320957506 0.4636052760136786
0.026425189999827126 0.4255007327796776 0.45676599902296044
0.026626593000401044 0.41963849535906195 0.4528578407425501
0.026828496000234736 0.4137762579384465 0.4538348803126526
0.027029288000449014 0.4108451392281387 0.457743038593063
0.027239801000177977 0.40693698094772834 0.45481191988275516
0.027446519000477565 0.4040058622374205 0.45481191988275516
0.027649329000269063 0.39912066438690763 0.45481191988275516
0.027851417000420042 0.39423546653639474 0.46262823644357587
0.028059930999916105 0.3883732291157791 0.4636052760136786
0.028263166999749956 0.38935026868588185 0.46165119687347334
0.02846573599981639 0.38739618954567656 0.4665363947239862
0.028667675999713538 0.3854421104054715 0.46946751343429405
0.02887146700049925 0.38251099169516367 0.4704445530043966
0.029073222000079113 0.38251099169516367 0.4733756717147044
0.029274921000251197 0.38153395212506114 0.47923790913532005
0.029506638000384555 0.376648754274548 0.4802149487054226
0.029714967000472825 0.37469467513434296 0.4811919882755251
0.02993457299999136 0.3776257938446508 0.4831460674157304
0.030413561999921512 0.3786028334147533 0.48998534440644836
0.030736462000277243 0.3805569125549584 0.48998534440644836
0.0309724010003265 0.3834880312652662 0.4880312652662433
0.03120078400024795 0.3883732291157791 0.4811919882755251
0.03143855700000131 0.3903273082559844 0.47728382999511476
0.031658310999773676 0.3932584269662922 0.4733756717147044
0.031889046000287635 0.40009770395701016 0.46946751343429405
0.03212137399987114 0.4040058622374205 0.4684904738641915
0.03237625699966884 0.41475329750854906 0.46262823644357587
0.032700009000109276 0.4333170493404983 0.4528578407425501
0.03307381500053452 0.46165119687347334 0.44406448461162684
0.03344925100009277 0.48216902784562765 0.4333170493404983
0.0337406890002967 0.4938935026868587 0.4352711284807034
0.033952777000195056 0.5026868588177822 0.43624816805080613
0.03415804999985994 0.5056179775280898 0.4509037616023448
0.03437032300007559 0.5065950170981925 0.4430874450415241
0.0345847810003761 0.5065950170981925 0.44699560332193444
0.03480164600023272 0.5075720566682951 0.45188080117244755
0.035018178000427724 0.5056179775280898 0.4509037616023448
0.03522154399979627 0.5056179775280898 0.4509037616023448
0.0354243170004338 0.5056179775280898 0.45188080117244755
0.03563120099988737 0.5036638983878847 0.44992672203224227
0.035842047999722126 0.5056179775280898 0.4460185637518319
0.0360529689996838 0.5036638983878847 0.441133365901319
0.036264315999687824 0.512457254518808 0.4401563263312165
0.036473719000241545 0.5065950170981925 0.43917928676111373
0.03668012199977966 0.5134342940889105 0.4333170493404983
0.03688683900054457 0.5114802149487054 0.4333170493404983
0.03709796400016785 0.5183194919394236 0.4333170493404983
0.03732134799975029 0.5153883732291158 0.4333170493404983
0.03764041399972484 0.5163654127992183 0.42940889106008795
0.03787820500019734 0.5144113336590133 0.42745481191988266
0.03811823700016248 0.5144113336590133 0.42745481191988266
0.03834558299968194 0.5144113336590133 0.42940889106008795
0.0385646340000676 0.5202735710796287 0.4264777723497801
0.038789184000052046 0.5144113336590133 0.431362970200293
0.039007494000543375 0.5134342940889105 0.43429408891060084
0.039226452000548306 0.5134342940889105 0.4333170493404983
0.03946498400000564 0.5056179775280898 0.431362970200293
0.03969273799975781 0.5056179775280898 0.4323400097703958
0.039953397999852314 0.49877870053737183 0.4284318514899854
0.04027572399991186 0.49877870053737183 0.4255007327796776
0.040519422000215854 0.49975574010747437 0.42256961406936977
0.040775583000140614 0.4938935026868587 0.42256961406936977
0.04105287299989868 0.48900830483634583 0.42256961406936977
0.041308181999738736 0.48900830483634583 0.42159257449926724
0.041631730000517564 0.4831460674157304 0.4235466536394723
0.04191263099983189 0.47923790913532005 0.4235466536394723
0.04214462599975377 0.4704445530043966 0.4303859306301905
0.04240143500010163 0.4587200781631655 0.43917928676111373
0.04267135500049335 0.44699560332193444 0.44406448461162684
0.04293118199984747 0.4352711284807034 0.4479726428920372
0.04319086099985725 0.4235466536394723 0.45481191988275516
0.0434472070000993 0.4157303370786516 0.4557889594528579
0.04370738600027835 0.4079140205178309 0.45676599902296044
0.04397030600011931 0.4049829018075233 0.4587200781631655
0.04422654100017098 0.40205178309721545 0.45188080117244755
0.04449892400043609 0.40986809965803617 0.44699560332193444
0.04480895400047302 0.4059599413776258 0.44406448461162684
0.0450919659997453 0.40986809965803617 0.441133365901319
0.04537527400043473 0.40009770395701016 0.4450415241817294
0.045745284000076936 0.3913043478260869 0.44699560332193444
0.046099572000457556 0.3805569125549584 0.44992672203224227
0.04643037900041236 0.376648754274548 0.4557889594528579
0.046810167000330694 0.3678553981436248 0.46262823644357587
0.04717456599973957 0.3629702002931119 0.4655593551538837
0.04748476300028415 0.3629702002931119 0.4665363947239862
0.04781258799994248 0.35906204201270153 0.47239863214460187
0.04814239600000292 0.3610161211529066 0.47239863214460187
0.048483479999958945 0.35906204201270153 0.4753297508549097
0.04883497199989506 0.3678553981436248 0.4782608695652173
0.049165686999913305 0.3756717147044455 0.4763067904250122
0.04966336100005719 0.39228138739618945 0.47435271128480694
0.050408140000399726 0.41182217879824123 0.4753297508549097
0.050764798000273004 0.4235466536394723 0.4684904738641915
0.05102758900011395 0.42745481191988266 0.47728382999511476
0.05131756399987353 0.43624816805080613 0.47142159257449934
0.0515886680004769 0.4382022471910112 0.4733756717147044
0.051871976999791514 0.441133365901319 0.47239863214460187
0.05229479999979958 0.45676599902296044 0.45969711773326827
0.052817233000496344 0.4831460674157304 0.4538348803126526
0.053048968000439345 0.49877870053737183 0.44699560332193444
0.053270037000402226 0.512457254518808 0.44699560332193444
0.05354430900024454 0.5232046897899365 0.441133365901319
0.05376508100016508 0.5300439667806547 0.43917928676111373
0.05398226200031786 0.5319980459208598 0.44211040547142155
0.05422945999998774 0.5310210063507572 0.44406448461162684
0.05449752799995622 0.5300439667806547 0.44992672203224227
0.054724745000385155 0.522227650219834 0.45481191988275516
0.05494048000036855 0.5163654127992183 0.457743038593063
0.055159141999865824 0.5134342940889105 0.46165119687347334
0.055374284999743395 0.5105031753786029 0.45969711773326827
0.055603021000024455 0.512457254518808 0.45676599902296044
0.05589899500046158 0.5105031753786029 0.4528578407425501
0.05612556400046742 0.512457254518808 0.45188080117244755
0.0563450780000494 0.5144113336590133 0.4450415241817294
0.056580608999865944 0.5075720566682951 0.43917928676111373
0.05684025200025644 0.5105031753786029 0.43624816805080613
0.05714531900048314 0.5095261358085001 0.42745481191988266
0.057958356000199274 0.5065950170981925 0.4323400097703958
0.05862204400000337 0.5056179775280898 0.431362970200293
0.05893540699980804 0.5046409379579873 0.4323400097703958
0.059162290999665856 0.5007327796775769 0.4323400097703958
0.0594547099999545 0.4978016609672691 0.431362970200293
0.0596965189997718 0.4978016609672691 0.431362970200293
0.05993901400051982 0.4948705422569615 0.4284318514899854
0.06016017500041926 0.4938935026868587 0.42159257449926724
0.06038172599983227 0.49975574010747437 0.41963849535906195
0.0606122580002193 0.5017098192476794 0.41963849535906195
0.06083373399997072 0.5026868588177822 0.41963849535906195
0.06105522899997595 0.5046409379579873 0.42256961406936977
0.06126766899978975 0.5007327796775769 0.4206155349291647
0.061521847999756574 0.4909623839765511 0.42745481191988266
0.06179050799983088 0.4811919882755251 0.4303859306301905
0.062068854000244755 0.4665363947239862 0.44211040547142155
0.06234708800002409 0.45481191988275516 0.4479726428920372
0.06293911200009461 0.4235466536394723 0.4528578407425501
0.06374629699985235 0.41475329750854906 0.45676599902296044
0.06399864299964975 0.4049829018075233 0.45676599902296044
0.06421719300033146 0.4079140205178309 0.4606741573033708
0.06444322500010458 0.40986809965803617 0.45969711773326827
0.06471357100053865 0.41475329750854906 0.4655593551538837
0.06494928800020716 0.41670737664875435 0.4587200781631655
0.06517463399995904 0.41670737664875435 0.457743038593063
0.06542199900013657 0.41182217879824123 0.45481191988275516
0.06567101200016623 0.40889106008793363 0.4557889594528579
0.0658932480000658 0.4079140205178309 0.457743038593063
0.06611379800051509 0.4040058622374205 0.4557889594528579
0.06633714500003407 0.3981436248168051 0.45676599902296044
0.06661884200002532 0.3952125061064973 0.4538348803126526
0.06684039300034783 0.3903273082559844 0.45188080117244755
0.06704972100033046 0.3883732291157791 0.4479726428920372
0.06725490200005879 0.3883732291157791 0.44406448461162684
0.06745989699993515 0.3903273082559844 0.4430874450415241
0.06766915099979087 0.3903273082559844 0.44894968246213973
0.06788210900049307 0.3903273082559844 0.4557889594528579
0.0681016409998847 0.39423546653639474 0.4665363947239862
0.06830884000009974 0.3913043478260869 0.47923790913532005
0.06852342799993494 0.39423546653639474 0.48900830483634583
0.06897673200001009 0.3952125061064973 0.5007327796775769
0.06934803900003317 0.3834880312652662 0.49877870053737183
0.06970438200005447 0.376648754274548 0.4880312652662433
0.07001091199981602 0.376648754274548 0.4811919882755251
0.07029922099991381 0.3756717147044455 0.47923790913532005
0.07058989899996959 0.3776257938446508 0.4802149487054226
0.07088292899970838 0.38446507083536874 0.48216902784562765
0.07116060800035484 0.3903273082559844 0.4753297508549097
0.0714503050003259 0.4040058622374205 0.47142159257449934
0.07172987300054956 0.412799218368344 0.4665363947239862
0.07202919900009874 0.4264777723497801 0.4606741573033708
0.07232747000034578 0.4382022471910112 0.4636052760136786
0.0727240719998008 0.45676599902296044 0.4479726428920372
0.0731572109998524 0.4782608695652173 0.4430874450415241
0.07363695900039602 0.49193942354665365 0.4450415241817294
0.07409006000034424 0.49975574010747437 0.4479726428920372
0.07456765999995696 0.49877870053737183 0.4450415241817294
0.07491217000006145 0.4978016609672691 0.4450415241817294
0.07665277900014189 0.5105031753786029 0.4430874450415241
0.0779190640005254 0.5144113336590133 0.43624816805080613
0.07825242699982482 0.5105031753786029 0.42745481191988266
0.07848975500019151 0.5134342940889105 0.4235466536394723
0.07871223100028146 0.5134342940889105 0.4206155349291647
0.07892785600051866 0.5163654127992183 0.41963849535906195
0.07913207300043723 0.5173424523693209 0.4206155349291647
0.07934051299980638 0.5144113336590133 0.4235466536394723
0.07979759499994543 0.5114802149487054 0.4323400097703958
0.08167794099972525 0.4684904738641915 0.4206155349291647
0.08210546800000884 0.45969711773326827 0.4255007327796776
0.08237624000048527 0.4479726428920372 0.43624816805080613
0.08268471399969712 0.4352711284807034 0.4430874450415241
0.08297609600049327 0.4284318514899854 0.44894968246213973
0.08322755399967718 0.42256961406936977 0.45188080117244755
0.08574155099995551 0.41475329750854906 0.4479726428920372
0.0861241170005087 0.41182217879824123 0.44894968246213973
0.0863733329997558 0.41475329750854906 0.44992672203224227
0.08661019800001668 0.40693698094772834 0.45188080117244755
0.08683134100010648 0.40205178309721545 0.4509037616023448
0.08704787300030148 0.39716658524670256 0.44894968246213973
0.0872652759999255 0.3961895456765998 0.4528578407425501
0.0874921960003121 0.3961895456765998 0.45676599902296044
0.0877176359999794 0.3903273082559844 0.4587200781631655
0.08793513100044947 0.38641914997557403 0.4665363947239862
0.08819231000052241 0.3786028334147533 0.47435271128480694
0.08847073000015371 0.3776257938446508 0.4782608695652173
0.08869796500039229 0.37469467513434296 0.4782608695652173
0.08890068300024723 0.3756717147044455 0.4811919882755251
0.08910810399993352 0.3737176355642404 0.4782608695652173
0.08930720999978803 0.37274059599413767 0.47923790913532005
0.08958240799984196 0.3756717147044455 0.48412310698583294
0.08978899599969736 0.3756717147044455 0.4831460674157304
0.08999336099986976 0.37469467513434296 0.4831460674157304
0.09021074500014947 0.3776257938446508 0.4831460674157304
0.09041735200025869 0.38153395212506114 0.48216902784562765
0.09062456900028337 0.38446507083536874 0.4831460674157304
0.09083319399996981 0.39228138739618945 0.47728382999511476
0.09105583699965791 0.3961895456765998 0.4763067904250122
0.09126853599991591 0.40009770395701016 0.47142159257449934
0.09147493799991935 0.4049829018075233 0.46946751343429405
0.09176885800025048 0.4137762579384465 0.47142159257449934
0.09200124099970708 0.42159257449926724 0.47142159257449934
0.09225768000032986 0.431362970200293 0.467513434294089
0.09249200799968094 0.44406448461162684 0.45969711773326827
0.09272622400021646 0.45676599902296044 0.4538348803126526
0.09295909000047686 0.46946751343429405 0.44992672203224227
0.09317380700031208 0.47923790913532005 0.44406448461162684
0.09382182900026237 0.4978016609672691 0.43917928676111373
0.09414497000034316 0.49682462139716654 0.43722520762090866
0.09437481599979947 0.49975574010747437 0.43917928676111373
0.09458353399986663 0.4929164631167562 0.4460185637518319
0.09478291800041916 0.4938935026868587 0.45481191988275516
0.09498059900033695 0.4938935026868587 0.46165119687347334
0.09517846499966254 0.4938935026868587 0.4684904738641915
0.09537996000017301 0.4948705422569615 0.4655593551538837
0.09558436299994355 0.5007327796775769 0.46458231558378116
0.0957879130000947 0.5026868588177822 0.46165119687347334
0.09598868700049934 0.49877870053737183 0.45188080117244755
0.09618729300018458 0.5017098192476794 0.4460185637518319
0.09638373300003877 0.5036638983878847 0.43624816805080613
0.0965811730002315 0.5046409379579873 0.4352711284807034
0.0967778169997473 0.5075720566682951 0.43624816805080613
0.09697488599977078 0.5085490962383976 0.4352711284807034
0.09717154800000571 0.5105031753786029 0.43722520762090866
0.09736819200043101 0.512457254518808 0.44211040547142155
0.09762189000048238 0.5144113336590133 0.43722520762090866
0.0978192560005482 0.5144113336590133 0.43917928676111373
0.09801630699985253 0.5144113336590133 0.4323400097703958
0.09821345000000292 0.5114802149487054 0.4303859306301905
0.0984104640001533 0.512457254518808 0.4284318514899854
0.09860718199979601 0.5105031753786029 0.42745481191988266
0.09882167700015998 0.5075720566682951 0.4255007327796776
0.09902230199986661 0.5056179775280898 0.42256961406936977
0.09922242700031347 0.5026868588177822 0.42745481191988266
0.0994202560004851 0.49975574010747437 0.42745481191988266
0.09961745500004326 0.4978016609672691 0.4303859306301905
0.09981519099983416 0.4929164631167562 0.4303859306301905
0.10001364999970974 0.4909623839765511 0.43429408891060084
0.10021146000053704 0.48412310698583294 0.42745481191988266
0.10040801099967211 0.4851001465559355 0.4284318514899854
0.1006056920004994 0.4831460674157304 0.4264777723497801
0.10080315000050177 0.4782608695652173 0.42159257449926724
0.10100231199976406 0.4782608695652173 0.4186614557889594
0.1011998260000837 0.47239863214460187 0.4176844162188569
0.10141611800008832 0.4753297508549097 0.4206155349291647
0.10161602100015443 0.47142159257449934 0.4176844162188569
0.10181273800026247 0.467513434294089 0.4176844162188569
0.10200943699965137 0.45969711773326827 0.42452369320957506
0.10220806200049992 0.45188080117244755 0.4333170493404983
0.10240722500020638 0.4401563263312165 0.43624816805080613
0.10260494199974346 0.4303859306301905 0.44211040547142155
0.10280341900033818 0.42452369320957506 0.4509037616023448
0.10300052599995979 0.41670737664875435 0.4509037616023448
0.10319802100002562 0.41182217879824123 0.4538348803126526
0.10339542400015489 0.40693698094772834 0.4557889594528579
0.10359221599992452 0.403028822667318 0.45676599902296044
0.10378987800049799 0.4010747435271129 0.4557889594528579
0.1039882810000563 0.4010747435271129 0.4587200781631655
0.10418727599972044 0.4040058622374205 0.4528578407425501
0.10438378999970155 0.4079140205178309 0.44992672203224227
0.1045811189997039 0.4137762579384465 0.44406448461162684
0.10477929999979096 0.41963849535906195 0.4401563263312165
0.10497688800023752 0.41963849535906195 0.4401563263312165
0.10517347600034554 0.4206155349291647 0.43722520762090866
0.10537036000005173 0.42452369320957506 0.4460185637518319
0.10558035499980178 0.4235466536394723 0.44699560332193444
0.10577748099967721 0.4264777723497801 0.4528578407425501
0.1059739210004409 0.41963849535906195 0.45481191988275516
0.10617056400042202 0.41963849535906195 0.45676599902296044
0.10636868900019181 0.4157303370786516 0.45676599902296044
0.1065663700001096 0.4137762579384465 0.45676599902296044
0.10676282799977344 0.41182217879824123 0.457743038593063
0.10696026799996616 0.4108451392281387 0.457743038593063
0.10715657899982034 0.4108451392281387 0.45969711773326827
0.10735316699992836 0.40889106008793363 0.4636052760136786
0.10754994000035367 0.40889106008793363 0.4636052760136786
0.10774638000020786 0.4010747435271129 0.4704445530043966
0.10794496800008346 0.3981436248168051 0.47239863214460187
0.10814320400004362 0.3903273082559844 0.4733756717147044
0.10834129199974996 0.38935026868588185 0.4733756717147044
0.10887218700008816 0.38446507083536874 0.4665363947239862
0.1091071999999258 0.3854421104054715 0.4704445530043966
0.10930952899980184 0.37957987298485585 0.4704445530043966
0.10951904300054593 0.3688324377137273 0.47239863214460187
0.10971809400052734 0.3629702002931119 0.4753297508549097
0.10991621900029713 0.3531998045920859 0.4782608695652173
0.11011484400023619 0.34733756717147046 0.4811919882755251
0.11031169099987892 0.3434294088910601 0.4802149487054226
0.11050939100005053 0.348314606741573 0.47923790913532005
0.11070609000034892 0.348314606741573 0.4763067904250122
0.11090286299986474 0.35222276502198335 0.47728382999511476
0.11109965500054386 0.358085002442599 0.4753297508549097
0.11129592799989041 0.36980947728383007 0.4733756717147044
0.11149455299982947 0.37274059599413767 0.47142159257449934
0.11169223399974726 0.37957987298485585 0.47239863214460187
0.11188906300048984 0.38641914997557403 0.4704445530043966
0.1120862429997942 0.3981436248168051 0.467513434294089
0.11239062500044383 0.4176844162188569 0.45676599902296044
0.1126073980003639 0.4333170493404983 0.44894968246213973
0.11280596699998569 0.4538348803126526 0.4450415241817294
0.11300529599975562 0.4665363947239862 0.44211040547142155
0.11320188399986364 0.48216902784562765 0.4401563263312165
0.11341934200027026 0.49193942354665365 0.4430874450415241
0.11361785600001895 0.5046409379579873 0.4450415241817294
0.1138154440004655 0.512457254518808 0.4538348803126526
0.11401147700053116 0.5134342940889105 0.44992672203224227
0.11420967600042786 0.5173424523693209 0.4509037616023448
0.11441863399977592 0.5163654127992183 0.44894968246213973
0.11461764799969387 0.5153883732291158 0.4538348803126526
0.11481447700043645 0.5183194919394236 0.457743038593063
0.11501169500024844 0.5202735710796287 0.45676599902296044
0.11520870900039881 0.522227650219834 0.457743038593063
0.11540548199991463 0.5232046897899365 0.457743038593063
0.11560208799983229 0.5232046897899365 0.46262823644357587
0.11579951000021538 0.5349291646311676 0.457743038593063
0.11599698700047156 0.5290669272105519 0.44992672203224227
0.11619366700051614 0.5300439667806547 0.4430874450415241
0.11639186699994752 0.5310210063507572 0.441133365901319
0.11658910300047864 0.5368832437713726 0.44406448461162684
0.116786876000333 0.5378602833414754 0.4450415241817294
0.11698639000042022 0.5417684416218858 0.44406448461162684
0.11718519999976706 0.5446995603321934 0.4479726428920372
0.1173998060003214 0.5495847581827065 0.4460185637518319
0.1176033940000707 0.5486077186126037 0.43917928676111373
0.11780090800039034 0.5515388373229115 0.4323400097703958
0.11799827400045615 0.5456765999022961 0.4284318514899854
0.11819597300018359 0.5466536394723986 0.4176844162188569
0.1183933390002494 0.5388373229115779 0.41670737664875435
0.11859066800025175 0.5290669272105519 0.41475329750854906
0.11878920100025425 0.522227650219834 0.41670737664875435
0.11898695499985479 0.512457254518808 0.4186614557889594
0.11918352500015317 0.5105031753786029 0.4264777723497801
0.11938090900002862 0.5017098192476794 0.4255007327796776
0.11957779400017898 0.49877870053737183 0.42940889106008795
0.11977384500005428 0.4929164631167562 0.42940889106008795
0.11996971000007761 0.48705422569614076 0.42745481191988266
0.12016809499982628 0.48412310698583294 0.4235466536394723
0.12036501600050542 0.4782608695652173 0.41963849535906195
0.12056108599972504 0.4753297508549097 0.4176844162188569
0.12075735899998108 0.467513434294089 0.40889106008793363
0.12095528000008926 0.4665363947239862 0.40889106008793363
0.12115196099966852 0.46165119687347334 0.4108451392281387
0.12135065999973449 0.4587200781631655 0.41475329750854906
0.12161358000048494 0.45676599902296044 0.4176844162188569
0.1218216309998752 0.45188080117244755 0.42256961406936977
0.1220599400003266 0.44406448461162684 0.43429408891060084
0.12226052799996978 0.43624816805080613 0.43917928676111373
0.12245820899988757 0.4323400097703958 0.4509037616023448
0.12265511199984758 0.42745481191988266 0.44992672203224227
0.12285160700048436 0.42159257449926724 0.4557889594528579
0.12305069500052923 0.42159257449926724 0.45676599902296044
0.12324841300051048 0.4176844162188569 0.4557889594528579
0.12344489000042813 0.42256961406936977 0.45676599902296044
0.12364147800053615 0.4333170493404983 0.4587200781631655
0.12383793699973467 0.4303859306301905 0.4587200781631655
0.12403445099971577 0.43429408891060084 0.4587200781631655
0.12423739000041678 0.4352711284807034 0.4557889594528579
0.12443486699976347 0.4401563263312165 0.4557889594528579
0.12463143700006185 0.4382022471910112 0.45481191988275516
0.12482750599974679 0.43722520762090866 0.45188080117244755
0.12502613099968585 0.43624816805080613 0.44992672203224227
0.12522362700019585 0.4382022471910112 0.44992672203224227
0.12677601700033847 0.403028822667318 0.46165119687347334
0.12745803899997554 0.39423546653639474 0.4587200781631655
0.12772164400030306 0.3913043478260869 0.4665363947239862
0.1285003479997613 0.37957987298485585 0.47239863214460187
0.12875726800029952 0.3737176355642404 0.4811919882755251
0.1296008780000193 0.37957987298485585 0.48412310698583294
0.1312501920001523 0.3913043478260869 0.47239863214460187
0.1316003140000248 0.39912066438690763 0.47239863214460187
0.13184180799999012 0.4040058622374205 0.467513434294089
0.13215861600019707 0.412799218368344 0.4655593551538837
0.13239755500035244 0.4303859306301905 0.46165119687347334
0.13266295599987643 0.4479726428920372 0.4557889594528579
0.13287424800000736 0.4587200781631655 0.45481191988275516
0.13309181699969486 0.4684904738641915 0.45188080117244755
0.13329210899973987 0.47728382999511476 0.4509037616023448
0.1335482510003203 0.4851001465559355 0.44699560332193444
0.13375681999968947 0.4880312652662433 0.4509037616023448
0.1339601119998406 0.495847581827064 0.44699560332193444
0.13422029100001964 0.4948705422569615 0.4479726428920372
0.1344606559996464 0.4909623839765511 0.44406448461162684
0.13469031699969491 0.48900830483634583 0.44211040547142155
0.13491379399965808 0.4909623839765511 0.4382022471910112
0.13511736300006305 0.49193942354665365 0.4382022471910112
0.13531737700031954 0.49682462139716654 0.441133365901319
0.13551742799973 0.49877870053737183 0.4450415241817294
0.13571731200045178 0.5017098192476794 0.4460185637518319
0.13591904799977783 0.5036638983878847 0.44406448461162684
0.13611895099984395 0.5095261358085001 0.44992672203224227
0.13631852100024844 0.5163654127992183 0.44894968246213973
0.13651705299980677 0.5192965315095261 0.44992672203224227
0.13671719700050744 0.524181729360039 0.45188080117244755
0.13691554399974848 0.522227650219834 0.4509037616023448
0.13711374299964518 0.5261358085002443 0.4460185637518319
0.13731303500026115 0.5271128480703469 0.441133365901319
0.1375524739996763 0.5300439667806547 0.43722520762090866
0.13775358000020788 0.5280898876404494 0.43624816805080613
0.13795363100052782 0.5251587689301416 0.4323400097703958
0.13815353399968444 0.524181729360039 0.42940889106008795
0.13835362200006784 0.5251587689301416 0.4264777723497801
0.13855241400051455 0.524181729360039 0.42452369320957506
0.13875146500049595 0.5251587689301416 0.42745481191988266
0.1389509230002659 0.522227650219834 0.42256961406936977
0.13915038100003585 0.522227650219834 0.41963849535906195
0.13934935799989034 0.5251587689301416 0.41963849535906195
0.13954768700023124 0.5173424523693209 0.4176844162188569
0.13974803400014935 0.5192965315095261 0.41475329750854906
0.139967085000535 0.5065950170981925 0.41670737664875435
0.14018169100017985 0.4978016609672691 0.4235466536394723
0.1404027420003331 0.48900830483634583 0.4264777723497801
0.1406161439999778 0.4802149487054226 0.42745481191988266
0.1408336579997922 0.4782608695652173 0.431362970200293
0.14121155599968915 0.467513434294089 0.43722520762090866
0.14225866200013115 0.4401563263312165 0.4430874450415241
0.14259641399985412 0.4284318514899854 0.44211040547142155
0.14284201900045446 0.42452369320957506 0.44406448461162684
0.14306192100048065 0.4264777723497801 0.4450415241817294
0.14328484199995728 0.42452369320957506 0.4509037616023448
0.14350635600021633 0.4235466536394723 0.4450415241817294
0.14389192100043147 0.4176844162188569 0.44406448461162684
0.1442091730004904 0.4079140205178309 0.43917928676111373
0.1444480560003285 0.4040058622374205 0.4382022471910112
0.1446839030004412 0.403028822667318 0.4430874450415241
0.14492345300004672 0.40009770395701016 0.4401563263312165
0.14514304000022094 0.40009770395701016 0.441133365901319
0.1453548130002673 0.40009770395701016 0.44406448461162684
0.14556271600031323 0.4010747435271129 0.441133365901319
0.14576780399966083 0.403028822667318 0.4557889594528579
0.14748317199973826 0.40009770395701016 0.4557889594528579
0.14777312800015352 0.3952125061064973 0.46458231558378116
0.14839537300031225 0.38641914997557403 0.4802149487054226
0.14872142100011843 0.38641914997557403 0.48412310698583294
0.148981434000234 0.38739618954567656 0.4851001465559355
0.1493539620005322 0.38739618954567656 0.48216902784562765
0.15071532000001753 0.41182217879824123 0.4851001465559355
0.1512327890004599 0.4264777723497801 0.4880312652662433
0.15162187300029473 0.4284318514899854 0.4802149487054226
0.15202077100002498 0.4352711284807034 0.47239863214460187
0.15233435699974507 0.4509037616023448 0.43917928676111373
0.1535535319999326 0.48412310698583294 0.43917928676111373
0.1538169890000063 0.4851001465559355 0.441133365901319
0.15405139100039378 0.486077186126038 0.4430874450415241
0.15425755300020683 0.486077186126038 0.4430874450415241
0.1544632149998506 0.48705422569614076 0.4479726428920372
0.15466376600033982 0.4831460674157304 0.44992672203224227
0.15486427999985608 0.4851001465559355 0.45481191988275516
0.15506553500017617 0.4880312652662433 0.4538348803126526
0.1552655670002423 0.4880312652662433 0.44992672203224227
0.1554651920005199 0.48900830483634583 0.4538348803126526
0.15566553999997268 0.49193942354665365 0.45188080117244755
0.1558653130005041 0.495847581827064 0.441133365901319
0.15613508400019782 0.5036638983878847 0.441133365901319
0.1563614870001402 0.512457254518808 0.441133365901319
0.1565793150002719 0.5163654127992183 0.441133365901319
0.15678977300012775 0.5173424523693209 0.44211040547142155
0.15704991500024335 0.522227650219834 0.43917928676111373
0.15726378100043803 0.5183194919394236 0.44211040547142155
0.157530978000068 0.5173424523693209 0.43917928676111373
0.157750899000348 0.5173424523693209 0.43722520762090866
0.1579792640004598 0.5183194919394236 0.4323400097703958
0.158193258999745 0.5173424523693209 0.4382022471910112
0.15841384699979244 0.522227650219834 0.4264777723497801
0.1586270269999659 0.522227650219834 0.4235466536394723
0.1588258930005395 0.524181729360039 0.42256961406936977
0.15902509199986525 0.522227650219834 0.42256961406936977
0.15922416200010048 0.5310210063507572 0.4206155349291647
0.1594243239997013 0.5202735710796287 0.41670737664875435
0.1596286889998737 0.5173424523693209 0.41670737664875435
0.15982749999966472 0.5105031753786029 0.4176844162188569
0.16002612500051328 0.5134342940889105 0.42159257449926724
0.16022469400013506 0.5046409379579873 0.42256961406936977
0.16042724500039185 0.5017098192476794 0.4206155349291647
0.16062572200007708 0.49193942354665365 0.42159257449926724
0.16082508799991047 0.48998534440644836 0.42256961406936977
0.16102669399970182 0.486077186126038 0.41963849535906195
0.16123065300052986 0.4831460674157304 0.4176844162188569
0.16144936999990023 0.4782608695652173 0.4176844162188569
0.1616491249997125 0.4753297508549097 0.42159257449926724
0.1618477680003707 0.46946751343429405 0.4303859306301905
0.1620465599999079 0.4587200781631655 0.43722520762090866
0.16224924000016472 0.4479726428920372 0.4430874450415241
0.16272650700011582 0.4284318514899854 0.44992672203224227
0.16296294600033434 0.42159257449926724 0.4430874450415241
0.16317310799968254 0.4157303370786516 0.4460185637518319
0.16337389999989682 0.4137762579384465 0.4460185637518319
0.16357465400051296 0.41182217879824123 0.4509037616023448
0.16377403899969067 0.412799218368344 0.4509037616023448
0.1639723859998412 0.4079140205178309 0.4538348803126526
0.16417130700028792 0.4157303370786516 0.4538348803126526
0.1643698210000366 0.4157303370786516 0.4538348803126526
0.16456914999980654 0.4157303370786516 0.4557889594528579
0.16476744200008397 0.4176844162188569 0.4557889594528579
0.16496623400053068 0.41670737664875435 0.4587200781631655
0.1651653589997295 0.4186614557889594 0.46165119687347334
0.16536368700053572 0.4176844162188569 0.46165119687347334
0.16559195999980147 0.4186614557889594 0.4655593551538837
0.16579206599999452 0.41670737664875435 0.46165119687347334
0.165992395000103 0.41182217879824123 0.45969711773326827
0.16619309399993654 0.40986809965803617 0.4538348803126526
0.16639270100040449 0.40986809965803617 0.4479726428920372
0.1665918260005128 0.40889106008793363 0.4460185637518319
0.16679130300053657 0.4079140205178309 0.4450415241817294
0.1669900200004122 0.40693698094772834 0.44699560332193444
0.16718788599973777 0.40889106008793363 0.4479726428920372
0.16738562299997284 0.40693698094772834 0.4509037616023448
0.16758741400008148 0.40693698094772834 0.457743038593063
0.16778657600025326 0.39912066438690763 0.45969711773326827
0.16798553500029811 0.3932584269662922 0.4665363947239862
0.1681835300005332 0.3903273082559844 0.46946751343429405
0.16838256299979548 0.38251099169516367 0.47142159257449934
0.16858153999964998 0.3786028334147533 0.4763067904250122
0.16878029400049854 0.37469467513434296 0.4763067904250122
0.16897928999969736 0.37176355642403514 0.47923790913532005
0.16917817400008062 0.37176355642403514 0.4811919882755251
0.1693965209997259 0.3678553981436248 0.4811919882755251
0.16962544099988008 0.36980947728383007 0.4782608695652173
0.16983680700013792 0.36980947728383007 0.4763067904250122
0.17005400600010034 0.3707865168539326 0.4763067904250122
0.17030296299981273 0.3737176355642404 0.47435271128480694
0.17052119900017715 0.3786028334147533 0.4733756717147044
0.1707731739998053 0.3786028334147533 0.47239863214460187
0.17102420599985635 0.3786028334147533 0.47435271128480694
0.17160348900051758 0.3786028334147533 0.4753297508549097
0.17181094700026733 0.38251099169516367 0.47239863214460187
0.1720147200003339 0.3854421104054715 0.4733756717147044
0.17221377100031532 0.38935026868588185 0.4684904738641915
0.1724143589999585 0.39716658524670256 0.46458231558378116
0.17261700200015184 0.412799218368344 0.457743038593063
0.17286057100045582 0.4264777723497801 0.4528578407425501
0.17306151100001443 0.43722520762090866 0.4509037616023448
0.17326146899995365 0.4460185637518319 0.4479726428920372
0.17350922300011007 0.4684904738641915 0.4430874450415241
0.17371190300036687 0.4733756717147044 0.43917928676111373
0.17391149099967151 0.4811919882755251 0.43722520762090866
0.17411061599977984 0.4880312652662433 0.43624816805080613
0.17431011200005742 0.49193942354665365 0.4382022471910112
0.17450857000039832 0.49877870053737183 0.4460185637518319
0.17470841700014716 0.5046409379579873 0.44699560332193444
0.1749077650001709 0.5065950170981925 0.44699560332193444
0.17510781600049086 0.5105031753786029 0.44699560332193444
0.1753080520002186 0.5144113336590133 0.4479726428920372
0.17550675100028457 0.5173424523693209 0.44406448461162684
0.1757057459999487 0.5192965315095261 0.44211040547142155
0.17590405700047995 0.5280898876404494 0.441133365901319
0.176102682000419 0.5290669272105519 0.4401563263312165
0.17630358499991416 0.533952125061065 0.4382022471910112
0.17650324700025521 0.533952125061065 0.43917928676111373
0.17670333499972912 0.5349291646311676 0.4382022471910112
0.1769016449998162 0.5446995603321934 0.4382022471910112
0.17709975100024167 0.5427454811919883 0.4430874450415241
0.17729974699977902 0.540791402051783 0.43722520762090866
0.17752177900001698 0.5388373229115779 0.43624816805080613
0.1777352740000424 0.5466536394723986 0.4333170493404983
0.17795293600011064 0.5437225207620908 0.42940889106008795
0.17816665300051682 0.5446995603321934 0.4303859306301905
0.17843066499972338 0.5349291646311676 0.42159257449926724
0.17868571500002872 0.5378602833414754 0.4206155349291647
0.17889791400011745 0.540791402051783 0.42159257449926724
0.17910879800001567 0.5378602833414754 0.42452369320957506
0.17953845500051102 0.5319980459208598 0.4255007327796776
0.17978348599990568 0.5251587689301416 0.4255007327796776
0.17999338899971917 0.5153883732291158 0.4264777723497801
0.1801932919997853 0.5173424523693209 0.4264777723497801
0.18039443500038033 0.5007327796775769 0.42452369320957506
0.18059444899972732 0.4929164631167562 0.4284318514899854
0.18079838900030154 0.48998534440644836 0.4264777723497801
0.18099834700024076 0.4851001465559355 0.4284318514899854
0.18119695400037017 0.47923790913532005 0.4284318514899854
0.1814617250001902 0.47728382999511476 0.4264777723497801
0.18166964700048993 0.47728382999511476 0.4186614557889594
0.1818691790003868 0.4665363947239862 0.41963849535906195
0.18206917400038947 0.4655593551538837 0.4235466536394723
0.18226939200030756 0.45188080117244755 0.4284318514899854
0.182468128000437 0.44406448461162684 0.4382022471910112
0.18266701300035493 0.43722520762090866 0.44894968246213973
0.18286645199987106 0.4284318514899854 0.45188080117244755
0.18306544799997937 0.42256961406936977 0.457743038593063
0.1832633320000241 0.4176844162188569 0.4636052760136786
0.18346304999977292 0.4108451392281387 0.47142159257449934
0.18366434200015647 0.4079140205178309 0.4733756717147044
0.18386296700009552 0.40889106008793363 0.4733756717147044
0.18406160999984422 0.40889106008793363 0.4753297508549097
0.18426010599978326 0.40986809965803617 0.4733756717147044
0.18446162000054755 0.412799218368344 0.4655593551538837
0.18466037400048663 0.412799218368344 0.4636052760136786
0.18485866599985457 0.4176844162188569 0.46165119687347334
0.18505888399977266 0.41670737664875435 0.4557889594528579
0.18525721199966938 0.4157303370786516 0.45481191988275516
0.18545839299986255 0.41182217879824123 0.4538348803126526
0.18565840700011904 0.4157303370786516 0.45188080117244755
0.18585908800014295 0.40986809965803617 0.44992672203224227
0.1860597869999765 0.4108451392281387 0.45188080117244755
0.1862590230002752 0.40889106008793363 0.44894968246213973
0.1864583329997913 0.4049829018075233 0.44894968246213973
0.18665662500006874 0.4040058622374205 0.4528578407425501
0.18685662000007142 0.4040058622374205 0.4528578407425501
0.18705485600003158 0.39912066438690763 0.4557889594528579
0.18725414799973805 0.3961895456765998 0.45481191988275516
0.18745345800016366 0.3952125061064973 0.4636052760136786
0.18765641699974367 0.3913043478260869 0.4606741573033708
0.18785802300044452 0.38935026868588185 0.4655593551538837
0.18805694399998174 0.3903273082559844 0.46458231558378116
0.18825482900047064 0.38153395212506114 0.47142159257449934
0.18845321299977513 0.37469467513434296 0.47142159257449934
0.18865228300001036 0.3707865168539326 0.4733756717147044
0.1888506300001609 0.36980947728383007 0.47435271128480694
0.18904834800014214 0.3678553981436248 0.47239863214460187
0.18924713900014467 0.36492427943331696 0.47142159257449934
0.18945054200048617 0.3629702002931119 0.4782608695652173
0.1896685930005333 0.36980947728383007 0.47923790913532005
0.18990582800051925 0.3688324377137273 0.4851001465559355
0.19011502700050187 0.3776257938446508 0.48900830483634583
0.19032718900052714 0.38446507083536874 0.48705422569614076
0.19083964000037668 0.3903273082559844 0.47923790913532005
0.19104706100006297 0.3903273082559844 0.47435271128480694
0.19124783400002343 0.39228138739618945 0.47239863214460187
0.19144729300023755 0.3952125061064973 0.47435271128480694
0.19164643600015552 0.3981436248168051 0.47142159257449934
0.19184631999996782 0.4059599413776258 0.47435271128480694
0.19204468600037217 0.40889106008793363 0.47435271128480694
0.19224301499980356 0.41670737664875435 0.47142159257449934
0.19244308500037732 0.4284318514899854 0.46946751343429405
0.1926432840000416 0.441133365901319 0.4655593551538837
0.1928483720002987 0.45188080117244755 0.45969711773326827
0.19304840400036483 0.4587200781631655 0.4538348803126526
0.1932478810003886 0.4684904738641915 0.45188080117244755
0.1934511540002859 0.47923790913532005 0.4460185637518319
0.1936511120002251 0.48900830483634583 0.44211040547142155
0.1938588670000172 0.5046409379579873 0.43917928676111373
0.19405949199972383 0.5114802149487054 0.43624816805080613
0.19425889500053017 0.5202735710796287 0.4382022471910112
0.19445816799998283 0.5261358085002443 0.4430874450415241
0.19466249700053595 0.5212506106497312 0.43624816805080613
0.1948632700004964 0.5173424523693209 0.43624816805080613
0.1950624319997587 0.5144113336590133 0.4352711284807034
0.19526572399990982 0.5075720566682951 0.42940889106008795
0.19546588600042014 0.5105031753786029 0.42940889106008795
0.1956645850004861 0.5065950170981925 0.42940889106008795
0.19586415400044643 0.5075720566682951 0.4323400097703958
0.196063815999878 0.5036638983878847 0.43624816805080613
0.19626236699969013 0.5075720566682951 0.44699560332193444
0.19646371500039095 0.512457254518808 0.44894968246213973
0.19666217299982236 0.5114802149487054 0.45188080117244755
0.1968609089999518 0.5134342940889105 0.4479726428920372
0.19706018200031394 0.5134342940889105 0.44406448461162684
0.1972606219997033 0.5163654127992183 0.4460185637518319
0.19746439499976987 0.5192965315095261 0.44406448461162684
0.19766383499973017 0.5173424523693209 0.441133365901319
0.19786236799973267 0.5212506106497312 0.441133365901319
0.19806197399975645 0.5212506106497312 0.43722520762090866
0.1982613769996533 0.5212506106497312 0.43429408891060084
0.1984606320002058 0.5212506106497312 0.43624816805080613
0.19865973800006032 0.5173424523693209 0.4333170493404983
0.198858974000359 0.5114802149487054 0.4333170493404983
0.19905741399998078 0.5163654127992183 0.43624816805080613
0.19925587299985636 0.5065950170981925 0.431362970200293
0.19945444200038764 0.5095261358085001 0.4284318514899854
0.19965273399975558 0.5026868588177822 0.42745481191988266
0.19985189599992736 0.5017098192476794 0.4264777723497801
0.20005066900012025 0.49877870053737183 0.42256961406936977
0.20025160899967887 0.4929164631167562 0.4235466536394723
0.20045079000010446 0.4909623839765511 0.4255007327796776
0.2006493409999166 0.48998534440644836 0.42256961406936977
0.20084870699975 0.48216902784562765 0.42159257449926724
0.20104718299990054 0.48216902784562765 0.4206155349291647
0.2012463460005165 0.47728382999511476 0.42159257449926724
0.20145087800028705 0.4753297508549097 0.4235466536394723
0.2016706320000594 0.4704445530043966 0.42256961406936977
0.20189116399978957 0.4606741573033708 0.42940889106008795
0.2021040110003014 0.45676599902296044 0.4352711284807034
0.20232798699998966 0.44406448461162684 0.43917928676111373
0.2025429820005229 0.43722520762090866 0.44406448461162684
0.20275975500044296 0.4323400097703958 0.4460185637518319
0.2029679360002774 0.4255007327796776 0.4479726428920372
0.20317741200051387 0.4235466536394723 0.4509037616023448
0.20338105599967093 0.41963849535906195 0.4528578407425501
0.20363586500025121 0.4137762579384465 0.45481191988275516
0.20384345300044515 0.41182217879824123 0.45481191988275516
0.20404489199972886 0.41182217879824123 0.44992672203224227
0.20424577700032387 0.4137762579384465 0.4509037616023448
0.20444571700045344 0.4137762579384465 0.44894968246213973
0.2046447860002445 0.412799218368344 0.4479726428920372
0.20484307800052193 0.4176844162188569 0.44894968246213973
0.2050419810002495 0.41963849535906195 0.4450415241817294
0.20524027200008277 0.40986809965803617 0.44406448461162684
0.2054457310005091 0.412799218368344 0.4509037616023448
0.2056482819998564 0.4108451392281387 0.44699560332193444
0.20585260999996535 0.40986809965803617 0.44992672203224227
0.20605321699986234 0.412799218368344 0.45188080117244755
0.20625206400018214 0.40986809965803617 0.457743038593063
0.20645104100003664 0.40986809965803617 0.45676599902296044
0.20665053599987004 0.4137762579384465 0.45969711773326827
0.20684979100042256 0.41182217879824123 0.46262823644357587
0.20704908300012903 0.40693698094772834 0.46458231558378116
0.20725039300032222 0.4079140205178309 0.46458231558378116
0.207449555000494 0.4040058622374205 0.467513434294089
0.20764999499988335 0.40205178309721545 0.46458231558378116
0.20784995299982256 0.39912066438690763 0.467513434294089
0.20804872600001545 0.3952125061064973 0.47239863214460187
0.20857019600043714 0.38446507083536874 0.47435271128480694
0.2089014290004343 0.3756717147044455 0.4753297508549097
0.20912692399997468 0.376648754274548 0.4782608695652173
0.2093439380005293 0.38251099169516367 0.4811919882755251
0.20957439500034525 0.3756717147044455 0.48216902784562765
0.20978551999996853 0.3776257938446508 0.4851001465559355
0.21000310799990984 0.37957987298485585 0.4851001465559355
0.21021688000018912 0.37957987298485585 0.4851001465559355
0.21045024500017462 0.38153395212506114 0.4811919882755251
0.21066301799965004 0.38153395212506114 0.4782608695652173
0.21090636500048277 0.38153395212506114 0.47435271128480694
0.21114300699991873 0.38153395212506114 0.4733756717147044
0.21136120600021968 0.3805569125549584 0.4733756717147044
0.21157601600043563 0.38446507083536874 0.47239863214460187
0.21181141800025216 0.3903273082559844 0.4753297508549097
0.21204587600004743 0.4010747435271129 0.47239863214460187
0.21227722200001153 0.40889106008793363 0.46165119687347334
0.21250056900044 0.4235466536394723 0.4528578407425501
0.21278302500013524 0.4450415241817294 0.44406448461162684
0.21335332699982246 0.49975574010747437 0.431362970200293
0.21368380100011564 0.5134342940889105 0.43429408891060084
0.21388829599982273 0.522227650219834 0.4352711284807034
0.21408866199999466 0.5310210063507572 0.43429408891060084
0.21428895400003967 0.5319980459208598 0.4352711284807034
0.2144924300000639 0.5319980459208598 0.4430874450415241
0.21469359300044744 0.524181729360039 0.4460185637518319
0.21489582899994275 0.524181729360039 0.4460185637518319
0.21509480599979725 0.5251587689301416 0.45188080117244755
0.21529337500032852 0.5163654127992183 0.44992672203224227
0.21549294499982352 0.5114802149487054 0.4430874450415241
0.21569158800048172 0.5144113336590133 0.4450415241817294
0.21589045400014584 0.5114802149487054 0.441133365901319
0.21608961600031762 0.5095261358085001 0.441133365901319
0.2162883339997279 0.5085490962383976 0.43917928676111373
0.21648895900034404 0.5075720566682951 0.43917928676111373
0.21668773200053693 0.5075720566682951 0.43722520762090866
0.21688867200009554 0.5065950170981925 0.43722520762090866
0.21708790800039424 0.5026868588177822 0.4430874450415241
0.21728605200041784 0.5017098192476794 0.441133365901319
0.2175078800000847 0.49877870053737183 0.44894968246213973
0.2177085969997279 0.49682462139716654 0.44211040547142155
0.21790877800049202 0.49682462139716654 0.44211040547142155
0.2181079399997543 0.49877870053737183 0.441133365901319
0.218306009999651 0.5026868588177822 0.43624816805080613
0.21850404199994955 0.5085490962383976 0.4303859306301905
0.21870438899986766 0.5095261358085001 0.4333170493404983
0.21890351399997598 0.5075720566682951 0.4264777723497801
0.21910347300035937 0.5065950170981925 0.4255007327796776
0.2193029870004466 0.5085490962383976 0.4255007327796776
0.2195011860003433 0.5036638983878847 0.42452369320957506
0.2197006260003036 0.5056179775280898 0.4264777723497801
0.2198994179998408 0.5036638983878847 0.42256961406936977
0.2201005980004993 0.5026868588177822 0.42452369320957506
0.22029942700009997 0.5007327796775769 0.42159257449926724
0.22049868199974298 0.5065950170981925 0.42159257449926724
0.22069764000025316 0.5007327796775769 0.42159257449926724
0.22092246800002613 0.4938935026868587 0.4206155349291647
0.22114342599979864 0.4909623839765511 0.41963849535906195
0.22135501400043722 0.48900830483634583 0.4176844162188569
0.22160382299989578 0.4831460674157304 0.4206155349291647
0.2218210769997313 0.4733756717147044 0.41963849535906195
0.2220329980000315 0.46262823644357587 0.42159257449926724
0.22224903000005725 0.4509037616023448 0.4303859306301905
0.22246908099987195 0.4401563263312165 0.44211040547142155
0.2226936309998564 0.4284318514899854 0.44406448461162684
0.22289799700047297 0.4235466536394723 0.45188080117244755
0.22309671499988326 0.41670737664875435 0.45969711773326827
0.22329678400001285 0.4059599413776258 0.457743038593063
0.22349583499999426 0.4010747435271129 0.4587200781631655
0.22369434899974294 0.40009770395701016 0.457743038593063
0.22389215899966075 0.3981436248168051 0.4528578407425501
0.22409037699981127 0.4059599413776258 0.44992672203224227
0.22428857599970797 0.4010747435271129 0.44211040547142155
0.22448590499971033 0.40205178309721545 0.4352711284807034
0.2246851970003263 0.40693698094772834 0.4401563263312165
0.2248840439997366 0.40205178309721545 0.4430874450415241
0.22508572399965487 0.40693698094772834 0.4479726428920372
0.22529238600054668 0.4108451392281387 0.4538348803126526
0.22552041800008737 0.40693698094772834 0.45481191988275516
0.22571985800004768 0.40693698094772834 0.45969711773326827
0.22591942800045217 0.4059599413776258 0.4606741573033708
0.22611786700053926 0.4049829018075233 0.46262823644357587
0.22631671500039374 0.40693698094772834 0.46165119687347334
0.2265155249997406 0.4040058622374205 0.4655593551538837
0.2267163349997645 0.4010747435271129 0.4665363947239862
0.22691377499995724 0.40009770395701016 0.4684904738641915
0.2271124190001501 0.4010747435271129 0.4733756717147044
0.2273110619998988 0.3981436248168051 0.4733756717147044
0.2275099099997533 0.3952125061064973 0.47435271128480694
0.22770849800053838 0.3932584269662922 0.4733756717147044
0.22790791900024487 0.3932584269662922 0.47435271128480694
0.22810741400007828 0.38935026868588185 0.47142159257449934
0.2283155759996589 0.3903273082559844 0.47142159257449934
0.2285156090001692 0.39228138739618945 0.47142159257449934
0.22871328900055232 0.3952125061064973 0.4684904738641915
0.2289111549998779 0.39716658524670256 0.467513434294089
0.22910981699988042 0.39716658524670256 0.4655593551538837
0.22930818300028477 0.4010747435271129 0.4665363947239862
0.22951884499980224 0.403028822667318 0.4655593551538837
0.22971841399976256 0.4010747435271129 0.4733756717147044
0.2299179470001036 0.40205178309721545 0.4704445530043966
0.23011670200048684 0.4010747435271129 0.4782608695652173
0.23031527100010862 0.39716658524670256 0.4802149487054226
0.23051467400000547 0.39716658524670256 0.47728382999511476
0.23071415100002923 0.3952125061064973 0.4782608695652173
0.23091571999975713 0.3961895456765998 0.4704445530043966
0.23111366000011913 0.39228138739618945 0.4684904738641915
0.23131224799999472 0.39228138739618945 0.467513434294089
0.23151131800022995 0.39912066438690763 0.467513434294089
0.23171009100042284 0.3961895456765998 0.467513434294089
0.23190927199993894 0.403028822667318 0.4704445530043966
0.2321163960004924 0.4079140205178309 0.47142159257449934
0.2323291140000947 0.42159257449926724 0.46946751343429405
0.23255296099978295 0.43624816805080613 0.4665363947239862
0.23278330700031802 0.4538348803126526 0.46262823644357587
0.23299154300002556 0.457743038593063 0.46165119687347334
0.2331905379996897 0.47435271128480694 0.45188080117244755
0.23340821900001174 0.4753297508549097 0.4509037616023448
0.23362988000008045 0.48412310698583294 0.4450415241817294
0.23385706000044593 0.48998534440644836 0.44211040547142155
0.2340694260001328 0.495847581827064 0.43917928676111373
0.2342895869996937 0.5007327796775769 0.4401563263312165
0.23450298999978259 0.5007327796775769 0.43917928676111373
0.23472380000021076 0.5046409379579873 0.4401563263312165
0.2349814230001357 0.5046409379579873 0.4382022471910112
0.23523863999980676 0.5085490962383976 0.43624816805080613
0.23550092999994376 0.5144113336590133 0.4382022471910112
0.23647814800006017 0.524181729360039 0.44211040547142155
0.23703517200010538 0.5183194919394236 0.43722520762090866
0.2379048929997225 0.5163654127992183 0.4323400097703958
0.2384569180003382 0.5134342940889105 0.4255007327796776
0.23892272200009756 0.5065950170981925 0.4284318514899854
0.2411831509998592 0.46262823644357587 0.441133365901319
0.24229819999982283 0.41475329750854906 0.44992672203224227
0.2425310830003582 0.40693698094772834 0.4528578407425501
0.2427384680004252 0.40205178309721545 0.4509037616023448
0.24294187000032252 0.40009770395701016 0.4460185637518319
0.24314480999964871 0.40009770395701016 0.441133365901319
0.24334678700051882 0.40009770395701016 0.4460185637518319
0.2435483010003736 0.40205178309721545 0.4382022471910112
0.24402006800028175 0.40693698094772834 0.4479726428920372
0.2442927279998912 0.41182217879824123 0.45481191988275516
0.24449731599997904 0.41670737664875435 0.4587200781631655
0.2446971819999817 0.4206155349291647 0.4587200781631655
0.2449006590004501 0.41670737664875435 0.45969711773326827
0.2453513890004615 0.41963849535906195 0.45481191988275516
0.24566749299992807 0.4157303370786516 0.45481191988275516
0.24589667300006113 0.41670737664875435 0.4557889594528579
0.2461036310005511 0.4157303370786516 0.4557889594528579
0.24630218200036325 0.41670737664875435 0.45676599902296044
0.24650038100025995 0.412799218368344 0.45676599902296044
0.24669882099988172 0.4157303370786516 0.4636052760136786
0.24689766800020152 0.41182217879824123 0.45481191988275516
0.2470957189998444 0.41670737664875435 0.45188080117244755
0.247293862999868 0.4157303370786516 0.45188080117244755
0.2474914140002511 0.4137762579384465 0.4538348803126526
0.24768924300042272 0.41182217879824123 0.45969711773326827
0.24788751600044634 0.40889106008793363 0.46458231558378116
0.2480838080000467 0.40693698094772834 0.47239863214460187
0.24828269200042996 0.4059599413776258 0.4782608695652173
0.24848087300051702 0.40889106008793363 0.4763067904250122
0.24867777600047702 0.4108451392281387 0.47923790913532005
0.24887603000024683 0.41182217879824123 0.4831460674157304
0.24907380400054535 0.4137762579384465 0.48216902784562765
0.24927265099995566 0.412799218368344 0.48412310698583294
0.2494912390002355 0.4108451392281387 0.48412310698583294
0.24968925299981493 0.40986809965803617 0.4851001465559355
0.2498862669999653 0.4040058622374205 0.48900830483634583
0.2500834840002426 0.4049829018075233 0.48705422569614076
0.25028053500045644 0.39912066438690763 0.4831460674157304
0.2504773640002895 0.39912066438690763 0.4831460674157304
0.25067369299995335 0.39716658524670256 0.47923790913532005
0.25087168800018844 0.40009770395701016 0.47239863214460187
0.2510705169997891 0.39912066438690763 0.4665363947239862
0.25126958700002433 0.40009770395701016 0.46946751343429405
0.25146767499973066 0.3952125061064973 0.467513434294089
0.25166554000043106 0.40009770395701016 0.46946751343429405
0.2518629060004969 0.4040058622374205 0.4684904738641915
0.25205953099975886 0.412799218368344 0.46458231558378116
0.2522566200004803 0.42452369320957506 0.45969711773326827
0.2524544480002078 0.43917928676111373 0.457743038593063
0.25265114800004085 0.4479726428920372 0.45188080117244755
0.25284836500031815 0.45676599902296044 0.44699560332193444
0.25304612000036286 0.4655593551538837 0.44406448461162684
0.25324228200042853 0.4684904738641915 0.43917928676111373
0.2534426849997544 0.47239863214460187 0.441133365901319
0.25364675400032866 0.4811919882755251 0.43624816805080613
0.2538460830000986 0.48412310698583294 0.4382022471910112
0.25404731900016486 0.48900830483634583 0.4401563263312165
0.25424770300014643 0.4909623839765511 0.441133365901319
0.2544451250005295 0.495847581827064 0.4430874450415241
0.2546429909998551 0.49877870053737183 0.4460185637518319
0.25484550500004843 0.5017098192476794 0.44211040547142155
0.2550434069999028 0.5036638983878847 0.44406448461162684
0.25524119900001097 0.5056179775280898 0.4450415241817294
0.2554391209996538 0.5065950170981925 0.44699560332193444
0.2556363749999946 0.5065950170981925 0.4528578407425501
0.25583383400044113 0.5065950170981925 0.4557889594528579
0.2560307180001473 0.5046409379579873 0.4557889594528579
0.2562275469999804 0.5036638983878847 0.457743038593063
0.2564244309996866 0.5026868588177822 0.4587200781631655
0.25662742700023955 0.5026868588177822 0.44992672203224227
0.2570549720003328 0.5017098192476794 0.44699560332193444
0.25726304199997685 0.49975574010747437 0.441133365901319
0.2574907770003847 0.5026868588177822 0.4323400097703958
0.2576902910004719 0.5026868588177822 0.4264777723497801
0.25788871300028404 0.5065950170981925 0.4284318514899854
0.25808559699999023 0.5105031753786029 0.42745481191988266
0.25828237000041554 0.5134342940889105 0.431362970200293
0.25848064300043916 0.5163654127992183 0.43624816805080613
0.2586837310000192 0.5105031753786029 0.4352711284807034
0.2588854490004451 0.5065950170981925 0.4303859306301905
0.26006090300052165 0.4909623839765511 0.42256961406936977
0.26030260199968325 0.486077186126038 0.42745481191988266
0.26055670700043265 0.47923790913532005 0.42256961406936977
0.26080307200027164 0.4782608695652173 0.4176844162188569
0.26112823099992966 0.47435271128480694 0.42159257449926724
0.2613627440005075 0.46946751343429405 0.4206155349291647
0.2616553300003943 0.4665363947239862 0.42745481191988266
0.2619209160002356 0.45676599902296044 0.4352711284807034
0.262171022000075 0.4479726428920372 0.43917928676111373
0.26240896099989186 0.441133365901319 0.44406448461162684
0.2626308440003413 0.431362970200293 0.44699560332193444
0.2628425430002608 0.4284318514899854 0.4479726428920372
0.2635371570004281 0.4206155349291647 0.4557889594528579
0.2639115190004304 0.4186614557889594 0.4557889594528579
0.2641387730000133 0.41963849535906195 0.44894968246213973
0.2643493980003768 0.4235466536394723 0.44894968246213973
0.26455917099974613 0.4264777723497801 0.44894968246213973
0.2647779429998991 0.4284318514899854 0.44699560332193444
0.26500336400022206 0.4255007327796776 0.4509037616023448
0.2652253220003331 0.4255007327796776 0.4460185637518319
0.26548964900030114 0.4235466536394723 0.4479726428920372
0.26569616300002963 0.4235466536394723 0.4509037616023448
0.2658940100000109 0.42159257449926724 0.45481191988275516
0.2660906540004362 0.41963849535906195 0.4538348803126526
0.2662875010000789 0.4206155349291647 0.45676599902296044
0.2664846630004831 0.41963849535906195 0.46165119687347334
0.2666819369997029 0.41963849535906195 0.46165119687347334
0.26687846900040313 0.4176844162188569 0.4655593551538837
0.2670745570003419 0.41475329750854906 0.46262823644357587
0.2672721819999424 0.40889106008793363 0.4636052760136786
0.2674684559997331 0.4010747435271129 0.46458231558378116
0.2676655249997566 0.39228138739618945 0.4655593551538837
0.26786329800052044 0.3834880312652662 0.4684904738641915
0.2680616090001422 0.3786028334147533 0.46946751343429405
0.26825941900006 0.3776257938446508 0.47142159257449934
0.2684563769998931 0.3737176355642404 0.47435271128480694
0.268654262000382 0.3756717147044455 0.4763067904250122
0.26885151700025745 0.3737176355642404 0.4782608695652173
0.26904866000040784 0.37469467513434296 0.4811919882755251
0.26924537800005055 0.3756717147044455 0.4851001465559355
0.26944494700001087 0.376648754274548 0.48900830483634583
0.26985380800033454 0.3756717147044455 0.4938935026868587
0.27007178500025475 0.38153395212506114 0.48998534440644836
0.27026965100048983 0.376648754274548 0.48705422569614076
0.2704677760002596 0.3805569125549584 0.4811919882755251
0.2706651230000716 0.38251099169516367 0.4753297508549097
0.2708636369998203 0.38641914997557403 0.47142159257449934
0.27106083600028796 0.38935026868588185 0.46946751343429405
0.2712589980001212 0.3932584269662922 0.46946751343429405
0.2714552529996581 0.39716658524670256 0.4636052760136786
0.27165217400033725 0.4049829018075233 0.46262823644357587
0.27190953900026216 0.41670737664875435 0.457743038593063
0.2721076079997147 0.4264777723497801 0.45481191988275516
0.27230501099984394 0.44211040547142155 0.4528578407425501
0.2725029140001425 0.45481191988275516 0.4479726428920372
0.27269922499999666 0.4704445530043966 0.44406448461162684
0.2728984240002319 0.4811919882755251 0.4479726428920372
0.2730951040002765 0.4909623839765511 0.44699560332193444
0.2732923410003423 0.5046409379579873 0.44406448461162684
0.2735070389999237 0.5046409379579873 0.44406448461162684
0.27370425699973566 0.5046409379579873 0.44406448461162684
0.27390154899967456 0.5075720566682951 0.4450415241817294
0.27409824799997295 0.5065950170981925 0.4479726428920372
0.274294206000377 0.5017098192476794 0.4509037616023448
0.27449053500004084 0.5075720566682951 0.44699560332193444
0.2746874200001912 0.5007327796775769 0.44699560332193444
0.2748849709996648 0.4978016609672691 0.4430874450415241
0.2750817249998363 0.49877870053737183 0.44406448461162684
0.27553590000024997 0.49877870053737183 0.4509037616023448
0.27576043200042477 0.4978016609672691 0.4538348803126526
0.275962298000195 0.5007327796775769 0.45481191988275516
0.2761613490001764 0.5007327796775769 0.45969711773326827
0.27635904799990385 0.5007327796775769 0.46165119687347334
0.2765555799996946 0.5036638983878847 0.46165119687347334
0.27675422399988747 0.5085490962383976 0.4587200781631655
0.27695053400020697 0.5105031753786029 0.4538348803126526
0.27725200900022173 0.5153883732291158 0.44699560332193444
0.27745976300047914 0.5212506106497312 0.44211040547142155
0.2776596290004818 0.5261358085002443 0.43722520762090866
0.2778590879997864 0.5261358085002443 0.4382022471910112
0.2780612870001278 0.524181729360039 0.43722520762090866
0.2782588560003205 0.5192965315095261 0.4352711284807034
0.2784559809997518 0.5183194919394236 0.4284318514899854
0.2786539580001772 0.5134342940889105 0.4235466536394723
0.2788518429997566 0.5085490962383976 0.41670737664875435
0.27904954200039356 0.5065950170981925 0.4176844162188569
0.27924764799990953 0.4978016609672691 0.412799218368344
0.2794457179998062 0.49682462139716654 0.4137762579384465
0.27964258399970277 0.4909623839765511 0.4137762579384465
0.27983939400019153 0.4851001465559355 0.41670737664875435
0.28003592700042645 0.4811919882755251 0.4235466536394723
0.28023221800049214 0.4802149487054226 0.4206155349291647
0.28042999199988117 0.4733756717147044 0.4284318514899854
0.28062669100017956 0.4704445530043966 0.4352711284807034
0.280823037999653 0.4684904738641915 0.43917928676111373
0.2810197369999514 0.467513434294089 0.43917928676111373
0.28121634400031326 0.4684904738641915 0.43917928676111373
0.2814683750002587 0.47923790913532005 0.4323400097703958
0.2816747039996699 0.47239863214460187 0.4333170493404983
0.2818712730004336 0.4733756717147044 0.4323400097703958
0.28206849100024556 0.4684904738641915 0.43722520762090866
0.28226552399974025 0.46165119687347334 0.4430874450415241
0.28246326000044064 0.4528578407425501 0.4479726428920372
0.2826614220002739 0.4450415241817294 0.4557889594528579
0.2828588430002128 0.43722520762090866 0.45969711773326827
0.2830557460001728 0.4323400097703958 0.4606741573033708
0.28325333399970987 0.4284318514899854 0.4655593551538837
0.28345171900036803 0.4206155349291647 0.45676599902296044
0.2836503440003071 0.412799218368344 0.4587200781631655
0.2838491170005 0.412799218368344 0.46165119687347334
0.2840458900000158 0.40986809965803617 0.46262823644357587
0.28424366299987014 0.41182217879824123 0.4636052760136786
0.28444149200004176 0.412799218368344 0.46458231558378116
0.28463896900029795 0.4108451392281387 0.4606741573033708
0.28487259299981815 0.41475329750854906 0.4587200781631655
0.28507249599988427 0.4176844162188569 0.4557889594528579
0.285269936000077 0.41963849535906195 0.4528578407425501
0.28549844900044263 0.42256961406936977 0.4509037616023448
0.28569751899976836 0.4235466536394723 0.44992672203224227
0.28589414399993984 0.41963849535906195 0.44992672203224227
0.2860939909996887 0.42256961406936977 0.45188080117244755
0.2862922829999661 0.4255007327796776 0.4528578407425501
0.2864885190001587 0.42452369320957506 0.45188080117244755
0.2866855519996534 0.4255007327796776 0.4528578407425501
0.2868830469997192 0.42745481191988266 0.4587200781631655
0.28707893200044055 0.42256961406936977 0.45481191988275516
0.28727498300031584 0.41475329750854906 0.45676599902296044
0.28747131199997966 0.40889106008793363 0.45676599902296044
0.2876689550002993 0.40205178309721545 0.4587200781631655
0.2878657840001324 0.39423546653639474 0.45969711773326827
0.28806316800000786 0.38739618954567656 0.4606741573033708
0.2882605340000737 0.38153395212506114 0.46262823644357587
0.28846308500033047 0.38153395212506114 0.46458231558378116
0.2886601360005443 0.36980947728383007 0.4665363947239862
0.28885752000041975 0.3678553981436248 0.467513434294089
0.2890540529997452 0.36980947728383007 0.47435271128480694
0.28925127100046666 0.3688324377137273 0.4733756717147044
0.2894495070004268 0.3688324377137273 0.4811919882755251
0.28964857600021787 0.3737176355642404 0.4802149487054226
0.2898458500003471 0.3776257938446508 0.4831460674157304
0.29004262299986294 0.3786028334147533 0.48412310698583294
0.29024071100047877 0.3805569125549584 0.4851001465559355
0.29043863199967745 0.3834880312652662 0.48705422569614076
0.29063520199997583 0.3834880312652662 0.4880312652662433
0.2908362899997883 0.38739618954567656 0.4851001465559355
0.29103480400044646 0.38739618954567656 0.4811919882755251
0.2912322990005123 0.3903273082559844 0.48216902784562765
0.2914293499998166 0.39423546653639474 0.4802149487054226
0.2916258269997343 0.403028822667318 0.4753297508549097
0.29182226700049796 0.4108451392281387 0.47142159257449934
0.2934244899997793 0.5065950170981925 0.4382022471910112
0.29385809100040206 0.5114802149487054 0.44211040547142155
0.29415575100028946 0.5163654127992183 0.44211040547142155
0.294380670999999 0.5144113336590133 0.44406448461162684
0.29459296300046844 0.5114802149487054 0.4430874450415241
0.2957364370004143 0.512457254518808 0.4450415241817294
0.29628653500003566 0.5056179775280898 0.4509037616023448
0.29754489500010095 0.5095261358085001 0.42745481191988266
0.2978329260004102 0.5085490962383976 0.42745481191988266
0.2980632170001627 0.5065950170981925 0.4255007327796776
0.2982976370003598 0.5065950170981925 0.4264777723497801
0.2985320389998378 0.5046409379579873 0.41963849535906195
0.29929717000050005 0.5056179775280898 0.4157303370786516
0.2996287920004761 0.5046409379579873 0.4157303370786516
0.2998743600001035 0.5075720566682951 0.41475329750854906
0.300079077999726 0.512457254518808 0.41963849535906195
0.30028114700053266 0.5065950170981925 0.41670737664875435
0.3004818460003662 0.5036638983878847 0.4186614557889594
0.30068137899979774 0.495847581827064 0.41963849535906195
0.30088144799992733 0.49193942354665365 0.42159257449926724
0.3010810550003953 0.48900830483634583 0.42452369320957506
0.30128066100041906 0.4802149487054226 0.4255007327796776
0.30151798899987625 0.4753297508549097 0.4284318514899854
0.3017182439998578 0.4665363947239862 0.431362970200293
0.3019176099996912 0.45676599902296044 0.43722520762090866
0.3021170499996515 0.44992672203224227 0.4430874450415241
0.3024193760002163 0.4352711284807034 0.4538348803126526
0.30351036899992323 0.4108451392281387 0.45188080117244755
0.3047259340000892 0.41475329750854906 0.4401563263312165
0.3055180460005431 0.40986809965803617 0.4450415241817294
0.3057893730001524 0.4079140205178309 0.45481191988275516
0.30601523800032737 0.40693698094772834 0.4587200781631655
0.30624260300010064 0.40693698094772834 0.4606741573033708
0.30646050500035926 0.4040058622374205 0.4636052760136786
0.3066770559998986 0.403028822667318 0.46946751343429405
0.3068873660004101 0.4010747435271129 0.4684904738641915
0.30711939800039545 0.39912066438690763 0.4704445530043966
0.30733974400027364 0.39716658524670256 0.47239863214460187
0.30756999799996265 0.3981436248168051 0.4753297508549097
0.3078021600003922 0.39423546653639474 0.4763067904250122
0.3080314509998061 0.39228138739618945 0.47435271128480694
0.308237002000169 0.39228138739618945 0.4704445530043966
0.30843521899987536 0.3913043478260869 0.467513434294089
0.30864152899994224 0.38739618954567656 0.46946751343429405
0.30886861700037116 0.38446507083536874 0.4733756717147044
0.30906679700001405 0.3805569125549584 0.47728382999511476
0.30926749700029177 0.3805569125549584 0.4782608695652173
0.30948928799989517 0.376648754274548 0.4802149487054226
0.3096869680002783 0.37469467513434296 0.4782608695652173
0.30988411199996335 0.37469467513434296 0.47435271128480694
0.31008297800053697 0.376648754274548 0.47435271128480694
0.3102803439996933 0.37469467513434296 0.47728382999511476
0.3104774319999706 0.38251099169516367 0.4753297508549097
0.31067424200045934 0.38739618954567656 0.47728382999511476
0.3108716260003348 0.3913043478260869 0.47728382999511476
0.311067937000189 0.3961895456765998 0.4782608695652173
0.3112651540004663 0.40009770395701016 0.4811919882755251
0.31146335399989766 0.40693698094772834 0.47728382999511476
0.3118319929999416 0.42256961406936977 0.47142159257449934
0.3121968920004292 0.4352711284807034 0.46165119687347334
0.31244992400024785 0.44992672203224227 0.45481191988275516
0.31266832599976624 0.46165119687347334 0.44894968246213973
0.3128674700001284 0.4733756717147044 0.4460185637518319
0.31306585400034237 0.47923790913532005 0.441133365901319
0.31326455300040834 0.48998534440644836 0.441133365901319
0.3134947700000339 0.4978016609672691 0.4382022471910112
0.31369844999971974 0.5017098192476794 0.43624816805080613
0.3138975570000184 0.5046409379579873 0.43722520762090866
0.31409447799978807 0.5065950170981925 0.44211040547142155
0.31429176999972697 0.5046409379579873 0.4450415241817294
0.31448852500034263 0.5007327796775769 0.4538348803126526
0.31468628000038734 0.49877870053737183 0.4538348803126526
0.3148830899999666 0.49877870053737183 0.457743038593063
0.315079789000265 0.4978016609672691 0.457743038593063
0.31527709900001355 0.5007327796775769 0.4606741573033708
0.315474039000037 0.4978016609672691 0.45481191988275516
0.315670812999997 0.49877870053737183 0.4509037616023448
0.31586727099966083 0.4978016609672691 0.44699560332193444
0.31606541499968444 0.49975574010747437 0.4450415241817294
0.3162621510000463 0.5017098192476794 0.4430874450415241
0.3164586089997101 0.5036638983878847 0.4430874450415241
0.3166564200000721 0.5085490962383976 0.43722520762090866
0.3168535820004763 0.5105031753786029 0.43624816805080613
0.3170509849996961 0.5144113336590133 0.43429408891060084
0.31724772100005794 0.5134342940889105 0.42940889106008795
0.3174533090004843 0.5114802149487054 0.4264777723497801
0.3177144319997751 0.5153883732291158 0.42745481191988266
0.3179318530001183 0.5163654127992183 0.42745481191988266
0.3181827179996617 0.5183194919394236 0.4303859306301905
0.31839338000008865 0.5183194919394236 0.42745481191988266
0.31860620800034667 0.5212506106497312 0.42745481191988266
0.31881155500013847 0.5212506106497312 0.4284318514899854
0.3190335689996573 0.5212506106497312 0.4206155349291647
0.31925717500052997 0.5183194919394236 0.41475329750854906
0.31947363299968856 0.5144113336590133 0.41182217879824123
0.3196885170000314 0.5144113336590133 0.4079140205178309
0.3199013820003529 0.5085490962383976 0.40693698094772834
0.3201122660002511 0.5085490962383976 0.41182217879824123
0.32032531700042455 0.5056179775280898 0.4157303370786516
0.32052338599987706 0.5007327796775769 0.42256961406936977
0.3207217710005352 0.495847581827064 0.4255007327796776
0.32091882199983957 0.4909623839765511 0.42745481191988266
0.32111666899982083 0.4851001465559355 0.42745481191988266
0.3213144050005212 0.4802149487054226 0.4264777723497801
0.32153434500014555 0.4733756717147044 0.42452369320957506
0.32173171100021136 0.4655593551538837 0.4284318514899854
0.32193244700010837 0.4538348803126526 0.43429408891060084
0.3221298309999838 0.4430874450415241 0.4382022471910112
0.3223291969998172 0.4333170493404983 0.441133365901319
0.3225271370001792 0.42159257449926724 0.4430874450415241
0.32272803999967437 0.40986809965803617 0.44699560332193444
0.3229274980003538 0.40009770395701016 0.44992672203224227
0.32313358600003994 0.3903273082559844 0.4538348803126526
0.32364212999982556 0.3776257938446508 0.45188080117244755
0.32385273599993525 0.37469467513434296 0.4460185637518319
0.3240510460000223 0.376648754274548 0.4430874450415241
0.3242483379999612 0.3786028334147533 0.4430874450415241
0.3244460000005347 0.38251099169516367 0.44211040547142155
0.3246430879999025 0.3883732291157791 0.44406448461162684
0.3248406390002856 0.3932584269662922 0.44992672203224227
0.32503861599980155 0.3952125061064973 0.45969711773326827
0.3252416120003545 0.4010747435271129 0.46262823644357587
0.3254884950001724 0.4059599413776258 0.46946751343429405
0.32568748999983654 0.41182217879824123 0.4684904738641915
0.3258869119999872 0.4206155349291647 0.4704445530043966
0.32608440700005303 0.4255007327796776 0.46946751343429405
0.3262821990001612 0.42745481191988266 0.46165119687347334
0.3264803980000579 0.42940889106008795 0.4587200781631655
0.3266791900005046 0.4284318514899854 0.4528578407425501
0.32687657400038006 0.4333170493404983 0.4528578407425501
0.32707377299993823 0.42745481191988266 0.44992672203224227
0.327270898000279 0.42452369320957506 0.44894968246213973
0.32746809699983714 0.42256961406936977 0.4528578407425501
0.3276678339998398 0.4186614557889594 0.4587200781631655
0.3278715140004351 0.4108451392281387 0.4655593551538837
0.32807047300048 0.4049829018075233 0.467513434294089
0.3282675609998478 0.4010747435271129 0.47435271128480694
0.3284652600004847 0.3961895456765998 0.47923790913532005
0.32866379200004303 0.3932584269662922 0.48412310698583294
0.32886095400044724 0.39228138739618945 0.48412310698583294
0.3290589309999632 0.39228138739618945 0.48900830483634583
0.3292566860000079 0.3913043478260869 0.49193942354665365
0.3294557560002431 0.39228138739618945 0.49193942354665365
0.32965465800043603 0.3932584269662922 0.4929164631167562
0.3298529319999943 0.39423546653639474 0.4938935026868587
0.33004950099984853 0.3961895456765998 0.4909623839765511
0.3302469039999778 0.4010747435271129 0.48900830483634583
0.33044286299991654 0.403028822667318 0.4851001465559355
0.33064139500038436 0.4040058622374205 0.48216902784562765
0.33083907600030216 0.4079140205178309 0.4811919882755251
0.3310392559997126 0.40693698094772834 0.4802149487054226
0.33123651100049756 0.40889106008793363 0.47728382999511476
0.33143691399982345 0.41182217879824123 0.4811919882755251
0.3316344830000162 0.4157303370786516 0.47239863214460187
0.3318319230002089 0.4206155349291647 0.467513434294089
0.3320285669997247 0.43429408891060084 0.45969711773326827
0.33222530300008657 0.43624816805080613 0.4538348803126526
0.33242290999987745 0.45188080117244755 0.44699560332193444
0.3326199789999009 0.4538348803126526 0.4430874450415241
0.33281669700045313 0.4636052760136786 0.43917928676111373
0.33301489600034984 0.46946751343429405 0.4401563263312165
0.3332127989997389 0.4763067904250122 0.44211040547142155
0.33341320199997426 0.4811919882755251 0.44406448461162684
0.33361249399968074 0.48412310698583294 0.44699560332193444
0.33380965600008494 0.4880312652662433 0.4460185637518319
0.33404692800013436 0.48998534440644836 0.441133365901319
0.33470059800038143 0.5007327796775769 0.44406448461162684
0.3350525719997677 0.5056179775280898 0.44699560332193444
0.3352547889999187 0.5065950170981925 0.44699560332193444
0.3354549699997733 0.5114802149487054 0.44699560332193444
0.33565520600041054 0.5183194919394236 0.4450415241817294
0.3358523309998418 0.5144113336590133 0.4430874450415241
0.3360509189997174 0.5163654127992183 0.43917928676111373
0.3362490070003332 0.5183194919394236 0.4382022471910112
0.3364466689999972 0.5192965315095261 0.43917928676111373
0.3366442940005072 0.5192965315095261 0.43917928676111373
0.33684336399983295 0.5212506106497312 0.44211040547142155
0.3370412109998142 0.5212506106497312 0.4430874450415241
0.33723807699971076 0.5173424523693209 0.4401563263312165
0.33744686800037016 0.5173424523693209 0.4401563263312165
0.33764716000041517 0.5173424523693209 0.43624816805080613
0.3378453779996562 0.5163654127992183 0.4333170493404983
0.338042872999722 0.5144113336590133 0.4333170493404983
0.33824025800004165 0.5144113336590133 0.42940889106008795
0.3384373640001286 0.5114802149487054 0.4255007327796776
0.3386340260003635 0.5065950170981925 0.42256961406936977
0.33883272599996417 0.5017098192476794 0.42452369320957506
0.3390297579999242 0.4978016609672691 0.42745481191988266
0.33922662399982073 0.495847581827064 0.4264777723497801
0.3394242310005211 0.49193942354665365 0.4264777723497801
0.3396217070003331 0.48900830483634583 0.4284318514899854
0.3398184810002931 0.48900830483634583 0.4284318514899854
0.34001586500016856 0.4851001465559355 0.42745481191988266
0.3402135830001498 0.4851001465559355 0.42745481191988266
0.3404112449998138 0.48216902784562765 0.4264777723497801
0.3406085920005353 0.4811919882755251 0.4264777723497801
0.34080532799998764 0.48216902784562765 0.4264777723497801
0.3410027310001169 0.4763067904250122 0.42452369320957506
0.34140124100031244 0.4733756717147044 0.42256961406936977
0.34161940200010577 0.467513434294089 0.4255007327796776
0.3418299719996867 0.4606741573033708 0.4323400097703958
0.3420357820004938 0.4557889594528579 0.4382022471910112
0.3422327400003269 0.44699560332193444 0.4430874450415241
0.34242995800013887 0.4401563263312165 0.4479726428920372
0.3426275829997394 0.43624816805080613 0.45188080117244755
0.3428245599998263 0.431362970200293 0.4528578407425501
0.34302083300008235 0.42745481191988266 0.4528578407425501
0.3432172550001269 0.42745481191988266 0.45481191988275516
0.3434136949999811 0.42256961406936977 0.4538348803126526
0.3436111709997931 0.4186614557889594 0.45188080117244755
0.3438076109996473 0.42256961406936977 0.44894968246213973
0.3440041809999457 0.4255007327796776 0.44699560332193444
0.34420073199999024 0.42940889106008795 0.44406448461162684
0.34439867200035224 0.43429408891060084 0.441133365901319
0.3445947790005448 0.43722520762090866 0.44406448461162684
0.3447917559997222 0.4401563263312165 0.44992672203224227
0.34500193599978957 0.43722520762090866 0.4509037616023448
0.3451984680004898 0.43429408891060084 0.4538348803126526
0.3454144630004521 0.42940889106008795 0.4557889594528579
0.3456141810002009 0.4255007327796776 0.45676599902296044
0.3458115280000129 0.41963849535906195 0.4587200781631655
0.34600930200031144 0.4176844162188569 0.457743038593063
0.346210130000145 0.4137762579384465 0.457743038593063
0.3464087920001475 0.4108451392281387 0.45676599902296044
0.34660545499991713 0.4059599413776258 0.457743038593063
0.3468024690000675 0.4059599413776258 0.46165119687347334
0.34699985299994296 0.40693698094772834 0.4636052760136786
0.34719634799967025 0.40009770395701016 0.467513434294089
0.3473930480004128 0.3932584269662922 0.46946751343429405
0.3475898019996748 0.38739618954567656 0.4753297508549097
0.34778685299988865 0.3756717147044455 0.47239863214460187
0.34798292300001776 0.37469467513434296 0.4782608695652173
0.34818169600021065 0.37176355642403514 0.47728382999511476
0.34837906200027646 0.36980947728383007 0.4811919882755251
0.3485771690002366 0.3688324377137273 0.47923790913532005
0.3487755530004506 0.3659013190034197 0.4753297508549097
0.34897301100045297 0.3688324377137273 0.4763067904250122
0.3491695989996515 0.3688324377137273 0.47728382999511476
0.3493683360002251 0.36980947728383007 0.4782608695652173
0.349577441999827 0.3688324377137273 0.47728382999511476
0.3497738450005272 0.37176355642403514 0.47923790913532005
0.34996997000052943 0.37176355642403514 0.47923790913532005
0.35016676200029906 0.3737176355642404 0.47923790913532005
0.35036346099968796 0.3776257938446508 0.47923790913532005
0.3505619560000923 0.3805569125549584 0.47239863214460187
0.3507592850000947 0.3854421104054715 0.4733756717147044
0.350957966000351 0.3903273082559844 0.46946751343429405
0.3511547210000572 0.39423546653639474 0.46946751343429405
0.35135264200016536 0.39716658524670256 0.4704445530043966
0.3515509340004428 0.4059599413776258 0.4684904738641915
0.35175170700040326 0.412799218368344 0.47239863214460187
0.35194946200044797 0.42256961406936977 0.4704445530043966
0.3521467529999427 0.4352711284807034 0.4636052760136786
0.3523786369996742 0.44894968246213973 0.457743038593063
0.3525758180003322 0.4606741573033708 0.44992672203224227
0.3527730910000173 0.4704445530043966 0.4450415241817294
0.35296993799966003 0.4811919882755251 0.4430874450415241
0.35316600799978914 0.49193942354665365 0.4401563263312165
0.3533616510003412 0.4948705422569615 0.44211040547142155
0.3535723129998587 0.4978016609672691 0.4460185637518319
0.3537703459996919 0.49877870053737183 0.4479726428920372
0.35396698899967305 0.49877870053737183 0.45188080117244755
0.35416539200014086 0.4978016609672691 0.45481191988275516
0.3543626279997625 0.5007327796775769 0.4538348803126526
0.3545601420000821 0.5017098192476794 0.4538348803126526
0.354756990000169 0.5056179775280898 0.45481191988275516
0.35495318900029815 0.5085490962383976 0.45676599902296044
0.3551497220005331 0.5105031753786029 0.45481191988275516
0.35534671700042963 0.5134342940889105 0.45481191988275516
0.35554263799986074 0.5163654127992183 0.45481191988275516
0.35575046699977975 0.5192965315095261 0.45969711773326827
0.35594957400007843 0.5192965315095261 0.4528578407425501
0.35614556900054595 0.5202735710796287 0.4528578407425501
0.3563419900001463 0.5202735710796287 0.4479726428920372
0.3565399119997892 0.5212506106497312 0.4460185637518319
0.3567364999998972 0.5192965315095261 0.4401563263312165
0.35693380999964575 0.5173424523693209 0.4352711284807034
0.35713073199985956 0.5212506106497312 0.43429408891060084
0.35732754200034833 0.5212506106497312 0.4382022471910112
0.357526499999949 0.5173424523693209 0.43917928676111373
0.35772577399984584 0.5163654127992183 0.4382022471910112
0.3579253799998696 0.5134342940889105 0.4352711284807034
0.35812165300012566 0.5085490962383976 0.4333170493404983
0.35831827800029714 0.5007327796775769 0.4255007327796776
0.35851473700040515 0.4948705422569615 0.4206155349291647
0.359225905999665 0.486077186126038 0.41182217879824123
0.35948447400005534 0.4831460674157304 0.4137762579384465
0.359717969000485 0.48216902784562765 0.4157303370786516
0.3604296929997872 0.4851001465559355 0.4108451392281387
0.36068459499983874 0.4909623839765511 0.4333170493404983
0.3619265480001559 0.4704445530043966 0.44894968246213973
0.36218685600033496 0.4538348803126526 0.45676599902296044
0.36241605499981233 0.44211040547142155 0.46262823644357587
0.3626362719996905 0.43624816805080613 0.46165119687347334
0.3628629519998867 0.42452369320957506 0.46262823644357587
0.36307279900029243 0.4176844162188569 0.4587200781631655
0.3632768309998937 0.4157303370786516 0.457743038593063
0.36348027100029867 0.40986809965803617 0.4557889594528579
0.3636870629998157 0.4059599413776258 0.45481191988275516
0.36390116900020075 0.4059599413776258 0.4528578407425501
0.36410677500043676 0.40693698094772834 0.4509037616023448
0.3643108630003553 0.40693698094772834 0.45188080117244755
0.3645179140003165 0.40889106008793363 0.4479726428920372
0.3647195200001079 0.4079140205178309 0.44699560332193444
0.36492083099983574 0.40889106008793363 0.4479726428920372
0.3651228999997329 0.4108451392281387 0.44699560332193444
0.3653258949998417 0.41182217879824123 0.4460185637518319
0.365532871999676 0.41182217879824123 0.4430874450415241
0.36573664499974257 0.4157303370786516 0.4430874450415241
0.365938326000105 0.4264777723497801 0.44211040547142155
0.36614591400029894 0.4382022471910112 0.4430874450415241
0.3663475200000903 0.4401563263312165 0.441133365901319
0.36654879300022003 0.44211040547142155 0.441133365901319
0.3667501039999479 0.43917928676111373 0.4460185637518319
0.3669535059998452 0.431362970200293 0.44992672203224227
0.36715537200052495 0.42452369320957506 0.4538348803126526
0.3673586080003588 0.4137762579384465 0.45969711773326827
0.36756082600004447 0.40205178309721545 0.46946751343429405
0.3677639690004071 0.39228138739618945 0.47435271128480694
0.36796577899986005 0.38446507083536874 0.4782608695652173
0.3681677929998841 0.3776257938446508 0.4831460674157304
0.3683725110004161 0.37469467513434296 0.4811919882755251
0.3685775060002925 0.37176355642403514 0.48216902784562765
0.36877972399997816 0.37274059599413767 0.48216902784562765
0.3689804969999386 0.37176355642403514 0.4811919882755251
0.3691821960001107 0.37176355642403514 0.48412310698583294
0.369413672000519 0.3707865168539326 0.48705422569614076
0.36962257499999396 0.37274059599413767 0.4831460674157304
0.3698248480004622 0.37274059599413767 0.4831460674157304
0.3700564540004052 0.376648754274548 0.48216902784562765
0.3702892450000945 0.3786028334147533 0.4802149487054226
0.3706961059997411 0.3903273082559844 0.4733756717147044
0.370936045000235 0.39423546653639474 0.4733756717147044
0.3711409099996672 0.4010747435271129 0.4704445530043966
0.3713482200000726 0.4059599413776258 0.46946751343429405
0.37155321600039315 0.4108451392281387 0.467513434294089
0.37176226599967777 0.41963849535906195 0.46458231558378116
0.37196839100033685 0.4333170493404983 0.4606741573033708
0.3721743679998326 0.44211040547142155 0.4538348803126526
0.37269865200050845 0.4704445530043966 0.44406448461162684
0.3729317389997959 0.4802149487054226 0.44406448461162684
0.37313919799998985 0.4851001465559355 0.4430874450415241
0.37334263699995063 0.48998534440644836 0.44406448461162684
0.37357205799980875 0.4938935026868587 0.4479726428920372
0.3738070340004924 0.4978016609672691 0.4479726428920372
0.37404295499982254 0.5036638983878847 0.44894968246213973
0.374252302000059 0.5026868588177822 0.44992672203224227
0.37445766699966043 0.5095261358085001 0.4509037616023448
0.3746612370005096 0.5017098192476794 0.44992672203224227
0.3748639909999838 0.5007327796775769 0.4509037616023448
0.37506794999990234 0.5026868588177822 0.44992672203224227
0.3752703339996515 0.49877870053737183 0.44894968246213973
0.37549677300012263 0.49975574010747437 0.4430874450415241
0.37569817599978705 0.5007327796775769 0.44211040547142155
0.3758990050000648 0.5017098192476794 0.4401563263312165
0.37610268499975064 0.5046409379579873 0.4430874450415241
0.37630349499977456 0.5046409379579873 0.44211040547142155
0.3765057130003697 0.5056179775280898 0.4430874450415241
0.3767077270003938 0.5065950170981925 0.44406448461162684
0.3769094259996564 0.5085490962383976 0.4450415241817294
0.3771111070000188 0.5085490962383976 0.44406448461162684
0.3773121940002966 0.5134342940889105 0.441133365901319
0.3775401889997738 0.5134342940889105 0.4430874450415241
0.37774412900034804 0.5153883732291158 0.43917928676111373
0.37794740200024535 0.5173424523693209 0.4352711284807034
0.3781498790003752 0.5183194919394236 0.4333170493404983
0.378356299999723 0.5173424523693209 0.42256961406936977
0.3785615920005512 0.5173424523693209 0.42159257449926724
0.37876555000002554 0.5144113336590133 0.42256961406936977
0.378968119000092 0.5134342940889105 0.4264777723497801
0.3791707440004757 0.5114802149487054 0.431362970200293
0.37937394300024607 0.5144113336590133 0.43624816805080613
0.3795769200005452 0.5036638983878847 0.43917928676111373
0.3797787299999982 0.5007327796775769 0.4401563263312165
0.37998028099991643 0.4948705422569615 0.43722520762090866
0.3801814620001096 0.495847581827064 0.43624816805080613
0.38038327200047206 0.48705422569614076 0.43624816805080613
0.38058469299994613 0.486077186126038 0.43429408891060084
0.38078581799982203 0.48216902784562765 0.4333170493404983
0.3809899059997406 0.48412310698583294 0.4303859306301905
0.38119406799978606 0.4782608695652173 0.4333170493404983
0.3814149150002777 0.47435271128480694 0.4323400097703958
0.3816182070004288 0.4655593551538837 0.43722520762090866
0.3818204799999876 0.45481191988275516 0.44211040547142155
0.38202230899969436 0.4460185637518319 0.4460185637518319
0.38222395200045867 0.4333170493404983 0.44406448461162684
0.3824360770004205 0.4264777723497801 0.4450415241817294
0.38266929400015215 0.4186614557889594 0.44699560332193444
0.3828859739996915 0.412799218368344 0.44699560332193444
0.38309943199965346 0.40986809965803617 0.44894968246213973
0.38332083400018746 0.40889106008793363 0.45481191988275516
0.38354308900034084 0.4059599413776258 0.45969711773326827
0.3837582870000915 0.4059599413776258 0.45969711773326827
0.3839760600003501 0.40693698094772834 0.4606741573033708
0.3841942589997416 0.4108451392281387 0.45969711773326827
0.3844112349997886 0.4108451392281387 0.4528578407425501
0.384638045000429 0.412799218368344 0.4528578407425501
0.38487242799965315 0.41182217879824123 0.4538348803126526
0.3851524960000461 0.412799218368344 0.4509037616023448
0.38609686299969326 0.4137762579384465 0.4509037616023448
0.3865569270001288 0.4176844162188569 0.45188080117244755
0.38683634599965444 0.4137762579384465 0.4528578407425501
0.3871013590005532 0.40889106008793363 0.457743038593063
0.38733137200051715 0.4040058622374205 0.46165119687347334
0.38756727400050295 0.3981436248168051 0.45676599902296044
0.3877936580001915 0.3913043478260869 0.4538348803126526
0.38800909699966724 0.3883732291157791 0.45188080117244755
0.3882297589998416 0.3834880312652662 0.4557889594528579
0.38844632800010004 0.37957987298485585 0.47142159257449934
0.3886706379998941 0.3776257938446508 0.47435271128480694
0.3888934659998995 0.3756717147044455 0.48216902784562765
0.3891309230002662 0.3756717147044455 0.4929164631167562
0.3894497310002407 0.3707865168539326 0.4929164631167562
0.3913716500001101 0.4059599413776258 0.47239863214460187
0.3918493050005054 0.42256961406936977 0.467513434294089
0.3921342989997356 0.43722520762090866 0.46262823644357587
0.3923993850003171 0.4538348803126526 0.457743038593063
0.3936287650003578 0.5017098192476794 0.44211040547142155
0.3940503470003023 0.5036638983878847 0.4450415241817294
0.39431139699991036 0.49877870053737183 0.44699560332193444
0.39470064699980867 0.4978016609672691 0.45481191988275516
0.39540268699965964 0.4978016609672691 0.45676599902296044
0.3956479220005349 0.49682462139716654 0.4538348803126526
0.3958528250004747 0.4978016609672691 0.4450415241817294
0.3960546529997373 0.5046409379579873 0.43917928676111373
0.3962580010002057 0.5095261358085001 0.4303859306301905
0.39646092200018757 0.5105031753786029 0.42452369320957506
0.3966643430003387 0.5163654127992183 0.4235466536394723
0.3968682639997496 0.522227650219834 0.42452369320957506
0.39707001900023897 0.5212506106497312 0.4284318514899854
0.3972713660004956 0.5212506106497312 0.43429408891060084
0.39751411999986885 0.5251587689301416 0.43624816805080613
0.3977185230005489 0.5232046897899365 0.43722520762090866
0.39792098100042494 0.5202735710796287 0.43722520762090866
0.3981224210001528 0.5192965315095261 0.4333170493404983
0.39832491600009234 0.5183194919394236 0.4323400097703958
0.3985271709998415 0.5173424523693209 0.4284318514899854
0.39873731399984536 0.5134342940889105 0.42452369320957506
0.3989411430002292 0.5085490962383976 0.4206155349291647
0.39914410100027453 0.5065950170981925 0.41963849535906195
0.39934576300038316 0.5036638983878847 0.4186614557889594
0.39954670299994177 0.5007327796775769 0.4157303370786516
0.39974866099964856 0.49877870053737183 0.4186614557889594
0.3999509160003072 0.4938935026868587 0.4186614557889594
0.4001548369997181 0.49193942354665365 0.4235466536394723
0.4003558880003766 0.4909623839765511 0.42745481191988266
0.40055666100033704 0.48900830483634583 0.43429408891060084
0.4007587309997689 0.4831460674157304 0.43917928676111373
0.4009603189997506 0.4831460674157304 0.44211040547142155
0.4011644990005152 0.47923790913532005 0.441133365901319
0.4013661239996509 0.47435271128480694 0.44211040547142155
0.4015859890005231 0.4684904738641915 0.441133365901319
0.40178700300020864 0.45969711773326827 0.4430874450415241
0.40198801699989417 0.4538348803126526 0.4450415241817294
0.402188772000045 0.441133365901319 0.4479726428920372
0.40239032299996325 0.431362970200293 0.45188080117244755
0.4025921140000719 0.42452369320957506 0.45676599902296044
0.4027933140005189 0.4186614557889594 0.46262823644357587
0.40299421600047935 0.412799218368344 0.46946751343429405
0.4031956190001438 0.4079140205178309 0.46458231558378116
0.4033965589997024 0.40693698094772834 0.4655593551538837
0.40359773999989557 0.4079140205178309 0.4606741573033708
0.40379847599979257 0.40889106008793363 0.45481191988275516
0.4039998600001127 0.40986809965803617 0.4509037616023448
0.4042023550000522 0.412799218368344 0.4479726428920372
0.40440377699997043 0.4157303370786516 0.4430874450415241
0.4046046240000578 0.4186614557889594 0.441133365901319
0.40480530400054704 0.4206155349291647 0.4401563263312165
0.4050058740003806 0.41963849535906195 0.4430874450415241
0.40520755400029884 0.41670737664875435 0.44699560332193444
0.4054115130002174 0.41475329750854906 0.44699560332193444
0.405615527000009 0.40986809965803617 0.4509037616023448
0.4058166519998849 0.40986809965803617 0.44992672203224227
0.4060169800004587 0.4049829018075233 0.4538348803126526
0.4062169939998057 0.40986809965803617 0.45188080117244755
0.40660757800014835 0.4040058622374205 0.45676599902296044
0.4068716640003913 0.4059599413776258 0.457743038593063
0.407076512000458 0.403028822667318 0.45969711773326827
0.4072800619996997 0.403028822667318 0.4606741573033708
0.4074820579999141 0.39716658524670256 0.467513434294089
0.40785982699981105 0.38935026868588185 0.4753297508549097
0.40808115500021813 0.38739618954567656 0.4753297508549097
0.40828685399992537 0.38446507083536874 0.4763067904250122
0.4084890900003302 0.3834880312652662 0.4811919882755251
0.4086948450003547 0.3805569125549584 0.47923790913532005
0.4088968960004422 0.3786028334147533 0.4831460674157304
0.4090990390004663 0.376648754274548 0.4802149487054226
0.409300498000448 0.3786028334147533 0.47923790913532005
0.4095131410003887 0.38153395212506114 0.47923790913532005
0.40971674699994765 0.38251099169516367 0.4782608695652173
0.40991929800020444 0.38739618954567656 0.4763067904250122
0.4101204600001438 0.3883732291157791 0.4733756717147044
0.41032286300014675 0.3903273082559844 0.4704445530043966
0.4105255069998748 0.3981436248168051 0.4733756717147044
0.41072594599972945 0.3952125061064973 0.4802149487054226
0.4109324600003674 0.3952125061064973 0.4763067904250122
0.4111357700003282 0.3961895456765998 0.47435271128480694
0.41133695100052137 0.40205178309721545 0.47435271128480694
0.4115395759999956 0.40889106008793363 0.47239863214460187
0.4117422190001889 0.40986809965803617 0.47142159257449934
0.41194330700000137 0.4206155349291647 0.4655593551538837
0.41214495100030035 0.4333170493404983 0.45969711773326827
0.41234652000002825 0.4479726428920372 0.45676599902296044
0.4125487749997774 0.457743038593063 0.45188080117244755
0.4127516779999496 0.4684904738641915 0.44894968246213973
0.4129540989997622 0.47923790913532005 0.44699560332193444
0.4131574279999768 0.4851001465559355 0.44894968246213973
0.41336021900042397 0.49193942354665365 0.44992672203224227
0.41358310299983714 0.4978016609672691 0.44894968246213973
0.4137859689999459 0.5007327796775769 0.45188080117244755
0.41399355700013984 0.5036638983878847 0.4528578407425501
0.4141950330003965 0.5065950170981925 0.4587200781631655
0.4143984920001458 0.5056179775280898 0.4538348803126526
0.41460074600036023 0.5095261358085001 0.45188080117244755
0.4148036309998133 0.5114802149487054 0.4509037616023448
0.4150051449996681 0.512457254518808 0.44699560332193444
0.41521091800041177 0.5144113336590133 0.4460185637518319
0.4154119869999704 0.5144113336590133 0.44699560332193444
0.41561322300003667 0.5144113336590133 0.4450415241817294
0.41581588500048383 0.5134342940889105 0.4460185637518319
0.4160198429999582 0.5134342940889105 0.4430874450415241
0.4162223200000881 0.512457254518808 0.4401563263312165
0.4164240010004505 0.5114802149487054 0.441133365901319
0.4166251070000726 0.512457254518808 0.43722520762090866
0.41682808400037175 0.5144113336590133 0.43624816805080613
0.4170296540005438 0.5134342940889105 0.4352711284807034
0.41723194499991223 0.5114802149487054 0.4303859306301905
0.41744173700044485 0.5134342940889105 0.4284318514899854
0.41764625100040575 0.5144113336590133 0.4264777723497801
0.41784996800015506 0.512457254518808 0.4235466536394723
0.41805281500001 0.5183194919394236 0.42159257449926724
0.41825377399982244 0.5105031753786029 0.42256961406936977
0.418456991000312 0.5134342940889105 0.42159257449926724
0.4186593009999342 0.5075720566682951 0.42159257449926724
0.418861723000191 0.5036638983878847 0.4206155349291647
0.4190629770000669 0.5046409379579873 0.41963849535906195
0.4192646210003659 0.5026868588177822 0.4176844162188569
0.41946785700019973 0.5026868588177822 0.42159257449926724
0.41966892599975836 0.49877870053737183 0.4206155349291647
0.4198697740002899 0.495847581827064 0.42159257449926724
0.42007208399991214 0.4929164631167562 0.42256961406936977
0.4202738940002746 0.49193942354665365 0.42256961406936977
0.4204760560005525 0.4880312652662433 0.4235466536394723
0.42067747700002656 0.48705422569614076 0.42452369320957506
0.42088256500028365 0.4802149487054226 0.42452369320957506
0.4210843749997366 0.4782608695652173 0.42745481191988266
0.4212855559999298 0.47239863214460187 0.4284318514899854
0.4215183280002748 0.4665363947239862 0.431362970200293
0.4217198610003834 0.45676599902296044 0.4382022471910112
0.4219211899999209 0.44699560332193444 0.4460185637518319
0.42212525900049513 0.4382022471910112 0.4479726428920372
0.42232736500045576 0.4303859306301905 0.45188080117244755
0.4225287680001202 0.42159257449926724 0.45481191988275516
0.42272946699995373 0.4157303370786516 0.45188080117244755
0.42293192600027396 0.40986809965803617 0.4528578407425501
0.42313380999985384 0.40889106008793363 0.4538348803126526
0.4233407130004707 0.40693698094772834 0.457743038593063
0.42354198599969095 0.4079140205178309 0.4587200781631655
0.4237428890000956 0.4059599413776258 0.46458231558378116
0.4239447170002677 0.412799218368344 0.4587200781631655
0.4241460270004609 0.412799218368344 0.45969711773326827
0.42434765200050606 0.41475329750854906 0.457743038593063
0.4245486850004454 0.4186614557889594 0.45969711773326827
0.4247500139999829 0.4176844162188569 0.4606741573033708
0.42495069400047214 0.41475329750854906 0.45969711773326827
0.42515154099965 0.4157303370786516 0.4587200781631655
0.42535283300003357 0.4157303370786516 0.45188080117244755
0.4255556620000789 0.4108451392281387 0.4538348803126526
0.4257573240001875 0.4079140205178309 0.44699560332193444
0.42595807799989416 0.40205178309721545 0.4479726428920372
0.4261600919999182 0.39716658524670256 0.4509037616023448
0.4263635320003232 0.3903273082559844 0.4538348803126526
0.4265674719999879 0.3854421104054715 0.45481191988275516
0.42676894899977924 0.3776257938446508 0.4636052760136786
0.42697081500045897 0.37176355642403514 0.4655593551538837
0.4271728650001023 0.3688324377137273 0.46946751343429405
0.42737452700021095 0.3639472398632144 0.4733756717147044
0.4275764670001081 0.3629702002931119 0.4753297508549097
0.4277785740005129 0.3629702002931119 0.4704445530043966
0.42797940299988113 0.3639472398632144 0.47142159257449934
0.4281909720002659 0.3688324377137273 0.4704445530043966
0.4283922630002053 0.37469467513434296 0.47142159257449934
0.4285952769996584 0.3776257938446508 0.4665363947239862
0.42879673600054957 0.3786028334147533 0.46165119687347334
0.4289979900004255 0.37957987298485585 0.4636052760136786
0.42919902300036483 0.3834880312652662 0.4665363947239862
0.42941635100032727 0.38739618954567656 0.4684904738641915
0.4296204940001189 0.38641914997557403 0.47142159257449934
0.42982321199997386 0.39228138739618945 0.47435271128480694
0.43002446700029395 0.38935026868588185 0.47923790913532005
0.4302255550001064 0.3913043478260869 0.4811919882755251
0.43042871699981333 0.3932584269662922 0.4802149487054226
0.4306306750004296 0.3961895456765998 0.4802149487054226
0.4308328930001153 0.4010747435271129 0.4811919882755251
0.43103348099975847 0.4040058622374205 0.47728382999511476
0.43123706900041725 0.40986809965803617 0.47728382999511476
0.43143882300046243 0.4206155349291647 0.47728382999511476
0.431642317999831 0.4284318514899854 0.47435271128480694
0.43184386899974925 0.4401563263312165 0.46946751343429405
0.4320456799996464 0.4538348803126526 0.457743038593063
0.4322462860000087 0.4684904738641915 0.4460185637518319
0.43244685599984223 0.486077186126038 0.4401563263312165
0.4326487950002047 0.4978016609672691 0.4352711284807034
0.43285034600012295 0.5046409379579873 0.43624816805080613
0.43305141600012576 0.5134342940889105 0.4382022471910112
0.43325220800034003 0.524181729360039 0.44211040547142155
0.4334539990004487 0.5300439667806547 0.4430874450415241
0.43365516100038803 0.5329750854909623 0.4460185637518319
0.4338562680004543 0.5378602833414754 0.44894968246213973
0.43405743000039365 0.5280898876404494 0.4509037616023448
0.4342584619998888 0.5261358085002443 0.44894968246213973
0.43445999499999743 0.5202735710796287 0.44992672203224227
0.4346623970004657 0.5144113336590133 0.44699560332193444
0.4348635779997494 0.5114802149487054 0.441133365901319
0.4350643329999002 0.5085490962383976 0.4430874450415241
0.4352654390004318 0.5036638983878847 0.4382022471910112
0.4354693599998427 0.5065950170981925 0.441133365901319
0.43567402200005745 0.5065950170981925 0.44894968246213973
0.4358752580001237 0.5075720566682951 0.45481191988275516
0.43607668000004196 0.512457254518808 0.46165119687347334
0.4362787310001295 0.5095261358085001 0.457743038593063
0.4366024829996604 0.5105031753786029 0.4509037616023448
0.4368210889997499 0.5114802149487054 0.4450415241817294
0.43702989899975364 0.5095261358085001 0.44211040547142155
0.43723400500039133 0.512457254518808 0.44211040547142155
0.43743603700022504 0.512457254518808 0.43429408891060084
0.4376388290002069 0.5114802149487054 0.4303859306301905
0.43783752800027287 0.512457254518808 0.4284318514899854
0.4380383570005506 0.5144113336590133 0.4264777723497801
0.43823688900010893 0.5134342940889105 0.4255007327796776
0.4384354590001749 0.5105031753786029 0.4235466536394723
0.438635677000093 0.5105031753786029 0.4264777723497801
0.43883572800041293 0.5017098192476794 0.42256961406936977
0.4390340190002462 0.5007327796775769 0.42159257449926724
0.4392358300001433 0.4978016609672691 0.4235466536394723
0.4394344550000824 0.4938935026868587 0.4264777723497801
0.439632857000106 0.4909623839765511 0.42452369320957506
0.43983042699983343 0.4880312652662433 0.4264777723497801
0.44002895900030126 0.4851001465559355 0.42745481191988266
0.4402268809999441 0.48216902784562765 0.4264777723497801
0.4404244320003272 0.4811919882755251 0.4255007327796776
0.4406224639997163 0.47239863214460187 0.42745481191988266
0.4408203860002686 0.47435271128480694 0.42452369320957506
0.44101873300041916 0.47435271128480694 0.4323400097703958
0.4412169509996602 0.47239863214460187 0.42940889106008795
0.4414351860004899 0.4733756717147044 0.42745481191988266
0.4416385889999219 0.467513434294089 0.43429408891060084
0.44184038100047474 0.4636052760136786 0.4382022471910112
0.44205004299965367 0.4587200781631655 0.44211040547142155
0.44227044499984913 0.4528578407425501 0.4460185637518319
0.44248484800027654 0.4479726428920372 0.45188080117244755
0.4426978980000058 0.44211040547142155 0.4538348803126526
0.4429260229999272 0.43624816805080613 0.4538348803126526
0.4431466839996574 0.4255007327796776 0.457743038593063
0.44338003099983325 0.42256961406936977 0.45481191988275516
0.4435969149999437 0.4206155349291647 0.4538348803126526
0.4438139840003714 0.4186614557889594 0.44406448461162684
0.44404436700006045 0.41963849535906195 0.4430874450415241
0.44429287999992084 0.4176844162188569 0.44406448461162684
0.44457565100037755 0.4157303370786516 0.44992672203224227
0.4448819959998218 0.40986809965803617 0.4528578407425501
0.44521776600049634 0.4049829018075233 0.45188080117244755
0.44562634999965667 0.4059599413776258 0.45481191988275516
0.44592436099992483 0.4010747435271129 0.457743038593063
0.4462467610001113 0.40009770395701016 0.4606741573033708
0.4464850710000974 0.40009770395701016 0.4636052760136786
0.4467237690005277 0.3981436248168051 0.46165119687347334
0.4469408189997921 0.3961895456765998 0.46165119687347334
0.44714581500011263 0.3952125061064973 0.46458231558378116
0.44734934700045415 0.3903273082559844 0.4665363947239862
0.4475532500000554 0.3834880312652662 0.467513434294089
0.4477603559998897 0.38153395212506114 0.47142159257449934
0.4479635919997236 0.3737176355642404 0.47239863214460187
0.4481721620004464 0.36980947728383007 0.47728382999511476
0.4483769899998151 0.36687835857352225 0.48216902784562765
0.4485778930002198 0.3659013190034197 0.4851001465559355
0.4487836480002443 0.3639472398632144 0.486077186126038
0.44898773499971867 0.3639472398632144 0.4851001465559355
0.44918917500035604 0.36687835857352225 0.48216902784562765
0.44943983600023785 0.3659013190034197 0.47728382999511476
0.44965346099979797 0.36980947728383007 0.47142159257449934
0.44985508599984314 0.37274059599413767 0.4704445530043966
0.45005726700037485 0.376648754274548 0.4684904738641915
0.45025865099978546 0.3786028334147533 0.4684904738641915
0.4504612390001057 0.38251099169516367 0.4655593551538837
0.4506714010003634 0.38935026868588185 0.467513434294089
0.4508742850002818 0.39228138739618945 0.4684904738641915
0.451075316999777 0.403028822667318 0.47142159257449934
0.4512783310001396 0.4059599413776258 0.47142159257449934
0.45148001200050203 0.412799218368344 0.47239863214460187
0.45168335900052625 0.42452369320957506 0.47239863214460187
0.45188598400000046 0.43722520762090866 0.4684904738641915
0.4520873869996649 0.4538348803126526 0.46165119687347334
0.4522876230003021 0.4684904738641915 0.4538348803126526
0.4524885999999242 0.48216902784562765 0.4479726428920372
0.4526905760003501 0.4978016609672691 0.44211040547142155
0.4528942200004167 0.5046409379579873 0.4401563263312165
0.4531034000001455 0.5105031753786029 0.4382022471910112
0.45330517399997916 0.5144113336590133 0.4382022471910112
0.45351492800000415 0.5163654127992183 0.441133365901319
0.45371579400034534 0.5144113336590133 0.44211040547142155
0.4539175480003905 0.5134342940889105 0.44699560332193444
0.45411998800045694 0.5095261358085001 0.4509037616023448
0.45432318700022734 0.5046409379579873 0.45481191988275516
0.45452710800054774 0.5026868588177822 0.4538348803126526
0.45472836299995834 0.5065950170981925 0.45969711773326827
0.4549300070002573 0.5046409379579873 0.45481191988275516
0.45513133500026015 0.5036638983878847 0.45188080117244755
0.4553332200002842 0.5065950170981925 0.4538348803126526
0.4555353260002448 0.5085490962383976 0.44992672203224227
0.45573654400050145 0.5075720566682951 0.44699560332193444
0.4559385390002717 0.5036638983878847 0.4479726428920372
0.4561400530001265 0.5007327796775769 0.44211040547142155
0.4563429560002987 0.49877870053737183 0.441133365901319
0.4565444700001535 0.4978016609672691 0.43917928676111373
0.45674639099979686 0.495847581827064 0.43624816805080613
0.45694738600013807 0.49193942354665365 0.4323400097703958
0.45715043699965463 0.49682462139716654 0.43429408891060084
0.45735202500054584 0.4948705422569615 0.4284318514899854
0.4575580569999147 0.49193942354665365 0.4264777723497801
0.4577601080000022 0.49193942354665365 0.4255007327796776
0.4579609740003434 0.4929164631167562 0.42452369320957506
0.45816276599998673 0.4938935026868587 0.4255007327796776
0.45836403900011646 0.4948705422569615 0.42256961406936977
0.4585657010002251 0.4929164631167562 0.4206155349291647
0.4587695669997629 0.4948705422569615 0.42256961406936977
0.4589704319996599 0.4978016609672691 0.41963849535906195
0.4591719460004242 0.5007327796775769 0.4176844162188569
0.45937296000010974 0.5017098192476794 0.4157303370786516
0.45957551100036653 0.5046409379579873 0.4186614557889594
0.4597770620002848 0.5036638983878847 0.41670737664875435
0.4599782610002876 0.5007327796775769 0.41963849535906195
0.4601789970001846 0.49877870053737183 0.4206155349291647
0.4603796040000816 0.49682462139716654 0.4255007327796776
0.46057993300019007 0.48900830483634583 0.4284318514899854
0.4607810950001294 0.486077186126038 0.4303859306301905
0.4609829789997093 0.48216902784562765 0.4284318514899854
0.4611839740000505 0.47923790913532005 0.4284318514899854
0.46139709900035086 0.4753297508549097 0.4264777723497801
0.46160179799971957 0.4665363947239862 0.4255007327796776
0.46180642299987085 0.4655593551538837 0.4303859306301905
0.46201099199970486 0.45188080117244755 0.43429408891060084
0.462213969000004 0.4430874450415241 0.4382022471910112
0.4624150939998799 0.44406448461162684 0.44406448461162684
0.4626294039999266 0.4284318514899854 0.45481191988275516
0.462851158000376 0.4235466536394723 0.46262823644357587
0.463137966999966 0.4186614557889594 0.46946751343429405
0.4643839560003471 0.43429408891060084 0.43917928676111373
0.4650295900000856 0.43429408891060084 0.43917928676111373
0.46530312100003357 0.4303859306301905 0.4450415241817294
0.4655661329998111 0.42256961406936977 0.4538348803126526
0.466313246000027 0.4059599413776258 0.4704445530043966
0.4665754059997198 0.403028822667318 0.4753297508549097
0.4667809760003365 0.3981436248168051 0.4763067904250122
0.46698400800050877 0.39423546653639474 0.47923790913532005
0.46718767000038497 0.3932584269662922 0.4782608695652173
0.46738818399990123 0.38739618954567656 0.4782608695652173
0.4675879389997135 0.38251099169516367 0.47923790913532005
0.46778737800013914 0.3776257938446508 0.4811919882755251
0.46798768900043797 0.37469467513434296 0.47923790913532005
0.4681883690000177 0.3707865168539326 0.4802149487054226
0.4683886610000627 0.3688324377137273 0.4802149487054226
0.46874850499989407 0.3678553981436248 0.4753297508549097
0.46896188800019445 0.3737176355642404 0.47239863214460187
0.4691695689998596 0.37469467513434296 0.4665363947239862
0.4693702120002854 0.3786028334147533 0.46946751343429405
0.46961078100048326 0.38446507083536874 0.46946751343429405
0.4698105170000417 0.3854421104054715 0.4733756717147044
0.4700099390001924 0.3913043478260869 0.4763067904250122
0.47020856400013145 0.3961895456765998 0.4753297508549097
0.47041611399981775 0.4010747435271129 0.46946751343429405
0.4706150729998626 0.40693698094772834 0.4684904738641915
0.4708147530000133 0.40889106008793363 0.4665363947239862
0.4710144709997621 0.4108451392281387 0.4655593551538837
0.4712143550004839 0.4108451392281387 0.46458231558378116
0.47141394299978856 0.412799218368344 0.467513434294089
0.4716120310004044 0.41475329750854906 0.46946751343429405
0.4718103229997723 0.42159257449926724 0.46458231558378116
0.4720094849999441 0.4323400097703958 0.45969711773326827
0.4722089440001582 0.44406448461162684 0.4538348803126526
0.47240814300039347 0.4538348803126526 0.44699560332193444
0.47260652699969796 0.4655593551538837 0.441133365901319
0.4728050780004196 0.47435271128480694 0.4401563263312165
0.4730040550002741 0.4831460674157304 0.43917928676111373
0.4732021800000439 0.48900830483634583 0.43917928676111373
0.47341582300032314 0.4938935026868587 0.44211040547142155
0.47362326300026325 0.5036638983878847 0.441133365901319
0.4738259069999913 0.5036638983878847 0.441133365901319
0.47402695799974026 0.5075720566682951 0.44406448461162684
0.4742288790002931 0.5075720566682951 0.44406448461162684
0.47443141100029607 0.5065950170981925 0.44406448461162684
0.47463351799979137 0.5046409379579873 0.44211040547142155
0.4748351059997731 0.5056179775280898 0.441133365901319
0.47503626799971244 0.5007327796775769 0.441133365901319
0.47523904100034997 0.4978016609672691 0.441133365901319
0.47544385099990905 0.495847581827064 0.44211040547142155
0.47564445700027136 0.4978016609672691 0.4460185637518319
0.47584537900002033 0.49193942354665365 0.44992672203224227
0.4760466150000866 0.4938935026868587 0.4509037616023448
0.47624751800049125 0.4948705422569615 0.45188080117244755
0.47644960599973274 0.4938935026868587 0.44992672203224227
0.4766505830002643 0.4909623839765511 0.4450415241817294
0.4768531700001404 0.48998534440644836 0.44406448461162684
0.4770541289999528 0.4909623839765511 0.4323400097703958
0.47725514300054783 0.4909623839765511 0.4284318514899854
0.47745867499997985 0.49193942354665365 0.4255007327796776
0.4776595780003845 0.49877870053737183 0.42745481191988266
0.47785951800051407 0.5046409379579873 0.4333170493404983
0.47805819800032623 0.5134342940889105 0.43429408891060084
0.47859372299990355 0.5310210063507572 0.431362970200293
0.478923659999964 0.5359062042012701 0.4235466536394723
0.4791901720000169 0.5368832437713726 0.41670737664875435
0.47941738900044584 0.5310210063507572 0.4108451392281387
0.4796249219998572 0.5251587689301416 0.40889106008793363
0.4798294540005372 0.5183194919394236 0.4079140205178309
0.4800290610000957 0.5183194919394236 0.4059599413776258
0.480227277999802 0.5105031753786029 0.41475329750854906
0.4804258109998045 0.5065950170981925 0.4176844162188569
0.4806265280003572 0.495847581827064 0.4186614557889594
0.48082633900048677 0.48900830483634583 0.4235466536394723
0.4810282600001301 0.47923790913532005 0.4284318514899854
0.48122675500053447 0.4704445530043966 0.4352711284807034
0.4814751570002045 0.4587200781631655 0.4460185637518319
0.48168594900016615 0.44699560332193444 0.44992672203224227
0.48188966599991545 0.43429408891060084 0.4557889594528579
0.482091273000151 0.4235466536394723 0.4587200781631655
0.4822995639997316 0.4157303370786516 0.4636052760136786
0.48250252199977695 0.41475329750854906 0.4655593551538837
0.482704406999801 0.40889106008793363 0.4665363947239862
0.4829059209996558 0.40693698094772834 0.4655593551538837
0.4831073049999759 0.4040058622374205 0.4655593551538837
0.48330929999974614 0.403028822667318 0.4636052760136786
0.4835103329996855 0.403028822667318 0.45969711773326827
0.48371193900038634 0.412799218368344 0.45969711773326827
0.48391521200028365 0.4079140205178309 0.4509037616023448
0.4841167080003288 0.4157303370786516 0.4460185637518319
0.4843183700004374 0.4206155349291647 0.44406448461162684
0.4845197909999115 0.42159257449926724 0.441133365901319
0.48472641599983035 0.4206155349291647 0.4382022471910112
0.4849293190000026 0.42256961406936977 0.441133365901319
0.4851362950003022 0.4255007327796776 0.441133365901319
0.48533908700028405 0.42159257449926724 0.44211040547142155
0.485540767999737 0.41963849535906195 0.44406448461162684
0.4857398000003741 0.41963849535906195 0.44406448461162684
0.48593894399982673 0.4157303370786516 0.44894968246213973
0.4861380869997447 0.41475329750854906 0.4587200781631655
0.48633839700050885 0.4108451392281387 0.45188080117244755
0.48653850400023657 0.4108451392281387 0.4538348803126526
0.48674642500009213 0.4059599413776258 0.44992672203224227
0.4869452539996928 0.4059599413776258 0.4557889594528579
0.48714415700032987 0.40205178309721545 0.4606741573033708
0.4873454300004596 0.39423546653639474 0.46262823644357587
0.4875464810002086 0.38935026868588185 0.4684904738641915
0.4877457170005073 0.38739618954567656 0.4704445530043966
0.4879458049999812 0.3834880312652662 0.4753297508549097
0.4881462080002166 0.3786028334147533 0.4782608695652173
0.48834498100040946 0.37469467513434296 0.4831460674157304
0.48854608700003155 0.3737176355642404 0.486077186126038
0.48874489799982257 0.36980947728383007 0.4831460674157304
0.4889438380005231 0.36980947728383007 0.48216902784562765
