0 0.4909623839765511 0.44406448461162684
0.00264613899980759 0.4479726428920372 0.46165119687347334
0.003946281999560597 0.431362970200293 0.457743038593063
0.00437882999995054 0.43429408891060084 0.45188080117244755
0.004815971000425634 0.44211040547142155 0.45188080117244755
0.006127966000349261 0.4450415241817294 0.45481191988275516
0.008013098999981594 0.4284318514899854 0.4538348803126526
0.008706345999598852 0.41182217879824123 0.4538348803126526
0.009033524999722431 0.4049829018075233 0.4538348803126526
0.009273206000216305 0.4010747435271129 0.45188080117244755
0.009547904999635648 0.3952125061064973 0.45188080117244755
0.00978504900012922 0.39228138739618945 0.4509037616023448
0.010155412999665714 0.3913043478260869 0.4460185637518319
0.010380667999925208 0.3903273082559844 0.44894968246213973
0.01059421999980259 0.3913043478260869 0.4430874450415241
0.01080842000010307 0.3913043478260869 0.4430874450415241
0.011099063000074239 0.39228138739618945 0.4401563263312165
0.011379132000001846 0.39912066438690763 0.44211040547142155
0.011604424000324798 0.403028822667318 0.4479726428920372
0.011824549999801093 0.40009770395701016 0.4450415241817294
0.012049212000420084 0.4049829018075233 0.44992672203224227
0.012270172000171442 0.4059599413776258 0.45188080117244755
0.012493631000324967 0.40986809965803617 0.45188080117244755
0.012716590000309225 0.41963849535906195 0.4528578407425501
0.012929714999700082 0.42745481191988266 0.44992672203224227
0.013135952000084217 0.43429408891060084 0.4509037616023448
0.013355725999645074 0.44406448461162684 0.4509037616023448
0.013564722999944934 0.44992672203224227 0.4460185637518319
0.013790181999866036 0.4557889594528579 0.4430874450415241
0.014183451999997487 0.46165119687347334 0.4430874450415241
0.0144270040000265 0.4655593551538837 0.44992672203224227
0.01464514799954486 0.46458231558378116 0.45188080117244755
0.014869161999740754 0.4665363947239862 0.4538348803126526
0.015110954000192578 0.4684904738641915 0.45676599902296044
0.015412060000016936 0.4665363947239862 0.457743038593063
0.015659593000236782 0.467513434294089 0.45676599902296044
0.015927477000332146 0.46946751343429405 0.45676599902296044
0.016195008999602578 0.4704445530043966 0.45676599902296044
0.016451597000013862 0.47142159257449934 0.45481191988275516
0.016668037999806984 0.47142159257449934 0.4538348803126526
0.016877793000276142 0.4704445530043966 0.4538348803126526
0.017132269999819982 0.47142159257449934 0.44894968246213973
0.017361285000333737 0.4753297508549097 0.44894968246213973
0.017607316999601608 0.47142159257449934 0.4479726428920372
0.01783323899962852 0.47142159257449934 0.44992672203224227
0.018157251999582513 0.4782608695652173 0.4479726428920372
0.018360230000325828 0.47923790913532005 0.4479726428920372
0.0185604489997786 0.4811919882755251 0.457743038593063
0.018764833999739494 0.4831460674157304 0.45188080117244755
0.018976829999701295 0.4929164631167562 0.44992672203224227
0.019182492999789247 0.48998534440644836 0.44894968246213973
0.019389119000152277 0.48998534440644836 0.4479726428920372
0.01966087399978278 0.48998534440644836 0.4460185637518319
0.019938387000365765 0.4929164631167562 0.4450415241817294
0.020218419000229915 0.4929164631167562 0.4479726428920372
0.020434803999705764 0.4948705422569615 0.44992672203224227
0.020652356000027794 0.49682462139716654 0.45188080117244755
0.020863222999651043 0.49975574010747437 0.4528578407425501
0.02115760600008798 0.49975574010747437 0.4528578407425501
0.021398324000074354 0.5036638983878847 0.44992672203224227
0.021774892000394175 0.5026868588177822 0.4460185637518319
0.022237049999603187 0.4938935026868587 0.44406448461162684
0.02251939699999639 0.4802149487054226 0.4509037616023448
0.022781763000239152 0.467513434294089 0.45481191988275516
0.02308633099983126 0.45676599902296044 0.45481191988275516
0.024417325999820605 0.4352711284807034 0.4352711284807034
0.02525820000028034 0.4460185637518319 0.43624816805080613
0.025771839000299224 0.4460185637518319 0.4479726428920372
0.026330996000069717 0.44406448461162684 0.45676599902296044
0.026748563000182912 0.441133365901319 0.45969711773326827
0.027047835000303166 0.441133365901319 0.4636052760136786
0.02740406900011294 0.4430874450415241 0.4665363947239862
0.027810691999548 0.4401563263312165 0.4665363947239862
0.028082539000024553 0.4323400097703958 0.46458231558378116
0.0283796630001234 0.42256961406936977 0.46458231558378116
0.028632196000216936 0.4186614557889594 0.4606741573033708
0.02886245100035012 0.40693698094772834 0.4606741573033708
0.029081540000333916 0.40205178309721545 0.457743038593063
0.02932360900013009 0.39716658524670256 0.45969711773326827
0.029538623999542324 0.39423546653639474 0.45969711773326827
0.02974919400003273 0.39228138739618945 0.457743038593063
0.030078466000304616 0.38935026868588185 0.45481191988275516
0.030314536000332737 0.3883732291157791 0.45676599902296044
0.030535292000422487 0.3883732291157791 0.45188080117244755
0.03074310299962235 0.38641914997557403 0.44894968246213973
0.030964784000389045 0.38641914997557403 0.44699560332193444
0.031176020999737375 0.3834880312652662 0.4479726428920372
0.03138977599974169 0.38739618954567656 0.44699560332193444
0.031766787999913504 0.3913043478260869 0.4460185637518319
0.03214618899983179 0.39228138739618945 0.4460185637518319
0.032369315000323695 0.39716658524670256 0.44211040547142155
0.032592700000350305 0.40693698094772834 0.43917928676111373
0.03280288099995232 0.41475329750854906 0.43722520762090866
0.03301835900037986 0.4235466536394723 0.4382022471910112
0.033232613999643945 0.4323400097703958 0.43429408891060084
0.03344599899992318 0.44211040547142155 0.4303859306301905
0.03366212499986432 0.4460185637518319 0.43429408891060084
0.0338733990001856 0.44992672203224227 0.43429408891060084
0.03409596900019096 0.4557889594528579 0.43624816805080613
0.03430441000000428 0.457743038593063 0.44211040547142155
0.03453614699992613 0.46262823644357587 0.4450415241817294
0.034752642999592354 0.46946751343429405 0.44992672203224227
0.034966082999744685 0.4704445530043966 0.45188080117244755
0.03517176500008645 0.47239863214460187 0.4587200781631655
0.035378427999603446 0.47239863214460187 0.45481191988275516
0.03558405399962794 0.4753297508549097 0.45969711773326827
0.03579743899990717 0.47923790913532005 0.46165119687347334
0.036004194999804895 0.47239863214460187 0.46262823644357587
0.03625482000006741 0.47728382999511476 0.46165119687347334
0.03654744399955234 0.4763067904250122 0.46262823644357587
0.03678195799966488 0.47435271128480694 0.46165119687347334
0.03702975000032893 0.4763067904250122 0.46262823644357587
0.03729372700036038 0.4763067904250122 0.45969711773326827
0.037591889000395895 0.4802149487054226 0.4587200781631655
0.03828691299986531 0.495847581827064 0.4430874450415241
0.03872986799979117 0.5036638983878847 0.43917928676111373
0.03897397499986255 0.5065950170981925 0.43624816805080613
0.03919576699991012 0.5046409379579873 0.4333170493404983
0.039414077999936126 0.5036638983878847 0.43429408891060084
0.039642241000365175 0.49877870053737183 0.43722520762090866
0.03987123699971562 0.4978016609672691 0.4382022471910112
0.04010043699963717 0.495847581827064 0.44406448461162684
0.04043639399969834 0.48998534440644836 0.4460185637518319
0.040733703000114474 0.4802149487054226 0.44894968246213973
0.04101493899997877 0.4753297508549097 0.44992672203224227
0.0413174519999302 0.467513434294089 0.457743038593063
0.0415485780004019 0.4655593551538837 0.45676599902296044
0.0417677220002588 0.46262823644357587 0.45676599902296044
0.042009032000351 0.4606741573033708 0.46165119687347334
0.04222988000037731 0.4528578407425501 0.45969711773326827
0.042464858000130334 0.44211040547142155 0.45969711773326827
0.04271622299984301 0.43624816805080613 0.4587200781631655
0.0429254230002698 0.4333170493404983 0.4587200781631655
0.043137493999893195 0.4284318514899854 0.45676599902296044
0.04333800899985363 0.4264777723497801 0.4538348803126526
0.04353739399994083 0.4284318514899854 0.44992672203224227
0.04374035299952084 0.4264777723497801 0.44406448461162684
0.043947590999778186 0.431362970200293 0.43917928676111373
0.04417784599991137 0.43624816805080613 0.4333170493404983
0.04488598100033414 0.46946751343429405 0.43722520762090866
0.045366694999756874 0.47728382999511476 0.43917928676111373
0.04561396799999784 0.47728382999511476 0.4430874450415241
0.045864648999668134 0.4753297508549097 0.4450415241817294
0.04619582800023636 0.4763067904250122 0.44699560332193444
0.046470322999994096 0.47239863214460187 0.4479726428920372
0.04675826299990149 0.46946751343429405 0.4479726428920372
0.0470532950002962 0.4665363947239862 0.44992672203224227
0.04738491799980693 0.45481191988275516 0.4509037616023448
0.04768994999994902 0.4509037616023448 0.4528578407425501
0.048115460999724746 0.4401563263312165 0.4538348803126526
0.04847421399972518 0.431362970200293 0.44992672203224227
0.048767504999887024 0.4206155349291647 0.4509037616023448
0.04902276000029815 0.412799218368344 0.44894968246213973
0.04928877299971646 0.4049829018075233 0.4509037616023448
0.04954254699987359 0.3981436248168051 0.4509037616023448
0.05038334700020641 0.38935026868588185 0.44992672203224227
0.05119279500013363 0.39423546653639474 0.45481191988275516
0.05194961500001227 0.38739618954567656 0.4538348803126526
0.05230747899986454 0.3883732291157791 0.4557889594528579
0.052585919000193826 0.3981436248168051 0.45676599902296044
0.05285111800003506 0.412799218368344 0.45676599902296044
0.053098909000254935 0.4235466536394723 0.45969711773326827
0.053356274999714515 0.4352711284807034 0.46165119687347334
0.053635436999684316 0.4450415241817294 0.46458231558378116
0.05397559799985174 0.4557889594528579 0.467513434294089
0.05441123800028436 0.46458231558378116 0.4587200781631655
0.05465002999972057 0.46946751343429405 0.45969711773326827
0.05486610000025394 0.47142159257449934 0.45481191988275516
0.05508267099958175 0.4684904738641915 0.4538348803126526
0.055300906999946164 0.47239863214460187 0.4528578407425501
0.055529143999592634 0.47239863214460187 0.45188080117244755
0.05583778700020048 0.4753297508549097 0.45481191988275516
0.05608657900029357 0.4802149487054226 0.45481191988275516
0.05629100100031792 0.4811919882755251 0.4557889594528579
0.0564976449995811 0.4831460674157304 0.45481191988275516
0.056699290000324254 0.48216902784562765 0.4538348803126526
0.05690724899977795 0.4802149487054226 0.4538348803126526
0.05712600500010012 0.47728382999511476 0.4509037616023448
0.057410888000049454 0.47435271128480694 0.4450415241817294
0.05770966099953512 0.47728382999511476 0.44406448461162684
0.0580070819996763 0.4782608695652173 0.4401563263312165
0.05823400400004175 0.47923790913532005 0.44211040547142155
0.05847155500032386 0.48412310698583294 0.4430874450415241
0.05868588399971486 0.486077186126038 0.44699560332193444
0.05890378799995233 0.48900830483634583 0.44992672203224227
0.05914676500015048 0.48900830483634583 0.4528578407425501
0.05941779699969629 0.48998534440644836 0.44894968246213973
0.05968334800036246 0.4880312652662433 0.44992672203224227
0.059956009999950766 0.4909623839765511 0.4479726428920372
0.06023959800040757 0.4929164631167562 0.4479726428920372
0.060538906999681785 0.49682462139716654 0.44699560332193444
0.06087603099967964 0.4978016609672691 0.441133365901319
0.061170969999693625 0.5007327796775769 0.4430874450415241
0.06143652100035979 0.49682462139716654 0.4430874450415241
0.06166297999970993 0.4978016609672691 0.44406448461162684
0.06224011799986329 0.4948705422569615 0.44992672203224227
0.06266433200016763 0.4811919882755251 0.45188080117244755
0.06293267900036881 0.46946751343429405 0.4557889594528579
0.0633284690002256 0.45676599902296044 0.4509037616023448
0.06445741199968325 0.4528578407425501 0.4509037616023448
0.06470723999973416 0.4538348803126526 0.44894968246213973
0.06491086599999107 0.45188080117244755 0.44992672203224227
0.06511395500001527 0.44894968246213973 0.44894968246213973
0.06532463700023072 0.4479726428920372 0.4509037616023448
0.06552668899985292 0.4479726428920372 0.4509037616023448
0.06572762999985571 0.44211040547142155 0.4528578407425501
0.06598582900005567 0.4323400097703958 0.4538348803126526
0.06619212100031291 0.4255007327796776 0.4557889594528579
0.06639233999976568 0.4235466536394723 0.45481191988275516
0.06659292899985303 0.4176844162188569 0.45481191988275516
0.0667933519998769 0.4206155349291647 0.45481191988275516
0.06699323700013338 0.4157303370786516 0.45481191988275516
0.06719682600032684 0.4137762579384465 0.4538348803126526
0.06739719300003344 0.4137762579384465 0.4538348803126526
0.06759839299957093 0.4157303370786516 0.45676599902296044
0.06780162999984896 0.41182217879824123 0.45481191988275516
0.0680026079999152 0.40889106008793363 0.4538348803126526
0.06820567799968558 0.40889106008793363 0.457743038593063
0.0684073599995827 0.4059599413776258 0.46458231558378116
0.06861009699969145 0.4059599413776258 0.45969711773326827
0.06881025999973645 0.4040058622374205 0.45676599902296044
0.0690110530003949 0.40693698094772834 0.46262823644357587
0.06921288299963635 0.4040058622374205 0.45969711773326827
0.06941302700033702 0.403028822667318 0.4587200781631655
0.06961368999964179 0.4049829018075233 0.4557889594528579
0.06981476100008877 0.4010747435271129 0.4538348803126526
0.0700317199998608 0.39912066438690763 0.4509037616023448
0.07023384599960991 0.39912066438690763 0.4479726428920372
0.070442193999952 0.40009770395701016 0.44992672203224227
0.07064354199974332 0.3961895456765998 0.4479726428920372
0.07084201999987272 0.3981436248168051 0.44894968246213973
0.07104005400015012 0.39912066438690763 0.4509037616023448
0.07123742099975061 0.40009770395701016 0.4479726428920372
0.0714351019996684 0.39912066438690763 0.44894968246213973
0.07163237700024183 0.40205178309721545 0.4479726428920372
0.07183024400001159 0.40205178309721545 0.44699560332193444
0.07202710999990813 0.4059599413776258 0.4479726428920372
0.07222442199963552 0.41182217879824123 0.4479726428920372
0.07242134399984934 0.4137762579384465 0.4509037616023448
0.07261867400029587 0.4206155349291647 0.4479726428920372
0.07281589299964253 0.4264777723497801 0.44699560332193444
0.07301300000017363 0.4352711284807034 0.4460185637518319
0.0732096450001336 0.441133365901319 0.4450415241817294
0.07340764099990338 0.4450415241817294 0.44699560332193444
0.07360587899984239 0.4479726428920372 0.45188080117244755
0.07380694899984519 0.4557889594528579 0.44992672203224227
0.07402789000025223 0.45481191988275516 0.457743038593063
0.07422820099964156 0.45676599902296044 0.457743038593063
0.07442649400036316 0.45969711773326827 0.4606741573033708
0.0746228420002808 0.4655593551538837 0.4636052760136786
0.07481913500032533 0.4655593551538837 0.46262823644357587
0.07501616799982003 0.467513434294089 0.4655593551538837
0.07521347999954742 0.4684904738641915 0.4636052760136786
0.07541097600005742 0.4665363947239862 0.45969711773326827
0.07560919499974261 0.46946751343429405 0.4538348803126526
0.07581654299974616 0.47142159257449934 0.4460185637518319
0.07601542900010827 0.47142159257449934 0.4401563263312165
0.07621249899966642 0.47239863214460187 0.4382022471910112
0.07640995899964764 0.4753297508549097 0.4382022471910112
0.07660902899988287 0.4753297508549097 0.4333170493404983
0.07680632200026594 0.4753297508549097 0.4352711284807034
0.07700396699965495 0.47435271128480694 0.4382022471910112
0.07720246299959399 0.47435271128480694 0.44211040547142155
0.07740007099982904 0.4753297508549097 0.4430874450415241
0.07759649299987359 0.47239863214460187 0.4430874450415241
0.07779469300021447 0.4753297508549097 0.4450415241817294
0.07799337500000547 0.47923790913532005 0.44406448461162684
0.07819364900024084 0.4802149487054226 0.44406448461162684
0.07839060900005279 0.48216902784562765 0.4450415241817294
0.07858723499975895 0.4851001465559355 0.44699560332193444
0.07878413900016312 0.4851001465559355 0.44992672203224227
0.078981745999954 0.48216902784562765 0.44992672203224227
0.07917881699995633 0.4831460674157304 0.4528578407425501
0.07937716499964154 0.4851001465559355 0.4538348803126526
0.07957495800019387 0.48705422569614076 0.4509037616023448
0.07977191699956165 0.48900830483634583 0.4509037616023448
0.08000652400005492 0.48705422569614076 0.4509037616023448
0.08020533600029012 0.4880312652662433 0.44894968246213973
0.08066586400036613 0.48900830483634583 0.44992672203224227
0.08099145100004534 0.4938935026868587 0.4509037616023448
0.0812038180001764 0.4929164631167562 0.4509037616023448
0.0814019070003269 0.4948705422569615 0.44992672203224227
0.08160093999958917 0.49682462139716654 0.4509037616023448
0.08179976999963401 0.5007327796775769 0.45188080117244755
0.08202772900040145 0.5007327796775769 0.4509037616023448
0.0822274109996215 0.495847581827064 0.4509037616023448
0.08242503699966619 0.48900830483634583 0.45188080117244755
0.0826226819999647 0.4802149487054226 0.45188080117244755
0.08281999300015741 0.47923790913532005 0.44894968246213973
0.08301680400018085 0.47239863214460187 0.4479726428920372
0.08321391200024664 0.4684904738641915 0.44992672203224227
0.08341003799978353 0.4655593551538837 0.4460185637518319
0.08360597899991262 0.4606741573033708 0.4479726428920372
0.08380175299953407 0.4538348803126526 0.4450415241817294
0.08399834200008627 0.45188080117244755 0.4430874450415241
0.08419485699960205 0.44699560332193444 0.44406448461162684
0.08439244599958329 0.441133365901319 0.44211040547142155
0.08459014700019907 0.44211040547142155 0.441133365901319
0.08478771699992649 0.43917928676111373 0.441133365901319
0.08498628799952712 0.441133365901319 0.4401563263312165
0.08518276599988894 0.44211040547142155 0.4401563263312165
0.08537920700018731 0.44211040547142155 0.441133365901319
0.08557903600012651 0.441133365901319 0.44406448461162684
0.08577542199964228 0.44211040547142155 0.4479726428920372
0.08597595500032185 0.44211040547142155 0.4479726428920372
0.08617810000032478 0.44211040547142155 0.45188080117244755
0.08637861500028521 0.43917928676111373 0.45188080117244755
0.0866953309996461 0.44211040547142155 0.45481191988275516
0.08691075400020054 0.441133365901319 0.4528578407425501
0.08711425000001327 0.4460185637518319 0.4538348803126526
0.08731543199974112 0.4460185637518319 0.4557889594528579
0.08751489099995524 0.4460185637518319 0.4528578407425501
0.08772529500038218 0.4479726428920372 0.4528578407425501
0.08792290200017305 0.4430874450415241 0.45188080117244755
0.08812045400009083 0.4401563263312165 0.4509037616023448
0.0883168950003892 0.431362970200293 0.44894968246213973
0.08851613200022257 0.42452369320957506 0.44992672203224227
0.08871518399973866 0.4186614557889594 0.44894968246213973
0.0889161619998049 0.41182217879824123 0.44699560332193444
0.08911413999976503 0.4079140205178309 0.44699560332193444
0.08931015500002104 0.403028822667318 0.44894968246213973
0.08950755899968499 0.3981436248168051 0.4538348803126526
0.08972600000015518 0.39423546653639474 0.4528578407425501
0.09021062099964183 0.38935026868588185 0.45188080117244755
0.09041583900034311 0.38935026868588185 0.4528578407425501
0.09061333600038779 0.3883732291157791 0.45481191988275516
0.09081079499992484 0.3854421104054715 0.45481191988275516
0.091007570000329 0.3883732291157791 0.45188080117244755
0.09120423300009861 0.38739618954567656 0.4538348803126526
0.091401988999678 0.3903273082559844 0.44992672203224227
0.09160374400016735 0.3903273082559844 0.457743038593063
0.09180009299961966 0.38935026868588185 0.4509037616023448
0.09199825599989708 0.3883732291157791 0.4538348803126526
0.09219614100038598 0.3913043478260869 0.4509037616023448
0.09239350799998647 0.3952125061064973 0.45188080117244755
0.09259070799998881 0.403028822667318 0.4538348803126526
0.09278672300024482 0.40986809965803617 0.4528578407425501
0.09298353499980294 0.41963849535906195 0.45188080117244755
0.0931808639998053 0.4264777723497801 0.4538348803126526
0.09337767600027291 0.4323400097703958 0.4509037616023448
0.09357500599980995 0.441133365901319 0.4509037616023448
0.09377418700023554 0.4460185637518319 0.4509037616023448
0.09398305400009122 0.4557889594528579 0.4528578407425501
0.09418388399990363 0.4587200781631655 0.4509037616023448
0.09438175099967339 0.457743038593063 0.4509037616023448
0.0945784690002256 0.46262823644357587 0.4479726428920372
0.09477542900003755 0.4655593551538837 0.44211040547142155
0.09497133300010319 0.46946751343429405 0.4401563263312165
0.09516801399968244 0.4636052760136786 0.4382022471910112
0.09536515899981168 0.4665363947239862 0.43624816805080613
0.09556343300027947 0.467513434294089 0.43722520762090866
0.09576068899968959 0.46946751343429405 0.43917928676111373
0.0959572969995861 0.467513434294089 0.4430874450415241
0.09615338599996903 0.4704445530043966 0.4509037616023448
0.0963521599996966 0.47142159257449934 0.45188080117244755
0.09654928599957202 0.4753297508549097 0.4528578407425501
0.09674630100016657 0.47435271128480694 0.45969711773326827
0.0969886860002589 0.47923790913532005 0.45676599902296044
0.09718868199979624 0.47728382999511476 0.45676599902296044
0.0973867530001371 0.47923790913532005 0.4587200781631655
0.0975833969996529 0.4802149487054226 0.45676599902296044
0.09777939400009927 0.48412310698583294 0.4538348803126526
0.09797668699957285 0.48705422569614076 0.4528578407425501
0.09817381300035777 0.48900830483634583 0.4538348803126526
0.09837006900033884 0.4929164631167562 0.4528578407425501
0.0985667499999181 0.4938935026868587 0.45188080117244755
0.09876435800015315 0.4929164631167562 0.45188080117244755
0.0989604659998804 0.4909623839765511 0.4479726428920372
0.09915640599956532 0.48900830483634583 0.4479726428920372
0.09935273599967331 0.48900830483634583 0.44894968246213973
0.09954993700011983 0.48412310698583294 0.44992672203224227
0.09974758099997416 0.4851001465559355 0.44894968246213973
0.09994428099980723 0.486077186126038 0.4509037616023448
0.10014098200008448 0.48412310698583294 0.45188080117244755
0.10033781099991756 0.4831460674157304 0.4538348803126526
0.10054864100038685 0.4831460674157304 0.4528578407425501
0.10074510100002954 0.48412310698583294 0.45481191988275516
0.10094165299960878 0.48412310698583294 0.4538348803126526
0.10113763099980133 0.4831460674157304 0.4557889594528579
0.10133312699963426 0.48705422569614076 0.4587200781631655
0.10153147500022897 0.48216902784562765 0.457743038593063
0.10173113899963937 0.4831460674157304 0.4606741573033708
0.10196254200036492 0.4831460674157304 0.45969711773326827
0.10216222300005029 0.4802149487054226 0.45676599902296044
0.1023585720004121 0.4753297508549097 0.4557889594528579
0.10256293899965385 0.467513434294089 0.4538348803126526
0.10276191699995252 0.46262823644357587 0.45188080117244755
0.10295948699967994 0.457743038593063 0.44894968246213973
0.1031561870004225 0.45188080117244755 0.4538348803126526
0.10335320200010756 0.44699560332193444 0.4430874450415241
0.10355095799968694 0.44211040547142155 0.441133365901319
0.10374897299971053 0.4382022471910112 0.43917928676111373
0.10394724700017832 0.43722520762090866 0.4401563263312165
0.10414520700032881 0.4323400097703958 0.441133365901319
0.10434635099954903 0.4333170493404983 0.441133365901319
0.10455751399967994 0.4352711284807034 0.44406448461162684
0.1047958799999833 0.43917928676111373 0.4460185637518319
0.10503528400022333 0.44406448461162684 0.4479726428920372
0.10525313200014352 0.44992672203224227 0.4509037616023448
0.10546977600006358 0.4538348803126526 0.4479726428920372
0.10567910499958089 0.45676599902296044 0.44894968246213973
0.10588980499960599 0.45969711773326827 0.44992672203224227
0.10615759699976479 0.46262823644357587 0.4509037616023448
0.10639753699979337 0.46262823644357587 0.4528578407425501
0.10667927299982694 0.4636052760136786 0.45188080117244755
0.10696471200026281 0.4587200781631655 0.4538348803126526
0.10726641099972767 0.45481191988275516 0.4528578407425501
0.10754131300018344 0.4450415241817294 0.4528578407425501
0.10781686399968748 0.4382022471910112 0.45481191988275516
0.10806965600022522 0.4284318514899854 0.45481191988275516
0.10828880000008212 0.42256961406936977 0.4538348803126526
0.10850518499955797 0.4176844162188569 0.4538348803126526
0.10872510700028215 0.40986809965803617 0.4509037616023448
0.1089446220003083 0.4059599413776258 0.4450415241817294
0.10915621000003739 0.40205178309721545 0.44211040547142155
0.10938665100002254 0.4010747435271129 0.4401563263312165
0.10959248000017396 0.40009770395701016 0.4352711284807034
0.10979016199962643 0.39912066438690763 0.4352711284807034
0.11018011800024397 0.3952125061064973 0.4401563263312165
0.11042224300035741 0.39423546653639474 0.4460185637518319
0.11062851800033968 0.3932584269662922 0.44894968246213973
0.11082662500029983 0.3903273082559844 0.4479726428920372
0.11102965899954143 0.3913043478260869 0.4460185637518319
0.1112613400000555 0.38935026868588185 0.441133365901319
0.11146470600033354 0.39228138739618945 0.43722520762090866
0.11166429599961702 0.3903273082559844 0.43624816805080613
0.11186245899989444 0.39423546653639474 0.43624816805080613
0.11205932600023516 0.39912066438690763 0.4382022471910112
0.11225622900019516 0.40009770395701016 0.44211040547142155
0.11245546699956321 0.4040058622374205 0.4450415241817294
0.1126522960003058 0.4137762579384465 0.44992672203224227
0.11285003400007554 0.42256961406936977 0.4557889594528579
0.11304715999995096 0.4284318514899854 0.45481191988275516
0.1132456010000169 0.4352711284807034 0.457743038593063
0.11344298600033653 0.4382022471910112 0.45969711773326827
0.11364029699961975 0.44211040547142155 0.46262823644357587
0.11383801600004517 0.441133365901319 0.46165119687347334
0.11405067899977439 0.4460185637518319 0.4636052760136786
0.11424721299954399 0.4460185637518319 0.46262823644357587
0.11444343099992693 0.44699560332193444 0.4606741573033708
0.11463990900028875 0.44992672203224227 0.45969711773326827
0.1148364059999949 0.4509037616023448 0.4587200781631655
0.11503482799980702 0.4557889594528579 0.4557889594528579
0.11523097299959772 0.45188080117244755 0.4557889594528579
0.11542745099995955 0.45188080117244755 0.4665363947239862
0.11562478100040607 0.4509037616023448 0.45481191988275516
0.11582098100006988 0.45188080117244755 0.45676599902296044
0.11601727400011441 0.45188080117244755 0.4557889594528579
0.11621384400041279 0.4538348803126526 0.4557889594528579
0.11641050799971708 0.45481191988275516 0.4509037616023448
0.11661065200041776 0.4587200781631655 0.44992672203224227
0.11680748199978552 0.46262823644357587 0.45188080117244755
0.11700394099989353 0.4665363947239862 0.44699560332193444
0.11720054899979004 0.4704445530043966 0.44894968246213973
0.11739898999985598 0.4782608695652173 0.4479726428920372
0.11759730100038723 0.4811919882755251 0.44894968246213973
0.11779485300030501 0.4851001465559355 0.44992672203224227
0.11803320099988923 0.4909623839765511 0.4509037616023448
0.11823499399997672 0.495847581827064 0.4538348803126526
0.11843117500029621 0.5026868588177822 0.45676599902296044
0.11862832000042545 0.5085490962383976 0.45969711773326827
0.11882485400019505 0.512457254518808 0.4636052760136786
0.11902121999992232 0.5192965315095261 0.4655593551538837
0.11921788400013611 0.5144113336590133 0.4655593551538837
0.1194146580000961 0.5173424523693209 0.4655593551538837
0.11961169099959079 0.5173424523693209 0.4655593551538837
0.11980898399997386 0.5173424523693209 0.45969711773326827
0.12000525900020875 0.5212506106497312 0.457743038593063
0.12020203300016874 0.5192965315095261 0.44699560332193444
0.12039836300027673 0.522227650219834 0.4460185637518319
0.12059880400011025 0.5212506106497312 0.44406448461162684
0.12079602199992223 0.5202735710796287 0.4401563263312165
0.1211040910002339 0.5144113336590133 0.44406448461162684
0.1213070499998139 0.512457254518808 0.4450415241817294
0.1215038430000277 0.5075720566682951 0.44894968246213973
0.1217003769997973 0.5036638983878847 0.44894968246213973
0.12189713200041297 0.5007327796775769 0.44894968246213973
0.12211716500041803 0.495847581827064 0.4509037616023448
0.12231458800033579 0.4880312652662433 0.45188080117244755
0.12251243599985173 0.48216902784562765 0.4509037616023448
0.12271000700002332 0.4733756717147044 0.4557889594528579
0.12290742900040641 0.4655593551538837 0.45188080117244755
0.12310818500009191 0.4587200781631655 0.4538348803126526
0.12330621799992514 0.45481191988275516 0.4538348803126526
0.12350423299994873 0.44894968246213973 0.4557889594528579
0.12370606300009968 0.44992672203224227 0.4538348803126526
0.12390607799989084 0.4450415241817294 0.4557889594528579
0.12410235199968156 0.4460185637518319 0.4538348803126526
0.12429901599989535 0.4450415241817294 0.44894968246213973
0.12449593800010916 0.441133365901319 0.44894968246213973
0.12469302699992113 0.441133365901319 0.4450415241817294
0.12489065299996582 0.44406448461162684 0.44406448461162684
0.12508872400030668 0.4450415241817294 0.4430874450415241
0.1252855909997379 0.44699560332193444 0.4460185637518319
0.12548525399961363 0.44699560332193444 0.44992672203224227
0.12568249099967943 0.4509037616023448 0.4460185637518319
0.12587980199987214 0.45188080117244755 0.44894968246213973
0.1260805949996211 0.4509037616023448 0.4509037616023448
0.12627768400034256 0.44992672203224227 0.4509037616023448
0.12647451399971033 0.44699560332193444 0.44992672203224227
0.12667158499971265 0.4430874450415241 0.44992672203224227
0.1268682660002014 0.4430874450415241 0.4479726428920372
0.12706463300037285 0.43917928676111373 0.4479726428920372
0.1272611849999521 0.4352711284807034 0.4479726428920372
0.1274687739996807 0.431362970200293 0.45188080117244755
0.1276902700001301 0.4284318514899854 0.457743038593063
0.12794358100018144 0.42452369320957506 0.457743038593063
0.12819281700012652 0.42159257449926724 0.46165119687347334
0.12845810799990431 0.40986809965803617 0.4587200781631655
0.12871458500012523 0.4049829018075233 0.46165119687347334
0.1289757289996487 0.4010747435271129 0.45969711773326827
0.12926081600016914 0.39423546653639474 0.45969711773326827
0.12952842300001066 0.3932584269662922 0.4557889594528579
0.12978312199993525 0.38935026868588185 0.4538348803126526
0.13024646600024425 0.38739618954567656 0.44406448461162684
0.13066225399961695 0.38641914997557403 0.43624816805080613
0.1311175060000096 0.3854421104054715 0.4255007327796776
0.13227713299966126 0.3903273082559844 0.4352711284807034
0.13277830900005938 0.41182217879824123 0.4430874450415241
0.1331452470003569 0.4284318514899854 0.4450415241817294
0.13343692699982057 0.43917928676111373 0.4479726428920372
0.13371569999981148 0.4460185637518319 0.45481191988275516
0.13401621299999533 0.45676599902296044 0.457743038593063
0.13426957899991976 0.45969711773326827 0.45481191988275516
0.13449720500011608 0.4655593551538837 0.45481191988275516
0.134697442000288 0.4684904738641915 0.45676599902296044
0.13489734599988878 0.47142159257449934 0.457743038593063
0.1350947869996162 0.47142159257449934 0.45969711773326827
0.13529272800042236 0.46458231558378116 0.4587200781631655
0.13549053899987484 0.467513434294089 0.4636052760136786
0.13568772100006754 0.4665363947239862 0.46165119687347334
0.13588501399954112 0.46458231558378116 0.45969711773326827
0.1360824359999242 0.4636052760136786 0.46165119687347334
0.13627967299999 0.4684904738641915 0.4587200781631655
0.13647846599997138 0.467513434294089 0.45969711773326827
0.13667592500041792 0.4684904738641915 0.45969711773326827
0.13687373700031458 0.47142159257449934 0.4606741573033708
0.13706986299985147 0.47142159257449934 0.4587200781631655
0.13726702599979035 0.4704445530043966 0.4587200781631655
0.13746396700025798 0.47239863214460187 0.457743038593063
0.1376825560000725 0.4782608695652173 0.4538348803126526
0.1378812189996097 0.4763067904250122 0.45676599902296044
0.13808104899999307 0.4851001465559355 0.4509037616023448
0.1382788230002916 0.48705422569614076 0.4479726428920372
0.1384760789997017 0.48412310698583294 0.4450415241817294
0.1386735200003386 0.4851001465559355 0.441133365901319
0.13887240500025655 0.48900830483634583 0.4430874450415241
0.13907166100034374 0.4909623839765511 0.44211040547142155
0.1392695829999866 0.4929164631167562 0.44211040547142155
0.13946691299952363 0.4938935026868587 0.4450415241817294
0.13966442800028744 0.49193942354665365 0.4450415241817294
0.1398612390003109 0.4938935026868587 0.4460185637518319
0.14005858800010174 0.49193942354665365 0.4479726428920372
0.14025515800040012 0.4929164631167562 0.44699560332193444
0.1404518769995775 0.48998534440644836 0.44406448461162684
0.14065322500027833 0.48705422569614076 0.44699560332193444
0.14086335100000724 0.4831460674157304 0.4450415241817294
0.14108073599982163 0.4802149487054226 0.44406448461162684
0.14143784099996992 0.47435271128480694 0.44699560332193444
0.14165933700041933 0.46946751343429405 0.44699560332193444
0.14185918499970285 0.4684904738641915 0.44699560332193444
0.14208895899992058 0.4684904738641915 0.4460185637518319
0.1423092329996507 0.4655593551538837 0.4460185637518319
0.14253274699967733 0.45969711773326827 0.4450415241817294
0.1427647620002972 0.4557889594528579 0.4460185637518319
0.14298125799996342 0.4509037616023448 0.44211040547142155
0.14320629099984217 0.44992672203224227 0.4479726428920372
0.14344493499993405 0.44992672203224227 0.4460185637518319
0.143670227000257 0.44699560332193444 0.4450415241817294
0.1438830750003035 0.44699560332193444 0.4479726428920372
0.144103016000372 0.4479726428920372 0.4509037616023448
0.14432271599980595 0.4479726428920372 0.4528578407425501
0.1445332490002329 0.44894968246213973 0.457743038593063
0.144747338000343 0.4509037616023448 0.45481191988275516
0.14495800100030465 0.4538348803126526 0.4557889594528579
0.14518657099961274 0.46165119687347334 0.44894968246213973
0.14541565899980924 0.45969711773326827 0.44894968246213973
0.14562865500010957 0.4606741573033708 0.441133365901319
0.14583628099990165 0.4606741573033708 0.4401563263312165
0.14608899900031247 0.4557889594528579 0.4382022471910112
0.1462957550002102 0.457743038593063 0.441133365901319
0.14649838100012857 0.45481191988275516 0.4430874450415241
0.14670152500002587 0.4528578407425501 0.44699560332193444
0.14690357699964807 0.44992672203224227 0.4509037616023448
0.14711122199969395 0.44992672203224227 0.4528578407425501
0.14731255100014096 0.4460185637518319 0.4557889594528579
0.14751713999976346 0.4401563263312165 0.45676599902296044
0.1477350249997471 0.43429408891060084 0.4606741573033708
0.1479411700001947 0.4255007327796776 0.46165119687347334
0.14814320299956307 0.4206155349291647 0.46165119687347334
0.1483493659998203 0.4186614557889594 0.46262823644357587
0.14855043700026727 0.40986809965803617 0.45969711773326827
0.14875613700041868 0.40889106008793363 0.457743038593063
0.14895731900014653 0.403028822667318 0.46165119687347334
0.14915975900021294 0.40205178309721545 0.4606741573033708
0.14936123699953896 0.3952125061064973 0.4606741573033708
0.1495621599997321 0.3913043478260869 0.45969711773326827
0.14976308200039057 0.3883732291157791 0.4606741573033708
0.14996817100018234 0.3834880312652662 0.46165119687347334
0.15017101899957197 0.38153395212506114 0.46165119687347334
0.15037221900001896 0.38251099169516367 0.46165119687347334
0.15058527099972707 0.38446507083536874 0.4606741573033708
0.15078447100040648 0.3854421104054715 0.45676599902296044
0.15098226400004933 0.38251099169516367 0.45676599902296044
0.15118042700032674 0.3834880312652662 0.45676599902296044
0.1513777009995465 0.3834880312652662 0.44992672203224227
0.15157521600031032 0.3854421104054715 0.44699560332193444
0.15177436100020714 0.3854421104054715 0.4460185637518319
0.15197211699978652 0.38935026868588185 0.4460185637518319
0.15217020599993702 0.3913043478260869 0.4430874450415241
0.1523696470003415 0.39912066438690763 0.44406448461162684
0.15256738399966707 0.4049829018075233 0.44406448461162684
0.15276538099988102 0.41475329750854906 0.4460185637518319
0.15323240900033852 0.44211040547142155 0.4479726428920372
0.15349579299981997 0.4587200781631655 0.44894968246213973
0.15369845700024598 0.46946751343429405 0.44992672203224227
0.1538985639999737 0.47435271128480694 0.45188080117244755
0.15413761499985412 0.4763067904250122 0.45188080117244755
0.15433672299968748 0.47923790913532005 0.4509037616023448
0.15453373800028203 0.4802149487054226 0.44992672203224227
0.15473075299996708 0.48216902784562765 0.44992672203224227
0.15492784199977905 0.4851001465559355 0.4479726428920372
0.15513320900026883 0.4831460674157304 0.4460185637518319
0.1553322419995311 0.48412310698583294 0.44699560332193444
0.15552870200008329 0.4782608695652173 0.4460185637518319
0.15572651299953577 0.4763067904250122 0.44699560332193444
0.15592362099960155 0.47239863214460187 0.44699560332193444
0.15611995099970954 0.47142159257449934 0.44992672203224227
0.1563166320001983 0.47142159257449934 0.45676599902296044
0.1565157579998413 0.4733756717147044 0.45481191988275516
0.15671566200035159 0.4753297508549097 0.457743038593063
0.15691389899984642 0.4802149487054226 0.45969711773326827
0.15711235900016618 0.48216902784562765 0.45969711773326827
0.15731118900021102 0.486077186126038 0.46165119687347334
0.1575102959996002 0.48998534440644836 0.45969711773326827
0.15770751499985636 0.4978016609672691 0.4606741573033708
0.15790417799962597 0.5036638983878847 0.4606741573033708
0.1581162479997147 0.5065950170981925 0.4606741573033708
0.15831322600024578 0.5075720566682951 0.4587200781631655
0.15851014899999427 0.5114802149487054 0.4587200781631655
0.15870621900012338 0.5017098192476794 0.4587200781631655
0.15890312299961806 0.49682462139716654 0.4557889594528579
0.15910134200021275 0.4909623839765511 0.45481191988275516
0.15929868999955943 0.48412310698583294 0.45188080117244755
0.1594963170000483 0.4782608695652173 0.44992672203224227
0.15969229500024085 0.47728382999511476 0.44992672203224227
0.15988943899992591 0.4733756717147044 0.44406448461162684
0.16011486099978356 0.467513434294089 0.44406448461162684
0.16031593200023053 0.467513434294089 0.43624816805080613
0.16051331699964067 0.46946751343429405 0.4333170493404983
0.16071133199966425 0.46946751343429405 0.42940889106008795
0.1609119209997516 0.4684904738641915 0.4333170493404983
0.16110838100030378 0.47239863214460187 0.42940889106008795
0.16130565499952354 0.47435271128480694 0.4323400097703958
0.1615029289996528 0.4782608695652173 0.43429408891060084
0.16170038899963401 0.4811919882755251 0.43624816805080613
0.16189814399967872 0.48412310698583294 0.43917928676111373
0.16210756599957676 0.486077186126038 0.4430874450415241
0.16230400699987513 0.48705422569614076 0.4479726428920372
0.16250263399979303 0.4811919882755251 0.44894968246213973
0.16269999999985885 0.47923790913532005 0.4557889594528579
0.1628971640002419 0.4753297508549097 0.45676599902296044
0.1630937529998846 0.47142159257449934 0.45676599902296044
0.16329030500037334 0.467513434294089 0.45676599902296044
0.16348741199999495 0.4636052760136786 0.45481191988275516
0.1636848349999127 0.46262823644357587 0.4538348803126526
0.16388201599966123 0.4606741573033708 0.4509037616023448
0.16407871699993848 0.46262823644357587 0.4479726428920372
0.164275768999687 0.4587200781631655 0.4450415241817294
0.16447182100000646 0.45969711773326827 0.4430874450415241
0.16466815100011445 0.45676599902296044 0.4401563263312165
0.16486529499979952 0.45676599902296044 0.4382022471910112
0.1650615509997806 0.45676599902296044 0.4333170493404983
0.16525784399982513 0.4606741573033708 0.4333170493404983
0.16545476600003894 0.4704445530043966 0.4333170493404983
0.1656515220001893 0.4636052760136786 0.431362970200293
0.16584866700031853 0.46262823644357587 0.4352711284807034
0.1660502369995811 0.4606741573033708 0.4382022471910112
0.16624691899960453 0.45676599902296044 0.43917928676111373
0.16644443400036835 0.4528578407425501 0.4430874450415241
0.16664044899971486 0.44894968246213973 0.4430874450415241
0.1668367419997594 0.44406448461162684 0.4430874450415241
0.1670738490001895 0.4430874450415241 0.44894968246213973
0.16727377099959995 0.43722520762090866 0.44992672203224227
0.16747185999975045 0.4352711284807034 0.4538348803126526
0.16766883800028154 0.4323400097703958 0.45676599902296044
0.16786703799971292 0.4284318514899854 0.457743038593063
0.16806436800015945 0.42159257449926724 0.4636052760136786
0.16826399399997172 0.4176844162188569 0.467513434294089
0.16846256499957235 0.41182217879824123 0.46946751343429405
0.16865961700023036 0.40693698094772834 0.467513434294089
0.16885755800012703 0.4040058622374205 0.46946751343429405
0.16905514700010826 0.4010747435271129 0.4684904738641915
0.1692519580001317 0.39716658524670256 0.467513434294089
0.16944871400028205 0.39716658524670256 0.46262823644357587
0.16964626600019983 0.39716658524670256 0.4587200781631655
0.169842891999906 0.40009770395701016 0.45969711773326827
0.17033664300015516 0.3913043478260869 0.45481191988275516
0.17055484199954662 0.3903273082559844 0.4557889594528579
0.17075365399978182 0.38935026868588185 0.45676599902296044
0.17095129799963615 0.3883732291157791 0.457743038593063
0.17114814700016723 0.38739618954567656 0.45676599902296044
0.1713458840004023 0.3854421104054715 0.45481191988275516
0.1715422879997277 0.38641914997557403 0.45481191988275516
0.17173911800000496 0.38739618954567656 0.4557889594528579
0.17193613299969002 0.3854421104054715 0.4528578407425501
0.1721331660000942 0.38641914997557403 0.45188080117244755
0.1723301439997158 0.3883732291157791 0.45188080117244755
0.17252726999959123 0.39228138739618945 0.44894968246213973
0.17272810000031313 0.40205178309721545 0.44992672203224227
0.1729268740000407 0.40986809965803617 0.44992672203224227
0.17312562999995862 0.41963849535906195 0.44894968246213973
0.17332333000013023 0.4284318514899854 0.4509037616023448
0.17352065999966726 0.4382022471910112 0.44894968246213973
0.1737205819999872 0.4430874450415241 0.44699560332193444
0.1739556709999306 0.45188080117244755 0.4479726428920372
0.17416168599993398 0.457743038593063 0.4479726428920372
0.1743604419998519 0.46262823644357587 0.4479726428920372
0.17455986400000256 0.4655593551538837 0.44894968246213973
0.17475806400034344 0.47239863214460187 0.4460185637518319
0.17495557900019776 0.4733756717147044 0.4479726428920372
0.17515276100039046 0.47239863214460187 0.44894968246213973
0.17534883099961007 0.4684904738641915 0.4509037616023448
0.17554592000033153 0.4704445530043966 0.45188080117244755
0.17574273199988966 0.47435271128480694 0.45188080117244755
0.17593911699987075 0.4733756717147044 0.4538348803126526
0.17613572499976726 0.4733756717147044 0.4557889594528579
0.17633277700042527 0.4684904738641915 0.45481191988275516
0.17652927299968724 0.47142159257449934 0.4509037616023448
0.17672728799971082 0.47239863214460187 0.45481191988275516
0.17692461800015735 0.47435271128480694 0.4528578407425501
0.17712050400041335 0.4753297508549097 0.4538348803126526
0.1773179820002042 0.4782608695652173 0.4538348803126526
0.17751460799991037 0.47923790913532005 0.45481191988275516
0.17771567799991317 0.4782608695652173 0.4538348803126526
0.17792252599974745 0.47923790913532005 0.4528578407425501
0.17812257799960207 0.486077186126038 0.4509037616023448
0.17832061199987947 0.4831460674157304 0.4509037616023448
0.17851862699990306 0.486077186126038 0.44992672203224227
0.17871490099969378 0.48998534440644836 0.44992672203224227
0.1789115640003729 0.48998534440644836 0.4460185637518319
0.17910822799967718 0.49193942354665365 0.4460185637518319
0.17930472399984865 0.4909623839765511 0.44406448461162684
0.17950172099972406 0.4909623839765511 0.4460185637518319
0.1797000130000015 0.4938935026868587 0.44699560332193444
0.17989686199962307 0.4938935026868587 0.44406448461162684
0.18009358000017528 0.4978016609672691 0.4460185637518319
0.18029042899979686 0.4929164631167562 0.4479726428920372
0.18048694400022214 0.49193942354665365 0.44894968246213973
0.18068477399992844 0.4929164631167562 0.44894968246213973
0.1808816780003326 0.4938935026868587 0.44699560332193444
0.1812192639999921 0.4909623839765511 0.44406448461162684
0.18143220500041934 0.48998534440644836 0.44211040547142155
0.1816336459996819 0.4929164631167562 0.441133365901319
0.1818334749996211 0.4978016609672691 0.441133365901319
0.18205167500036623 0.4909623839765511 0.4401563263312165
0.182249227000284 0.4880312652662433 0.43917928676111373
0.18244696500005375 0.4831460674157304 0.44406448461162684
0.18264466500022536 0.4763067904250122 0.44699560332193444
0.18284197600041807 0.4704445530043966 0.4479726428920372
0.18304295399957482 0.4636052760136786 0.4509037616023448
0.18324769100036065 0.4587200781631655 0.45481191988275516
0.18344539099962276 0.45481191988275516 0.4538348803126526
0.18364249899968854 0.45188080117244755 0.4557889594528579
0.1838395140002831 0.4460185637518319 0.45676599902296044
0.18403636200037 0.4460185637518319 0.45481191988275516
0.1842326369996954 0.4450415241817294 0.4538348803126526
0.18442859599963413 0.44406448461162684 0.45188080117244755
0.18462499999986903 0.441133365901319 0.4509037616023448
0.18482236700037902 0.4401563263312165 0.44894968246213973
0.18501854900023318 0.4401563263312165 0.44699560332193444
0.18521519299974898 0.4430874450415241 0.44699560332193444
0.18541307899977255 0.44406448461162684 0.4479726428920372
0.18561179700009234 0.4450415241817294 0.44992672203224227
0.18580890500015812 0.44406448461162684 0.4479726428920372
0.1860201600002256 0.44699560332193444 0.44992672203224227
0.18621812000037608 0.44406448461162684 0.45188080117244755
0.18641565300004004 0.4460185637518319 0.4528578407425501
0.18661253899972507 0.4430874450415241 0.4509037616023448
0.18680951700025616 0.4430874450415241 0.45481191988275516
0.1870065129996874 0.4382022471910112 0.457743038593063
0.18720302800011268 0.4382022471910112 0.4606741573033708
0.18739891400036868 0.4352711284807034 0.4636052760136786
0.18759654000041337 0.4333170493404983 0.467513434294089
0.18786799800000153 0.4284318514899854 0.4655593551538837
0.18808577199979482 0.42452369320957506 0.4606741573033708
0.18836919299974397 0.4186614557889594 0.4587200781631655
0.18859948499994061 0.41475329750854906 0.45481191988275516
0.18883324000034918 0.41182217879824123 0.457743038593063
0.18905257000005804 0.4059599413776258 0.457743038593063
0.1892676030001894 0.40205178309721545 0.4538348803126526
0.18948880300013116 0.40009770395701016 0.4509037616023448
0.18973563100007595 0.3952125061064973 0.4528578407425501
0.19002436699975078 0.3961895456765998 0.4479726428920372
0.19039826799962611 0.3883732291157791 0.45188080117244755
0.19070170699978917 0.38739618954567656 0.4509037616023448
0.19096414700015885 0.3834880312652662 0.45481191988275516
0.1912399570001071 0.38153395212506114 0.45188080117244755
0.1914739149997331 0.37957987298485585 0.45188080117244755
0.19175272499978746 0.37957987298485585 0.4509037616023448
0.19198827699983667 0.38251099169516367 0.4509037616023448
0.19218782899952203 0.38446507083536874 0.4460185637518319
0.19238528799996857 0.38739618954567656 0.4509037616023448
0.19258511800035194 0.39423546653639474 0.4460185637518319
0.19278246599969862 0.4040058622374205 0.4430874450415241
0.19298351799989177 0.41475329750854906 0.43917928676111373
0.19318321799983096 0.4255007327796776 0.4401563263312165
0.19338177000008727 0.43722520762090866 0.44211040547142155
0.19358174799981498 0.43917928676111373 0.4430874450415241
0.19377826300024026 0.4479726428920372 0.4430874450415241
0.1940246849999312 0.44894968246213973 0.4460185637518319
0.19423769999957585 0.4538348803126526 0.44992672203224227
0.19444345499960036 0.45481191988275516 0.45481191988275516
0.19464426699960313 0.45969711773326827 0.457743038593063
0.19484937400011404 0.45969711773326827 0.457743038593063
0.19505074100015918 0.46165119687347334 0.46165119687347334
0.1952539779995277 0.46165119687347334 0.4606741573033708
0.19545899300010205 0.45969711773326827 0.46262823644357587
0.19565980399966065 0.45969711773326827 0.4655593551538837
0.19586054100000183 0.4538348803126526 0.457743038593063
0.19606312999985676 0.45481191988275516 0.4587200781631655
0.196267053000156 0.4557889594528579 0.4557889594528579
0.19646823400034918 0.4557889594528579 0.4557889594528579
0.19667004500024632 0.4636052760136786 0.45188080117244755
0.19687296800020704 0.46165119687347334 0.44894968246213973
0.19707416799974453 0.46262823644357587 0.44699560332193444
0.19727655299993785 0.4655593551538837 0.4460185637518319
0.19747736400040594 0.467513434294089 0.4401563263312165
0.1976790090002396 0.47142159257449934 0.43722520762090866
0.19788154199977726 0.4753297508549097 0.4382022471910112
0.19808913100041536 0.4811919882755251 0.43722520762090866
0.1983193489995756 0.48412310698583294 0.4401563263312165
0.19854986399968766 0.48900830483634583 0.4430874450415241
0.19877367499975662 0.4938935026868587 0.4430874450415241
0.19900068900005863 0.49682462139716654 0.441133365901319
0.1992254070000854 0.5007327796775769 0.44406448461162684
0.19972830599999725 0.5046409379579873 0.44211040547142155
0.19999206000011327 0.5056179775280898 0.4401563263312165
0.20020352000028652 0.5095261358085001 0.441133365901319
0.2004091270000572 0.5105031753786029 0.43917928676111373
0.20061204899957374 0.5134342940889105 0.43624816805080613
0.2008149160001267 0.5183194919394236 0.43722520762090866
0.20102228300038405 0.5202735710796287 0.44211040547142155
0.20122322400038684 0.5192965315095261 0.4430874450415241
0.20142514599956485 0.5202735710796287 0.44992672203224227
0.20162597600028676 0.5251587689301416 0.4538348803126526
0.2018805079997037 0.5202735710796287 0.45676599902296044
0.20208318999993935 0.5153883732291158 0.45676599902296044
0.20228107499951875 0.5105031753786029 0.46165119687347334
0.20247864599969034 0.5036638983878847 0.4587200781631655
0.20267577199956577 0.49682462139716654 0.45969711773326827
0.20287276900035067 0.48900830483634583 0.45676599902296044
0.2030707470003108 0.4831460674157304 0.45676599902296044
0.2032678539999324 0.4753297508549097 0.45676599902296044
0.2034650360001251 0.4704445530043966 0.457743038593063
0.20366251399991597 0.4655593551538837 0.457743038593063
0.2038596949996645 0.45969711773326827 0.4587200781631655
0.2040560249997725 0.45481191988275516 0.45676599902296044
0.20425215100021887 0.45188080117244755 0.46165119687347334
0.2044832210003733 0.44699560332193444 0.4557889594528579
0.20469016199967882 0.44406448461162684 0.457743038593063
0.20489873299993633 0.441133365901319 0.45676599902296044
0.20510728400040534 0.4430874450415241 0.457743038593063
0.20533892799994646 0.4450415241817294 0.45676599902296044
0.20556172099986725 0.44992672203224227 0.457743038593063
0.2057790130002104 0.44894968246213973 0.45481191988275516
0.2059975089996442 0.4538348803126526 0.4587200781631655
0.20621126500009268 0.4528578407425501 0.45481191988275516
0.20644287199957034 0.45481191988275516 0.4557889594528579
0.20669544100019266 0.44699560332193444 0.457743038593063
0.20696145500005514 0.4430874450415241 0.45676599902296044
0.2072139319998314 0.43917928676111373 0.45969711773326827
0.20752642699972057 0.4333170493404983 0.4606741573033708
0.20785158800026693 0.4303859306301905 0.45969711773326827
0.20811545299966383 0.4235466536394723 0.46165119687347334
0.20840133700039587 0.41670737664875435 0.45481191988275516
0.2087143130002005 0.4108451392281387 0.4528578407425501
0.20897693799997796 0.4049829018075233 0.45188080117244755
0.2092143230001966 0.403028822667318 0.44894968246213973
0.20943046699994738 0.39912066438690763 0.45481191988275516
0.20968729600008373 0.3932584269662922 0.45188080117244755
0.2101036029998795 0.38739618954567656 0.44699560332193444
0.21044796699970902 0.38641914997557403 0.4430874450415241
0.21074072099963814 0.38935026868588185 0.43722520762090866
0.21102008700017905 0.38739618954567656 0.43429408891060084
0.21137174700015748 0.3883732291157791 0.43722520762090866
0.21177074000024732 0.38739618954567656 0.441133365901319
0.2124455430002854 0.39228138739618945 0.44992672203224227
0.212860831999933 0.41182217879824123 0.44894968246213973
0.21316665999984252 0.41963849535906195 0.4479726428920372
0.21339037799953076 0.431362970200293 0.4460185637518319
0.2136092999999164 0.43917928676111373 0.4430874450415241
0.2138314439998794 0.4460185637518319 0.44992672203224227
0.21409855099955166 0.45188080117244755 0.44699560332193444
0.214312269000402 0.4557889594528579 0.44992672203224227
0.21453087600002618 0.45481191988275516 0.44894968246213973
0.2148315559998082 0.45969711773326827 0.45969711773326827
0.215069830000175 0.4665363947239862 0.45481191988275516
0.21528036299969244 0.45969711773326827 0.45481191988275516
0.21547891499994876 0.4587200781631655 0.45481191988275516
0.21568648500033305 0.4587200781631655 0.4557889594528579
0.21588731500014546 0.457743038593063 0.4528578407425501
0.2160904410002331 0.45969711773326827 0.45676599902296044
0.21630001199991966 0.46946751343429405 0.45481191988275516
0.2165140999995856 0.46165119687347334 0.4557889594528579
0.21672398600003362 0.4636052760136786 0.4538348803126526
0.21692864899978304 0.4665363947239862 0.45188080117244755
0.21715014500023244 0.4684904738641915 0.44992672203224227
0.21736795600008918 0.4733756717147044 0.44992672203224227
0.21759330300028523 0.4753297508549097 0.4479726428920372
0.21785889100010536 0.4811919882755251 0.441133365901319
0.21829349499967066 0.486077186126038 0.4401563263312165
0.21854667499974312 0.495847581827064 0.441133365901319
0.21876383800008625 0.4948705422569615 0.4479726428920372
0.21898200099985843 0.4978016609672691 0.4430874450415241
0.21920273799969436 0.5017098192476794 0.44894968246213973
0.21940665999954945 0.5036638983878847 0.4538348803126526
0.21960482299982687 0.5105031753786029 0.45676599902296044
0.2198035979999986 0.5065950170981925 0.45969711773326827
0.22000335299981089 0.5056179775280898 0.4587200781631655
0.22020136799983447 0.5017098192476794 0.4587200781631655
0.22039871699962532 0.5007327796775769 0.45969711773326827
0.2205958799995642 0.49682462139716654 0.457743038593063
0.22079315399969346 0.4938935026868587 0.4557889594528579
0.22101314999963506 0.4929164631167562 0.4587200781631655
0.22121077599967975 0.4929164631167562 0.4587200781631655
0.22140964299978805 0.4880312652662433 0.457743038593063
0.2216073059998962 0.486077186126038 0.4587200781631655
0.22180606199981412 0.48705422569614076 0.457743038593063
0.22204727999996976 0.48705422569614076 0.4557889594528579
0.22225003600033233 0.48216902784562765 0.45481191988275516
0.22245158799978526 0.47923790913532005 0.457743038593063
0.22265308399983041 0.47435271128480694 0.4587200781631655
0.22285411699976976 0.467513434294089 0.4636052760136786
0.22305570600019564 0.46262823644357587 0.46262823644357587
0.22326542500013602 0.457743038593063 0.46458231558378116
0.22348069899999246 0.4557889594528579 0.4665363947239862
0.2237043619998076 0.4557889594528579 0.4606741573033708
0.22393972800000483 0.4538348803126526 0.45969711773326827
0.2241481869996278 0.457743038593063 0.457743038593063
0.22435364600005414 0.45676599902296044 0.4557889594528579
0.22457377199953044 0.4557889594528579 0.45188080117244755
0.2247914720001063 0.45481191988275516 0.45188080117244755
0.22500043099989853 0.457743038593063 0.4528578407425501
0.22521270499964885 0.4636052760136786 0.4509037616023448
0.22541860900037136 0.467513434294089 0.44699560332193444
0.22562051299973973 0.4684904738641915 0.4479726428920372
0.22582132400020782 0.4704445530043966 0.44211040547142155
0.2260578750001514 0.46946751343429405 0.441133365901319
0.22625750099996367 0.47142159257449934 0.4460185637518319
0.22645779399954336 0.4655593551538837 0.4460185637518319
0.22665810499984218 0.45969711773326827 0.4450415241817294
0.2268591390002257 0.4557889594528579 0.44406448461162684
0.227060801999869 0.44894968246213973 0.4479726428920372
0.22726216899991414 0.4460185637518319 0.44992672203224227
0.22746220200042444 0.43917928676111373 0.44894968246213973
0.22766434699951787 0.4352711284807034 0.44992672203224227
0.22786621399973228 0.4264777723497801 0.44992672203224227
0.22806702500020037 0.4206155349291647 0.4509037616023448
0.22826763200009736 0.40986809965803617 0.45188080117244755
0.22846823999952903 0.4040058622374205 0.44699560332193444
0.22866873600014515 0.39912066438690763 0.4450415241817294
0.22886915900016902 0.39716658524670256 0.44406448461162684
0.22906948899981217 0.3932584269662922 0.44211040547142155
0.22927137399983621 0.3913043478260869 0.4382022471910112
0.22947118499996577 0.38935026868588185 0.43624816805080613
0.22967197799971473 0.3883732291157791 0.4323400097703958
0.2298737519995484 0.3883732291157791 0.4303859306301905
0.2300745630000165 0.38935026868588185 0.4352711284807034
0.23027554100008274 0.3913043478260869 0.43624816805080613
0.2304765930002759 0.3961895456765998 0.4382022471910112
0.23067718200036325 0.4010747435271129 0.43917928676111373
0.230879196999922 0.39716658524670256 0.44211040547142155
0.23108063800009404 0.39912066438690763 0.4430874450415241
0.2312810969997372 0.39716658524670256 0.44699560332193444
0.2314820569999938 0.39716658524670256 0.4479726428920372
0.23186897599953227 0.39423546653639474 0.4538348803126526
0.23208739799974865 0.3952125061064973 0.4509037616023448
0.23228685699996277 0.39716658524670256 0.45188080117244755
0.23248492800030363 0.40009770395701016 0.44992672203224227
0.23268216500036942 0.40693698094772834 0.4528578407425501
0.2328802359998008 0.4157303370786516 0.457743038593063
0.23307776900037425 0.42256961406936977 0.4528578407425501
0.233274913999594 0.431362970200293 0.4557889594528579
0.23347165100040002 0.43917928676111373 0.4557889594528579
0.23366851799983124 0.4450415241817294 0.457743038593063
0.23386519999985467 0.4479726428920372 0.4587200781631655
0.2340660290001324 0.4557889594528579 0.45969711773326827
0.23426271100015583 0.45676599902296044 0.4606741573033708
0.23445929999979853 0.46165119687347334 0.46262823644357587
0.2346563889996105 0.4665363947239862 0.45969711773326827
0.23485521899965534 0.4665363947239862 0.46165119687347334
0.23505177100014407 0.4684904738641915 0.4606741573033708
0.2352486379995753 0.4655593551538837 0.45969711773326827
0.23544813500029704 0.46458231558378116 0.4587200781631655
0.23603356900002836 0.4606741573033708 0.4587200781631655
0.23625717599952623 0.45969711773326827 0.457743038593063
0.23645631999988836 0.4636052760136786 0.4528578407425501
0.23665407600037724 0.46458231558378116 0.44992672203224227
0.23685270199985098 0.467513434294089 0.44894968246213973
0.2370524950001709 0.4684904738641915 0.4460185637518319
0.23725075099991955 0.47142159257449934 0.44699560332193444
0.23744874699968932 0.47435271128480694 0.4509037616023448
0.23765035500036902 0.47435271128480694 0.4509037616023448
0.23785210999994888 0.4753297508549097 0.4538348803126526
0.23807156899965776 0.4782608695652173 0.457743038593063
0.23827826999968238 0.4811919882755251 0.45676599902296044
0.23847589599972707 0.4831460674157304 0.4587200781631655
0.2386745769999834 0.4851001465559355 0.45481191988275516
0.23887277700032428 0.48900830483634583 0.4557889594528579
0.23907216299994616 0.48998534440644836 0.44992672203224227
0.2392731410000124 0.4948705422569615 0.44699560332193444
0.2394733040000574 0.5017098192476794 0.4450415241817294
0.23967002300014428 0.4978016609672691 0.4430874450415241
0.239866740999787 0.49975574010747437 0.4430874450415241
0.24006283000016992 0.49975574010747437 0.441133365901319
0.24026254900036292 0.49877870053737183 0.4401563263312165
0.24046076800004812 0.49877870053737183 0.43917928676111373
0.2406570789999023 0.495847581827064 0.4401563263312165
0.2408530390002852 0.49877870053737183 0.4401563263312165
0.24104909099969518 0.4948705422569615 0.44211040547142155
0.2413064749998739 0.4929164631167562 0.4460185637518319
0.2415169710002374 0.4909623839765511 0.4460185637518319
0.24171452300015517 0.48998534440644836 0.44406448461162684
0.24193826000009722 0.4909623839765511 0.44406448461162684
0.24214007099999435 0.48705422569614076 0.44699560332193444
0.2423384570001872 0.486077186126038 0.44406448461162684
0.24253578699972422 0.4782608695652173 0.44406448461162684
0.242738337999981 0.46946751343429405 0.4450415241817294
0.24293637200025842 0.4636052760136786 0.4450415241817294
0.2431352940002398 0.457743038593063 0.4460185637518319
0.2433326059999672 0.44894968246213973 0.44699560332193444
0.24353106499984278 0.4460185637518319 0.4450415241817294
0.2437285799996971 0.44211040547142155 0.4450415241817294
0.2439253539996571 0.4401563263312165 0.4460185637518319
0.24412201799987088 0.43917928676111373 0.4430874450415241
0.24432055099987338 0.4401563263312165 0.4460185637518319
0.2445182700002988 0.43917928676111373 0.44699560332193444
0.24471608099975128 0.4401563263312165 0.4479726428920372
0.24491278099958436 0.441133365901319 0.44992672203224227
0.2451170929998625 0.441133365901319 0.4528578407425501
0.24531664499954786 0.4460185637518319 0.4538348803126526
0.24551465999957145 0.4460185637518319 0.4528578407425501
0.245711675000166 0.44699560332193444 0.4538348803126526
0.24590844900012598 0.44406448461162684 0.45188080117244755
0.24612561199955962 0.4430874450415241 0.4509037616023448
0.24632749699958367 0.44406448461162684 0.4557889594528579
0.246529881999777 0.44211040547142155 0.45188080117244755
0.24672626800020225 0.44211040547142155 0.44894968246213973
0.24692341199988732 0.4450415241817294 0.44894968246213973
0.2471217610000167 0.44406448461162684 0.44699560332193444
0.24731894199976523 0.44894968246213973 0.4460185637518319
0.24751925399959873 0.4509037616023448 0.4450415241817294
0.2477167870001722 0.4538348803126526 0.4460185637518319
0.24791565400028048 0.4538348803126526 0.4479726428920372
0.24815209400003369 0.4479726428920372 0.44699560332193444
0.24836181299997406 0.441133365901319 0.44992672203224227
0.24855964299968036 0.43429408891060084 0.4509037616023448
0.24875680599961925 0.42745481191988266 0.4538348803126526
0.24895402400034072 0.4176844162188569 0.4528578407425501
0.24915961300030176 0.40986809965803617 0.457743038593063
0.24939083099980053 0.4049829018075233 0.457743038593063
0.24960304999967775 0.40009770395701016 0.45969711773326827
0.24981326800025272 0.3961895456765998 0.45969711773326827
0.2501097630001823 0.3903273082559844 0.46165119687347334
0.2503147409997837 0.3903273082559844 0.4587200781631655
0.25051494099989213 0.38739618954567656 0.457743038593063
0.2507182709996414 0.38739618954567656 0.457743038593063
0.25092119300006743 0.3883732291157791 0.4538348803126526
0.25112335599988 0.38446507083536874 0.4538348803126526
0.2513235380001788 0.3854421104054715 0.44894968246213973
0.2515238120004142 0.38641914997557403 0.44699560332193444
0.2517269749996558 0.3883732291157791 0.4450415241817294
0.251926953000293 0.38739618954567656 0.4430874450415241
0.25212533800004167 0.38935026868588185 0.441133365901319
0.2523258720002559 0.3913043478260869 0.4450415241817294
0.2525283679997301 0.3932584269662922 0.44894968246213973
0.2527288649998809 0.403028822667318 0.4509037616023448
0.2529269540000314 0.41182217879824123 0.4538348803126526
0.2531258019998859 0.41963849535906195 0.4528578407425501
0.2533261689995925 0.4284318514899854 0.45481191988275516
0.2535298510001667 0.43624816805080613 0.45481191988275516
0.2537273469997672 0.4430874450415241 0.4538348803126526
0.25394004699955985 0.44894968246213973 0.4528578407425501
0.25414404299954185 0.4538348803126526 0.4538348803126526
0.2543411139995442 0.45676599902296044 0.45676599902296044
0.25454009199984284 0.45969711773326827 0.45481191988275516
0.2547370330003105 0.46262823644357587 0.4538348803126526
0.2549346030000379 0.4655593551538837 0.45188080117244755
0.2551324329997442 0.4655593551538837 0.45188080117244755
0.25532978199953504 0.4636052760136786 0.4509037616023448
0.25552748199970665 0.46458231558378116 0.4479726428920372
0.25572518199987826 0.467513434294089 0.44894968246213973
0.2559231409995846 0.4655593551538837 0.45188080117244755
0.2561205820002215 0.4655593551538837 0.44894968246213973
0.25632113400024537 0.4665363947239862 0.44894968246213973
0.2565314639996359 0.46946751343429405 0.45188080117244755
0.2567318860001251 0.4704445530043966 0.45188080117244755
0.25693197500004317 0.4753297508549097 0.4509037616023448
0.25713128699953813 0.4763067904250122 0.4528578407425501
0.25733041300009063 0.47923790913532005 0.45188080117244755
0.25753044599969144 0.47923790913532005 0.45188080117244755
0.2577302019999479 0.4802149487054226 0.4538348803126526
0.2579429759998675 0.4782608695652173 0.4528578407425501
0.2581452869999339 0.4782608695652173 0.44894968246213973
0.25840620799954195 0.47435271128480694 0.4479726428920372
0.2586064639999677 0.4753297508549097 0.4460185637518319
0.25880588600011833 0.4763067904250122 0.4450415241817294
0.2590042900001208 0.4811919882755251 0.4430874450415241
0.25920387899986963 0.4831460674157304 0.4460185637518319
0.25940178299970285 0.4802149487054226 0.4450415241817294
0.2596002430000226 0.4831460674157304 0.44406448461162684
0.25979772099981346 0.4851001465559355 0.44406448461162684
0.25999521700032346 0.48705422569614076 0.4460185637518319
0.26019334299962793 0.48998534440644836 0.45188080117244755
0.26039124700037064 0.4909623839765511 0.44699560332193444
0.260755092999716 0.49682462139716654 0.4509037616023448
0.26096816300014325 0.49682462139716654 0.4509037616023448
0.26116788200033625 0.49877870053737183 0.4528578407425501
0.2613661739997042 0.49975574010747437 0.45188080117244755
0.2615642079999816 0.49975574010747437 0.45188080117244755
0.26176844499968865 0.49975574010747437 0.4557889594528579
0.26198134900005243 0.5007327796775769 0.44894968246213973
0.2621823270001187 0.5007327796775769 0.4460185637518319
0.2623797670003114 0.49975574010747437 0.4450415241817294
0.26257698599965806 0.49682462139716654 0.4450415241817294
0.26277416799985076 0.48900830483634583 0.4450415241817294
0.2629707939995569 0.4802149487054226 0.44699560332193444
0.2631666609995591 0.47239863214460187 0.44894968246213973
0.2633632500001113 0.46458231558378116 0.4509037616023448
0.2635600430003251 0.4587200781631655 0.4509037616023448
0.26375739099967177 0.45676599902296044 0.4538348803126526
0.2639629799996328 0.4528578407425501 0.4538348803126526
0.2641596249995928 0.44992672203224227 0.4557889594528579
0.2643568809999124 0.44894968246213973 0.45481191988275516
0.26455480299955525 0.4509037616023448 0.4557889594528579
0.26475224400019215 0.44992672203224227 0.45188080117244755
0.2649499070003003 0.4460185637518319 0.45481191988275516
0.2651470330001757 0.44406448461162684 0.4528578407425501
0.2653434929998184 0.441133365901319 0.4528578407425501
0.26554043400028604 0.43722520762090866 0.45188080117244755
0.2657371889999922 0.43429408891060084 0.45188080117244755
0.2659470930002499 0.4284318514899854 0.4509037616023448
0.2661449229999562 0.42256961406936977 0.45188080117244755
0.26634171600017 0.42452369320957506 0.4509037616023448
0.26653839699974924 0.4176844162188569 0.44992672203224227
0.2667347830001745 0.41963849535906195 0.44699560332193444
0.2669337609995637 0.4176844162188569 0.44699560332193444
0.2671311650001371 0.41963849535906195 0.4479726428920372
0.2673279390000971 0.4176844162188569 0.44992672203224227
0.2675256949996765 0.41963849535906195 0.4538348803126526
0.2677233389995308 0.41670737664875435 0.4528578407425501
0.26792046500031574 0.4176844162188569 0.4538348803126526
0.2681177579997893 0.4137762579384465 0.4538348803126526
0.2683135699999184 0.4079140205178309 0.457743038593063
0.2685098439997091 0.4108451392281387 0.4538348803126526
0.2687076550000711 0.4059599413776258 0.45481191988275516
0.2689039659999253 0.4059599413776258 0.45481191988275516
0.2691001299999698 0.4059599413776258 0.45481191988275516
0.2692958300003738 0.4049829018075233 0.45676599902296044
0.2694925859996147 0.4040058622374205 0.45481191988275516
0.26968923000003997 0.403028822667318 0.4538348803126526
0.26988631899985194 0.403028822667318 0.45188080117244755
0.2700866679997489 0.403028822667318 0.45188080117244755
0.27028451600017434 0.40009770395701016 0.4509037616023448
0.27048119800019776 0.3961895456765998 0.4479726428920372
0.27067795299990394 0.39716658524670256 0.44406448461162684
0.2708745979998639 0.3952125061064973 0.43722520762090866
0.27109833499980596 0.3961895456765998 0.43429408891060084
0.27130799800033856 0.39423546653639474 0.431362970200293
0.27158186300039233 0.3952125061064973 0.4284318514899854
0.27182430300035776 0.3961895456765998 0.42940889106008795
0.27203709599962167 0.3952125061064973 0.4303859306301905
0.27226092500040977 0.3903273082559844 0.4352711284807034
0.272479772999759 0.3903273082559844 0.4401563263312165
0.27274134300023434 0.39716658524670256 0.4479726428920372
0.2729765789999874 0.40986809965803617 0.44406448461162684
0.2731967239997175 0.4206155349291647 0.4509037616023448
0.2734155529997224 0.431362970200293 0.4460185637518319
0.2736231230001067 0.44211040547142155 0.44894968246213973
0.27386926700000913 0.45188080117244755 0.4479726428920372
0.27416663199983304 0.4665363947239862 0.44992672203224227
0.2744365349999498 0.4684904738641915 0.4509037616023448
0.27470273400012957 0.4763067904250122 0.4528578407425501
0.27495919200009666 0.47923790913532005 0.45481191988275516
0.27519159599978593 0.4831460674157304 0.4587200781631655
0.27548129400020116 0.4802149487054226 0.45969711773326827
0.2757573449998745 0.4831460674157304 0.4655593551538837
0.2759871739999653 0.4851001465559355 0.4665363947239862
0.2762393359998896 0.48900830483634583 0.467513434294089
0.27648023900019325 0.49193942354665365 0.4665363947239862
0.2766982539997116 0.4948705422569615 0.4655593551538837
0.27693128699957015 0.4978016609672691 0.4606741573033708
0.27715154199995595 0.49682462139716654 0.457743038593063
0.2773577979996844 0.49877870053737183 0.45481191988275516
0.27755564600010985 0.49193942354665365 0.4528578407425501
0.27775223499975255 0.4948705422569615 0.4538348803126526
0.27800969399959286 0.4938935026868587 0.44699560332193444
0.2782132639995325 0.4948705422569615 0.4450415241817294
0.27841144600006373 0.49975574010747437 0.44406448461162684
0.27860966400021425 0.5026868588177822 0.4450415241817294
0.2788079760002802 0.5036638983878847 0.44699560332193444
0.2790071760000501 0.5036638983878847 0.44699560332193444
0.2792040980002639 0.49975574010747437 0.44699560332193444
0.27940066900009697 0.5007327796775769 0.4479726428920372
0.279599350999888 0.49877870053737183 0.44992672203224227
0.2798008290001235 0.495847581827064 0.44992672203224227
0.2799983439999778 0.4948705422569615 0.44894968246213973
0.2801978400002554 0.49193942354665365 0.4460185637518319
0.2803945770001519 0.4909623839765511 0.44894968246213973
0.2805915549997735 0.4929164631167562 0.44894968246213973
0.2807873669999026 0.4938935026868587 0.44992672203224227
0.28098388200032787 0.49682462139716654 0.4479726428920372
0.281180508000034 0.49877870053737183 0.4450415241817294
0.2815835749997859 0.5085490962383976 0.4460185637518319
0.28180344100019283 0.5114802149487054 0.4450415241817294
0.2820600289996946 0.5105031753786029 0.44699560332193444
0.28225950700016256 0.5065950170981925 0.44699560332193444
0.28245848499955173 0.49877870053737183 0.4479726428920372
0.28265586999987136 0.48900830483634583 0.4460185637518319
0.28285538500040275 0.47923790913532005 0.44699560332193444
0.28305451100004575 0.46946751343429405 0.4479726428920372
0.2832545259998369 0.4606741573033708 0.44894968246213973
0.2834517820001565 0.45969711773326827 0.4538348803126526
0.28369996299989 0.45188080117244755 0.4557889594528579
0.28389784800037887 0.44699560332193444 0.457743038593063
0.2840952520000428 0.4430874450415241 0.4557889594528579
0.2842928970003413 0.44211040547142155 0.4557889594528579
0.2844898749999629 0.4382022471910112 0.4587200781631655
0.28468744499969034 0.4352711284807034 0.457743038593063
0.28488488600032724 0.43429408891060084 0.4557889594528579
0.28508232700005465 0.43624816805080613 0.45481191988275516
0.2852810459999091 0.43624816805080613 0.4538348803126526
0.2854773760000171 0.43722520762090866 0.4528578407425501
0.2856753169999138 0.4382022471910112 0.4528578407425501
0.2858720730000641 0.43917928676111373 0.4528578407425501
0.2860880320004071 0.4401563263312165 0.45481191988275516
0.2862873240001136 0.44211040547142155 0.45481191988275516
0.2864841170003274 0.4401563263312165 0.45676599902296044
0.286681094999949 0.43917928676111373 0.45481191988275516
0.28687812899988785 0.4382022471910112 0.4557889594528579
0.28707458799999586 0.43429408891060084 0.4538348803126526
0.2872713249998924 0.4323400097703958 0.45481191988275516
0.2874678030002542 0.4303859306301905 0.45481191988275516
0.28766891099985514 0.4284318514899854 0.4557889594528579
0.28786746300011146 0.42745481191988266 0.45969711773326827
0.2880642930003887 0.42256961406936977 0.45676599902296044
0.2882626970003912 0.41670737664875435 0.457743038593063
0.2884685079998235 0.41670737664875435 0.4538348803126526
0.2886670600000798 0.412799218368344 0.44894968246213973
0.2888649449996592 0.4079140205178309 0.44211040547142155
0.289062496999577 0.40693698094772834 0.4333170493404983
0.2892627720002565 0.4040058622374205 0.4235466536394723
0.2894783419997111 0.4049829018075233 0.41963849535906195
0.28969530100039265 0.40009770395701016 0.41670737664875435
0.2899101299999529 0.3961895456765998 0.41670737664875435
0.2904143440000553 0.3913043478260869 0.4255007327796776
0.290815207000378 0.38641914997557403 0.4352711284807034
0.2911954410001272 0.3834880312652662 0.4528578407425501
0.291850114999761 0.3854421104054715 0.46262823644357587
0.2923113659999217 0.3903273082559844 0.4636052760136786
0.2927120249996733 0.39912066438690763 0.4636052760136786
0.29306999999971595 0.41670737664875435 0.46458231558378116
0.29350569599955634 0.4333170493404983 0.4636052760136786
0.29387100500025554 0.4460185637518319 0.45969711773326827
0.2947166189997006 0.4655593551538837 0.45481191988275516
0.29556960399986565 0.46946751343429405 0.45188080117244755
0.29588541300017823 0.46946751343429405 0.4538348803126526
0.2961165200003961 0.467513434294089 0.44894968246213973
0.2963501089998317 0.467513434294089 0.44992672203224227
0.29665951100014354 0.4733756717147044 0.45188080117244755
0.2968882470004246 0.4733756717147044 0.45188080117244755
0.2970999839999422 0.4763067904250122 0.45188080117244755
0.29730559200015705 0.47923790913532005 0.457743038593063
0.2975050699997155 0.4782608695652173 0.4528578407425501
0.29770552900026814 0.47923790913532005 0.4557889594528579
0.29794978399968386 0.47923790913532005 0.45481191988275516
0.29819116900034714 0.4831460674157304 0.457743038593063
0.29840966499978094 0.48705422569614076 0.45969711773326827
0.29861880899989046 0.4880312652662433 0.45676599902296044
0.29884367599970574 0.4909623839765511 0.4538348803126526
0.29907161600021936 0.4938935026868587 0.45188080117244755
0.2993098150000151 0.495847581827064 0.4528578407425501
0.299565569999686 0.4948705422569615 0.4509037616023448
0.2998163430002023 0.495847581827064 0.4528578407425501
0.30007672800002183 0.495847581827064 0.45188080117244755
0.300374593000015 0.4978016609672691 0.45188080117244755
0.3006539400003021 0.4978016609672691 0.45188080117244755
0.3008690659999047 0.49877870053737183 0.45188080117244755
0.30106859900024574 0.4978016609672691 0.4509037616023448
0.3012687250002273 0.5026868588177822 0.4528578407425501
0.30146705500010285 0.49877870053737183 0.45188080117244755
0.30166527399978804 0.49682462139716654 0.4538348803126526
0.30186210299962113 0.495847581827064 0.4538348803126526
0.3020777290003025 0.4948705422569615 0.45188080117244755
0.3022752999995646 0.49682462139716654 0.44992672203224227
0.30247329600024386 0.4909623839765511 0.4479726428920372
0.30266992199995 0.4880312652662433 0.44992672203224227
0.30286732599961397 0.47728382999511476 0.4460185637518319
0.3030649889997221 0.4684904738641915 0.44992672203224227
0.3032622270002321 0.46458231558378116 0.44699560332193444
0.3034591679997902 0.4606741573033708 0.44699560332193444
0.3036554049995175 0.4557889594528579 0.4479726428920372
0.30385091999960423 0.45188080117244755 0.4479726428920372
0.30404817599992384 0.44699560332193444 0.44992672203224227
0.3042459130001589 0.4450415241817294 0.45188080117244755
0.3044454279997808 0.44211040547142155 0.45188080117244755
0.30464257299991004 0.4382022471910112 0.45188080117244755
0.30484099499972217 0.4382022471910112 0.4528578407425501
0.30503782499999943 0.43917928676111373 0.45481191988275516
0.3052348580004036 0.4382022471910112 0.45969711773326827
0.3054968540000118 0.4430874450415241 0.457743038593063
0.30569490600009885 0.44211040547142155 0.45676599902296044
0.3058926800003974 0.441133365901319 0.4557889594528579
0.30609147300037876 0.4401563263312165 0.45676599902296044
0.30628993200025434 0.43917928676111373 0.4538348803126526
0.30649679900034243 0.4352711284807034 0.45188080117244755
0.3067229620000944 0.4323400097703958 0.4509037616023448
0.30696195699965756 0.4284318514899854 0.44894968246213973
0.30718163900019135 0.42452369320957506 0.44992672203224227
0.3073914500000683 0.42256961406936977 0.4479726428920372
0.3075892799997746 0.41963849535906195 0.4460185637518319
0.307792034999693 0.4157303370786516 0.4479726428920372
0.3079916240003513 0.412799218368344 0.4450415241817294
0.3081893799999307 0.40889106008793363 0.44699560332193444
0.30838672800018685 0.4059599413776258 0.4460185637518319
0.30858448399976623 0.403028822667318 0.44406448461162684
0.30878142500023387 0.403028822667318 0.44406448461162684
0.308978809999644 0.39716658524670256 0.4460185637518319
0.309176177000154 0.3981436248168051 0.4528578407425501
0.309372507000262 0.39716658524670256 0.4430874450415241
0.3095690959999047 0.39912066438690763 0.44406448461162684
0.30977294399963284 0.3952125061064973 0.4430874450415241
0.3099951809999766 0.39423546653639474 0.4460185637518319
0.3101984920003815 0.39423546653639474 0.4479726428920372
0.3103960999997071 0.3952125061064973 0.4479726428920372
0.31059305999951903 0.3952125061064973 0.44894968246213973
0.3107909259997541 0.3961895456765998 0.44992672203224227
0.3109877380002217 0.3952125061064973 0.4538348803126526
0.311185567999928 0.403028822667318 0.4557889594528579
0.3113821939996342 0.4010747435271129 0.4587200781631655
0.31157967200033454 0.4049829018075233 0.457743038593063
0.3117763720001676 0.4108451392281387 0.457743038593063
0.3119730349999372 0.4108451392281387 0.45969711773326827
0.31216964299983374 0.41670737664875435 0.45676599902296044
0.3123757690000275 0.41475329750854906 0.45481191988275516
0.3125774130003265 0.412799218368344 0.4509037616023448
0.31277496500024426 0.4176844162188569 0.44992672203224227
0.312975498999549 0.42256961406936977 0.4460185637518319
0.31317458800003806 0.4303859306301905 0.4460185637518319
0.3133717880000404 0.43429408891060084 0.44406448461162684
0.3135680989998946 0.44211040547142155 0.44699560332193444
0.3137663549996432 0.4450415241817294 0.4479726428920372
0.31399494400011463 0.4509037616023448 0.44699560332193444
0.3141959960003078 0.4557889594528579 0.4509037616023448
0.31439384399982373 0.4587200781631655 0.45188080117244755
0.3145921739996993 0.46262823644357587 0.4538348803126526
0.31478965200039966 0.4636052760136786 0.4587200781631655
0.31498675900002127 0.4665363947239862 0.457743038593063
0.31518282999968505 0.47142159257449934 0.4606741573033708
0.31538040000032197 0.4704445530043966 0.45969711773326827
0.3155777860001763 0.4753297508549097 0.4587200781631655
0.31577596700026334 0.4733756717147044 0.4587200781631655
0.31597353799952543 0.47435271128480694 0.457743038593063
0.3161712009996336 0.47728382999511476 0.45481191988275516
0.31637077199957275 0.4782608695652173 0.4538348803126526
0.3165674720003153 0.47728382999511476 0.45481191988275516
0.31676509800036 0.47923790913532005 0.44992672203224227
0.3169625199998336 0.47923790913532005 0.45188080117244755
0.3171588690001954 0.4763067904250122 0.4509037616023448
0.3173570879998806 0.4753297508549097 0.4509037616023448
0.3175547139999253 0.4782608695652173 0.44992672203224227
0.3177524880002238 0.4782608695652173 0.4509037616023448
0.3179510030004167 0.47728382999511476 0.45188080117244755
0.31814933300029224 0.47923790913532005 0.4538348803126526
0.31834762600010436 0.4831460674157304 0.4528578407425501
0.3185452699999587 0.4831460674157304 0.4538348803126526
0.31874143299955904 0.48900830483634583 0.4528578407425501
0.31894461499996396 0.486077186126038 0.4528578407425501
0.31918892500016227 0.48998534440644836 0.45188080117244755
0.3194536609998977 0.49193942354665365 0.4509037616023448
0.31965419500011194 0.4938935026868587 0.4479726428920372
0.31985359899954346 0.4938935026868587 0.4460185637518319
0.3200507250003284 0.4938935026868587 0.44406448461162684
0.32025172100020427 0.4948705422569615 0.44211040547142155
0.32044940299965674 0.49682462139716654 0.4479726428920372
0.320646232999934 0.49682462139716654 0.441133365901319
0.3208434150001267 0.495847581827064 0.44211040547142155
0.3210500779996437 0.49682462139716654 0.44211040547142155
0.3212458329999208 0.4978016609672691 0.44211040547142155
0.32144258900007117 0.4948705422569615 0.4430874450415241
0.3216401039999255 0.4938935026868587 0.44211040547142155
0.32183758199971635 0.49682462139716654 0.4430874450415241
0.32211628099958034 0.49682462139716654 0.44894968246213973
0.32231450000017503 0.4929164631167562 0.44699560332193444
0.3225116630001139 0.4880312652662433 0.4509037616023448
0.32270893700024317 0.48216902784562765 0.4509037616023448
0.3231282070000816 0.4655593551538837 0.4557889594528579
0.3233491849996426 0.4636052760136786 0.45481191988275516
0.3235551810003017 0.45676599902296044 0.4587200781631655
0.3237550670000928 0.4528578407425501 0.45969711773326827
0.32395565600018017 0.44992672203224227 0.4587200781631655
0.3241545959999712 0.44699560332193444 0.4587200781631655
0.3243511489999946 0.44406448461162684 0.45676599902296044
0.3245475339999757 0.441133365901319 0.45481191988275516
0.32474375299989333 0.43722520762090866 0.45481191988275516
0.3249407860002975 0.43917928676111373 0.4538348803126526
0.32513869000013074 0.4401563263312165 0.4509037616023448
0.3253365760001543 0.441133365901319 0.4528578407425501
0.3255334790001143 0.44406448461162684 0.4528578407425501
0.32573004999994737 0.4460185637518319 0.4538348803126526
0.32595997200041893 0.4460185637518319 0.4557889594528579
0.3261621900001046 0.4450415241817294 0.45481191988275516
0.3263609460000225 0.4479726428920372 0.4538348803126526
0.32655788699958066 0.44406448461162684 0.4528578407425501
0.3267545689996041 0.4430874450415241 0.4587200781631655
0.3269519909999872 0.4430874450415241 0.4538348803126526
0.3271491909999895 0.4401563263312165 0.45481191988275516
0.32734605800033023 0.43624816805080613 0.4538348803126526
0.32754383300016343 0.43624816805080613 0.45676599902296044
0.3277411070002927 0.43624816805080613 0.45481191988275516
0.32794006600033754 0.4323400097703958 0.4557889594528579
0.3281389699995998 0.4284318514899854 0.45676599902296044
0.3283371329998772 0.42256961406936977 0.45676599902296044
0.3285363340000913 0.4157303370786516 0.457743038593063
0.328733960000136 0.40889106008793363 0.4509037616023448
0.3289339379998637 0.4040058622374205 0.45188080117244755
0.32913328599988745 0.39912066438690763 0.4587200781631655
0.32933091199993214 0.3961895456765998 0.4509037616023448
0.32953209399966 0.3913043478260869 0.44699560332193444
0.3297305160003816 0.3913043478260869 0.44406448461162684
0.32994182699985686 0.3883732291157791 0.441133365901319
0.33014087900028244 0.38935026868588185 0.4382022471910112
0.3303389310003695 0.3854421104054715 0.4382022471910112
0.330535539000266 0.3834880312652662 0.4401563263312165
0.33073227600016253 0.3834880312652662 0.43722520762090866
0.33093004999955156 0.38446507083536874 0.43624816805080613
0.33112904700010404 0.38251099169516367 0.4382022471910112
0.33132628400016984 0.38446507083536874 0.44211040547142155
0.33152294699993945 0.3854421104054715 0.4430874450415241
0.33171948099970905 0.38446507083536874 0.4401563263312165
0.33191612500013434 0.3854421104054715 0.43722520762090866
0.3321141770002214 0.3903273082559844 0.43624816805080613
0.33231061799961026 0.38935026868588185 0.4333170493404983
0.3325083370000357 0.3932584269662922 0.4333170493404983
0.33270464799988986 0.39716658524670256 0.4352711284807034
0.33290155200029403 0.4059599413776258 0.4352711284807034
0.3330978639996829 0.4157303370786516 0.43722520762090866
0.33329443399998127 0.42452369320957506 0.44211040547142155
0.33349868999994214 0.4323400097703958 0.44699560332193444
0.33369605699954263 0.44211040547142155 0.4479726428920372
0.3338930899999468 0.4479726428920372 0.4538348803126526
0.33410238299984485 0.4557889594528579 0.4538348803126526
0.3343001760003972 0.4606741573033708 0.457743038593063
0.3344979869998497 0.46458231558378116 0.4557889594528579
0.3346962429995983 0.467513434294089 0.4587200781631655
0.33489394299976993 0.46946751343429405 0.45481191988275516
0.3350929950001955 0.47142159257449934 0.4557889594528579
0.3352899539995633 0.4684904738641915 0.45481191988275516
0.3354865430001155 0.4684904738641915 0.4557889594528579
0.3356832620002024 0.4665363947239862 0.44992672203224227
0.33588438799961295 0.4665363947239862 0.44992672203224227
0.33608138500039786 0.467513434294089 0.4509037616023448
0.33627815900035785 0.4665363947239862 0.44992672203224227
0.33647532200029673 0.46946751343429405 0.45188080117244755
0.33667187399987597 0.46946751343429405 0.4509037616023448
0.33686918599960336 0.4704445530043966 0.4509037616023448
0.33706525599973247 0.47239863214460187 0.4538348803126526
0.3372627709995868 0.47239863214460187 0.4528578407425501
0.33745926800020243 0.47435271128480694 0.45676599902296044
0.33765613499963365 0.4753297508549097 0.457743038593063
0.3378531500002282 0.47239863214460187 0.45969711773326827
0.33805438699982915 0.4763067904250122 0.45676599902296044
0.3382552160001069 0.4811919882755251 0.4538348803126526
0.3384583050001311 0.4831460674157304 0.4528578407425501
0.33866217200011306 0.4909623839765511 0.4509037616023448
0.33886124299988296 0.48998534440644836 0.44992672203224227
0.33905894300005457 0.4929164631167562 0.44699560332193444
0.33925682799963397 0.4938935026868587 0.44699560332193444
0.3394948610002757 0.49682462139716654 0.44699560332193444
0.3396996539995598 0.49877870053737183 0.4479726428920372
0.3398960949998582 0.49682462139716654 0.44894968246213973
0.34009235099983925 0.49877870053737183 0.44894968246213973
0.34028917999967234 0.5056179775280898 0.44992672203224227
0.34048604700001306 0.5007327796775769 0.4479726428920372
0.3406835069999943 0.4978016609672691 0.4479726428920372
0.3408814659997006 0.49877870053737183 0.4460185637518319
0.34107837000010477 0.49975574010747437 0.4509037616023448
0.34127508900019166 0.49975574010747437 0.44894968246213973
0.34147393700004613 0.4978016609672691 0.4479726428920372
0.3416708969998581 0.5017098192476794 0.44992672203224227
0.34186861499983934 0.4948705422569615 0.4538348803126526
0.3420672040001591 0.495847581827064 0.4509037616023448
0.3422645709997596 0.495847581827064 0.4509037616023448
0.3424606600001425 0.48998534440644836 0.4509037616023448
0.34265856399997574 0.4802149487054226 0.45188080117244755
0.34285554199959734 0.46946751343429405 0.45481191988275516
0.34306794599979185 0.45481191988275516 0.46262823644357587
0.3432665720001751 0.4479726428920372 0.45481191988275516
0.3434627910000927 0.4382022471910112 0.457743038593063
0.34365986099965085 0.4284318514899854 0.457743038593063
0.3438568210003723 0.4186614557889594 0.45676599902296044
0.3440536879998035 0.412799218368344 0.4587200781631655
0.3442505920002077 0.40986809965803617 0.457743038593063
0.3444486250000409 0.40986809965803617 0.45481191988275516
0.34464758400008577 0.4059599413776258 0.45481191988275516
0.34484417400017264 0.4040058622374205 0.4538348803126526
0.3450530959999014 0.4079140205178309 0.44992672203224227
0.3452510179995443 0.41475329750854906 0.44992672203224227
0.3454484590001812 0.4186614557889594 0.45188080117244755
0.3456454189999931 0.4264777723497801 0.44894968246213973
0.3458432850002282 0.4323400097703958 0.4460185637518319
0.346057947999725 0.43722520762090866 0.4430874450415241
0.3462559079998755 0.44406448461162684 0.441133365901319
0.34645305199956056 0.4479726428920372 0.44211040547142155
0.34665015999962634 0.4460185637518319 0.44406448461162684
0.3468466750000516 0.45188080117244755 0.4430874450415241
0.3470434490000116 0.4557889594528579 0.44699560332193444
0.3472396130000561 0.45481191988275516 0.45188080117244755
0.3474365720003334 0.45969711773326827 0.4509037616023448
0.34763469799963786 0.457743038593063 0.457743038593063
0.34783108299961896 0.457743038593063 0.4606741573033708
0.34802911699989636 0.4587200781631655 0.4636052760136786
0.3482260390001102 0.4557889594528579 0.46262823644357587
0.34842236900021817 0.45481191988275516 0.46165119687347334
0.34861979200013593 0.44992672203224227 0.46458231558378116
0.34881664000022283 0.44894968246213973 0.46458231558378116
0.34901317399999243 0.44406448461162684 0.4655593551538837
0.3492110959996353 0.441133365901319 0.46458231558378116
0.34940812999957416 0.43917928676111373 0.4655593551538837
0.3496049220002533 0.43624816805080613 0.4636052760136786
0.34980130799976905 0.4333170493404983 0.46458231558378116
0.350018025999816 0.42745481191988266 0.45969711773326827
0.3502165410000089 0.4255007327796776 0.4606741573033708
0.3504143339996517 0.4206155349291647 0.46165119687347334
0.35061147899978096 0.41475329750854906 0.45676599902296044
0.3508091419998891 0.4059599413776258 0.4557889594528579
0.35113733999969554 0.39228138739618945 0.45188080117244755
0.3513477619999321 0.3883732291157791 0.4479726428920372
0.35154486899955373 0.38251099169516367 0.44406448461162684
0.3517413099998521 0.38153395212506114 0.441133365901319
0.35193741799957934 0.3805569125549584 0.43624816805080613
0.35214339599951927 0.3805569125549584 0.4323400097703958
0.352350873999967 0.38251099169516367 0.4323400097703958
0.35255009199954657 0.3854421104054715 0.42745481191988266
0.3527801439995528 0.39228138739618945 0.4284318514899854
0.3529785479995553 0.4010747435271129 0.42940889106008795
0.3531751370001075 0.41182217879824123 0.43429408891060084
0.3533739479998985 0.41963849535906195 0.43722520762090866
0.3535704079995412 0.4303859306301905 0.43917928676111373
0.3537694599999668 0.4401563263312165 0.4460185637518319
0.35397771499992814 0.4460185637518319 0.4430874450415241
0.35417613699974027 0.4528578407425501 0.4430874450415241
0.35445335500025976 0.45676599902296044 0.44211040547142155
0.35467211000013776 0.46165119687347334 0.4401563263312165
0.354882106000332 0.46458231558378116 0.44211040547142155
0.35509173199989164 0.4684904738641915 0.4401563263312165
0.35530530300002283 0.4665363947239862 0.441133365901319
0.3555214469997736 0.46165119687347334 0.44211040547142155
0.35573020199990424 0.457743038593063 0.4460185637518319
0.3559377539995694 0.4538348803126526 0.4479726428920372
0.35615538000001834 0.4538348803126526 0.44894968246213973
0.3563758210002561 0.4479726428920372 0.45188080117244755
0.35662038999998913 0.4479726428920372 0.4636052760136786
0.3568446640001639 0.44699560332193444 0.45481191988275516
0.35707430799993745 0.4557889594528579 0.45969711773326827
0.35730341500038776 0.4557889594528579 0.4606741573033708
0.3575205229999483 0.45969711773326827 0.46262823644357587
0.357748704000187 0.4655593551538837 0.46165119687347334
0.3580190880002192 0.47239863214460187 0.46262823644357587
0.3583893770000941 0.4880312652662433 0.467513434294089
0.3586627619997671 0.49877870053737183 0.467513434294089
0.3589404599997579 0.5017098192476794 0.4655593551538837
0.35921869600042555 0.5065950170981925 0.46458231558378116
0.35952709800039884 0.5007327796775769 0.4606741573033708
0.35981892600011633 0.4978016609672691 0.457743038593063
0.36008969900012744 0.49975574010747437 0.4538348803126526
0.3603198060000068 0.49975574010747437 0.4509037616023448
0.36055032100011886 0.49975574010747437 0.44699560332193444
0.36075711299963586 0.5036638983878847 0.4460185637518319
0.36095694300001924 0.5007327796775769 0.44406448461162684
0.3611559949995353 0.5007327796775769 0.44211040547142155
0.3613528429996222 0.5026868588177822 0.44211040547142155
0.36156096899958357 0.5046409379579873 0.44211040547142155
0.36176333599996724 0.5046409379579873 0.4401563263312165
0.362011258000166 0.5095261358085001 0.4401563263312165
0.36222758700023405 0.5075720566682951 0.43917928676111373
0.36243060200013133 0.5046409379579873 0.441133365901319
0.362630894999711 0.49877870053737183 0.44211040547142155
0.36283366899988323 0.48998534440644836 0.441133365901319
0.36303573900022457 0.4802149487054226 0.441133365901319
0.36323629100024846 0.4753297508549097 0.4401563263312165
0.3634370839999974 0.4684904738641915 0.43917928676111373
0.3636374879997675 0.4655593551538837 0.4382022471910112
0.36383789199953753 0.4606741573033708 0.4382022471910112
0.3640375180002593 0.45676599902296044 0.4382022471910112
0.364238533000389 0.4557889594528579 0.4401563263312165
0.3644388259999687 0.45481191988275516 0.4401563263312165
0.3646388779998233 0.4528578407425501 0.44211040547142155
0.36483993000001647 0.4528578407425501 0.4460185637518319
0.3650732770001923 0.4538348803126526 0.44992672203224227
0.3652760140003011 0.4557889594528579 0.4538348803126526
0.36547330699977465 0.45676599902296044 0.45481191988275516
0.36567035899952316 0.46165119687347334 0.457743038593063
0.3658678190004139 0.4606741573033708 0.4606741573033708
0.36606622300041636 0.45969711773326827 0.467513434294089
0.36626260800039745 0.45969711773326827 0.45969711773326827
0.3664593080002305 0.45969711773326827 0.45969711773326827
0.3666559339999367 0.45676599902296044 0.4587200781631655
0.3668528750004043 0.45481191988275516 0.4587200781631655
0.367049649999899 0.4528578407425501 0.457743038593063
0.3672471090003455 0.44894968246213973 0.4538348803126526
0.3674449760001153 0.4460185637518319 0.45188080117244755
0.36764508400028717 0.43917928676111373 0.4557889594528579
0.3678423390001626 0.43624816805080613 0.4528578407425501
0.36804020599993237 0.4303859306301905 0.4528578407425501
0.36823762899985013 0.4255007327796776 0.44992672203224227
0.3684353660000852 0.4206155349291647 0.44699560332193444
0.36863282499962224 0.4157303370786516 0.4460185637518319
0.3688319140001113 0.4108451392281387 0.44699560332193444
0.3690292439996483 0.40693698094772834 0.4460185637518319
0.3692264809997141 0.403028822667318 0.4450415241817294
0.36942406999969535 0.4010747435271129 0.44699560332193444
0.369622010999592 0.3981436248168051 0.44894968246213973
0.3698198969996156 0.3961895456765998 0.44894968246213973
0.37004154100031883 0.3913043478260869 0.4528578407425501
0.3702399260000675 0.3883732291157791 0.4538348803126526
0.3704371820003871 0.38641914997557403 0.4538348803126526
0.3706414930002211 0.38446507083536874 0.45481191988275516
0.3708723409999948 0.38446507083536874 0.4557889594528579
0.37109302200042293 0.38446507083536874 0.45676599902296044
0.3713017959998979 0.38153395212506114 0.4557889594528579
0.37150625599952036 0.38251099169516367 0.4528578407425501
0.3717130109998834 0.3834880312652662 0.45676599902296044
0.3719338410001001 0.3805569125549584 0.4528578407425501
0.37214887400023144 0.38153395212506114 0.4538348803126526
0.37236294400008774 0.3834880312652662 0.44992672203224227
0.37257255199983774 0.38739618954567656 0.4538348803126526
0.3727899739997156 0.3932584269662922 0.45188080117244755
0.37305341299997963 0.40205178309721545 0.4509037616023448
0.37339311100004124 0.42159257449926724 0.44894968246213973
0.37376873399989563 0.43624816805080613 0.4460185637518319
0.37419385599969246 0.4538348803126526 0.44699560332193444
0.37461888599955273 0.45969711773326827 0.4528578407425501
0.3750510999998369 0.467513434294089 0.4538348803126526
0.3754118529996049 0.46458231558378116 0.45481191988275516
0.3757757719995425 0.46458231558378116 0.4528578407425501
0.37604589700004 0.4665363947239862 0.44992672203224227
0.3762943929996254 0.467513434294089 0.45188080117244755
0.3765805729999556 0.4684904738641915 0.44894968246213973
0.3768438460001562 0.46946751343429405 0.4479726428920372
0.3771240449996185 0.47728382999511476 0.4450415241817294
0.37734530000034283 0.4733756717147044 0.44699560332193444
0.37761288799993054 0.4763067904250122 0.4460185637518319
0.3778969570003028 0.4753297508549097 0.4479726428920372
0.3783558009999979 0.47923790913532005 0.44894968246213973
0.37859216699962417 0.4851001465559355 0.4509037616023448
0.37879329299994424 0.48705422569614076 0.45188080117244755
0.3789907150003273 0.48900830483634583 0.45188080117244755
0.37918861900016054 0.4909623839765511 0.45188080117244755
0.3793857640002898 0.4909623839765511 0.4509037616023448
0.3795835939999961 0.49193942354665365 0.45188080117244755
0.3797818120001466 0.49193942354665365 0.4509037616023448
0.379979123999874 0.4929164631167562 0.4509037616023448
0.3801767499999187 0.4938935026868587 0.4509037616023448
0.38037681999958295 0.4938935026868587 0.44894968246213973
0.38057394699990255 0.4938935026868587 0.4430874450415241
0.3807705729996087 0.49682462139716654 0.44406448461162684
0.3809693840003092 0.49682462139716654 0.441133365901319
0.3811669919996348 0.495847581827064 0.43917928676111373
0.3813640990001659 0.4938935026868587 0.43917928676111373
0.38156061399968166 0.4938935026868587 0.44699560332193444
0.3818949420001445 0.4948705422569615 0.4509037616023448
0.38213316000019404 0.4938935026868587 0.45188080117244755
0.38233248899996397 0.4909623839765511 0.45676599902296044
0.38252946699958557 0.48900830483634583 0.4587200781631655
0.38272750099986297 0.4811919882755251 0.4606741573033708
0.3830819579998206 0.4684904738641915 0.45676599902296044
0.3833101019999958 0.46458231558378116 0.457743038593063
0.38351165400035825 0.45676599902296044 0.4557889594528579
0.3837093720003395 0.4557889594528579 0.4557889594528579
0.38390673899994 0.4509037616023448 0.45188080117244755
0.38410479100002703 0.44992672203224227 0.4538348803126526
0.38430230599988136 0.44406448461162684 0.4528578407425501
0.38449930299975676 0.44211040547142155 0.45188080117244755
0.384697614000288 0.43917928676111373 0.44992672203224227
0.38489468500029034 0.43429408891060084 0.4509037616023448
0.38509199599957356 0.4333170493404983 0.45188080117244755
0.3852896039998086 0.43624816805080613 0.4509037616023448
0.3854878590000226 0.4382022471910112 0.45676599902296044
0.3856847260003633 0.44211040547142155 0.45481191988275516
0.385882223000408 0.4460185637518319 0.4538348803126526
0.3860821449998184 0.44406448461162684 0.45676599902296044
0.3862792529998842 0.4430874450415241 0.4538348803126526
0.3864758419995269 0.4430874450415241 0.4528578407425501
0.38673039300010714 0.441133365901319 0.4538348803126526
0.38693074099955993 0.43917928676111373 0.4557889594528579
0.3871282379996046 0.43722520762090866 0.45481191988275516
0.3873253450001357 0.43722520762090866 0.4528578407425501
0.387521693999588 0.4333170493404983 0.45188080117244755
0.3877362080002058 0.4333170493404983 0.4479726428920372
0.3879342230002294 0.4323400097703958 0.44699560332193444
0.38813123799991445 0.42745481191988266 0.44406448461162684
0.38832854999964184 0.42256961406936977 0.441133365901319
0.38852586099983455 0.4186614557889594 0.43917928676111373
0.38873402399985935 0.41182217879824123 0.44406448461162684
0.3889448720001383 0.4079140205178309 0.44211040547142155
0.38916668299953017 0.403028822667318 0.441133365901319
0.3893735129995548 0.39912066438690763 0.4450415241817294
0.3895762680003827 0.3913043478260869 0.44406448461162684
0.389793727000324 0.39228138739618945 0.4460185637518319
0.3900707220000186 0.38935026868588185 0.4460185637518319
0.3902859410000019 0.38935026868588185 0.4460185637518319
0.3905070849996264 0.3834880312652662 0.4479726428920372
0.39072082199982106 0.38641914997557403 0.4460185637518319
0.390949059000377 0.3805569125549584 0.4430874450415241
0.3912261280001985 0.3854421104054715 0.4450415241817294
0.3914721049995933 0.3903273082559844 0.44406448461162684
0.3916726010002094 0.38739618954567656 0.44699560332193444
0.3918723010001486 0.3932584269662922 0.44894968246213973
0.392068854000172 0.38641914997557403 0.44992672203224227
0.3922671829996034 0.38739618954567656 0.45188080117244755
0.39246473499952117 0.3903273082559844 0.457743038593063
0.3926620649999677 0.3952125061064973 0.457743038593063
0.3928626360002454 0.4059599413776258 0.4587200781631655
0.39305892900028994 0.41963849535906195 0.46165119687347334
0.393260814000314 0.4352711284807034 0.46165119687347334
0.39345881000008376 0.44699560332193444 0.4636052760136786
0.3937212319997343 0.4665363947239862 0.46262823644357587
0.3939772269995956 0.4665363947239862 0.4606741573033708
0.39418050099993707 0.47142159257449934 0.46458231558378116
0.3943808309995802 0.47435271128480694 0.4606741573033708
0.39457841999956145 0.47435271128480694 0.46165119687347334
0.3947750649995214 0.4763067904250122 0.46165119687347334
0.394973358000243 0.47923790913532005 0.46165119687347334
0.39517074299965316 0.4802149487054226 0.46165119687347334
0.3953680169997824 0.4763067904250122 0.46165119687347334
0.395566031999806 0.47728382999511476 0.45676599902296044
0.39576513999963936 0.4753297508549097 0.45676599902296044
0.3959627289996206 0.4704445530043966 0.4538348803126526
0.39616013300019404 0.4704445530043966 0.4528578407425501
0.396362092000345 0.46946751343429405 0.44992672203224227
0.396560051999586 0.46946751343429405 0.44894968246213973
0.39675686299960944 0.4704445530043966 0.44992672203224227
0.39695385899995017 0.46946751343429405 0.44699560332193444
0.397150652000164 0.46262823644357587 0.4479726428920372
0.3973476490000394 0.46262823644357587 0.4479726428920372
0.3975456079997457 0.45969711773326827 0.44992672203224227
0.39774256799955765 0.457743038593063 0.44699560332193444
0.3979529159996673 0.45969711773326827 0.44992672203224227
0.3981535969996912 0.4606741573033708 0.4509037616023448
0.3983503350000319 0.46458231558378116 0.4606741573033708
0.3985478679996959 0.46946751343429405 0.4509037616023448
0.3987470869997196 0.47435271128480694 0.45188080117244755
0.3989443979999123 0.47923790913532005 0.44992672203224227
0.3991416170001685 0.4831460674157304 0.44894968246213973
0.39933839100012847 0.48998534440644836 0.44992672203224227
0.3995362389996444 0.4948705422569615 0.4509037616023448
0.3997326990001966 0.49877870053737183 0.45188080117244755
0.39993030699952214 0.5017098192476794 0.4538348803126526
0.4001276549997783 0.5036638983878847 0.4528578407425501
0.4003242999997383 0.5085490962383976 0.4538348803126526
0.40052137000020593 0.5095261358085001 0.4557889594528579
0.4007193110001026 0.5065950170981925 0.4538348803126526
0.4009168820002742 0.5065950170981925 0.45676599902296044
0.40111421100027655 0.5046409379579873 0.45676599902296044
0.401312801000131 0.5056179775280898 0.45676599902296044
0.40151046400023915 0.5056179775280898 0.45676599902296044
0.40170847900026274 0.5085490962383976 0.4557889594528579
0.4019066600003498 0.5065950170981925 0.4538348803126526
0.4021182119995501 0.5065950170981925 0.4528578407425501
0.4023151350002081 0.5046409379579873 0.4528578407425501
0.40251163100037957 0.49975574010747437 0.44992672203224227
0.40270872000019153 0.4948705422569615 0.44699560332193444
0.40290636499958055 0.48705422569614076 0.4479726428920372
0.4031038430002809 0.48216902784562765 0.45188080117244755
0.4033239500004129 0.47923790913532005 0.4509037616023448
0.40352637199976016 0.4733756717147044 0.4528578407425501
0.4037254610002492 0.4704445530043966 0.4528578407425501
0.40392366200012475 0.46458231558378116 0.45188080117244755
0.40412147299957724 0.4636052760136786 0.44894968246213973
0.4043189320000238 0.46262823644357587 0.44992672203224227
0.4045163359996877 0.45969711773326827 0.4479726428920372
0.4047153139999864 0.457743038593063 0.44699560332193444
0.40491186599956563 0.4528578407425501 0.4460185637518319
0.4051101220002238 0.4557889594528579 0.4460185637518319
0.4053080069998032 0.4528578407425501 0.44406448461162684
0.4055059299998902 0.45188080117244755 0.4450415241817294
0.4057037410002522 0.44894968246213973 0.4450415241817294
0.4059017190002123 0.44699560332193444 0.4450415241817294
0.40611927099962486 0.44699560332193444 0.44699560332193444
0.40632078599992383 0.4450415241817294 0.44699560332193444
0.4065294490001179 0.4450415241817294 0.44992672203224227
0.4067306670003745 0.441133365901319 0.4509037616023448
0.40693118200033496 0.4401563263312165 0.44992672203224227
0.40713128999959736 0.44211040547142155 0.44992672203224227
0.407332064000002 0.43917928676111373 0.44894968246213973
0.40753161599968735 0.4382022471910112 0.44992672203224227
0.4077313719999438 0.43722520762090866 0.4509037616023448
0.4079316090001157 0.43624816805080613 0.45188080117244755
0.40813154999977996 0.431362970200293 0.4538348803126526
0.4083309719999306 0.4264777723497801 0.4557889594528579
0.40853246900041995 0.42256961406936977 0.4557889594528579
0.40873309499966126 0.41670737664875435 0.4557889594528579
0.4089333499996428 0.41182217879824123 0.4509037616023448
0.40913388399985706 0.4079140205178309 0.44894968246213973
0.4093343989998175 0.4040058622374205 0.44894968246213973
0.40953422900020087 0.39716658524670256 0.4450415241817294
0.409734687999844 0.39423546653639474 0.44699560332193444
0.4099487029998272 0.39228138739618945 0.44406448461162684
0.4101819580000665 0.3883732291157791 0.441133365901319
0.4103864729995621 0.3854421104054715 0.4401563263312165
0.4105842839999241 0.3854421104054715 0.4401563263312165
0.4107813359996726 0.38446507083536874 0.441133365901319
0.41097862900005566 0.3805569125549584 0.441133365901319
0.41117632900022727 0.3805569125549584 0.4450415241817294
0.4113733260001027 0.3776257938446508 0.44406448461162684
0.41184968699963065 0.3776257938446508 0.44406448461162684
0.41207066500010114 0.3756717147044455 0.44406448461162684
0.4122714579998501 0.3756717147044455 0.44211040547142155
0.4124706390002757 0.37274059599413767 0.44406448461162684
0.41266946900032053 0.3707865168539326 0.44406448461162684
0.4128680579997308 0.3805569125549584 0.441133365901319
0.41306453600009263 0.38153395212506114 0.4430874450415241
0.4132621990002008 0.3883732291157791 0.44406448461162684
0.41345863999958965 0.39912066438690763 0.4460185637518319
0.4136554699998669 0.40693698094772834 0.44699560332193444
0.41385224500027107 0.41475329750854906 0.4509037616023448
0.41406135200031713 0.42256961406936977 0.4509037616023448
0.41425927399996 0.42745481191988266 0.44894968246213973
0.4144563259997085 0.4352711284807034 0.4450415241817294
0.4146529899999223 0.4382022471910112 0.4450415241817294
0.4148504490003688 0.44406448461162684 0.441133365901319
0.4150474830003077 0.44699560332193444 0.441133365901319
0.4152447200003735 0.44699560332193444 0.4401563263312165
0.41544121599963546 0.4479726428920372 0.4430874450415241
0.4156384910002089 0.44406448461162684 0.4479726428920372
0.41583524599991506 0.44894968246213973 0.45188080117244755
0.41603250200023467 0.44894968246213973 0.4587200781631655
0.41622920200006774 0.4528578407425501 0.4655593551538837
0.41642560600030265 0.45969711773326827 0.4665363947239862
0.41662200999962806 0.46262823644357587 0.47142159257449934
0.41682263599977887 0.4684904738641915 0.4763067904250122
0.4170204479996755 0.4763067904250122 0.4684904738641915
0.4172176109996144 0.48412310698583294 0.46946751343429405
0.4174164220003149 0.4880312652662433 0.4665363947239862
0.41761391799991543 0.495847581827064 0.4655593551538837
0.41781054500006576 0.49975574010747437 0.45969711773326827
0.41803072600032465 0.5056179775280898 0.45676599902296044
0.418227926000327 0.5114802149487054 0.4557889594528579
0.41842558899952564 0.5153883732291158 0.4538348803126526
0.41862297500028944 0.5192965315095261 0.4528578407425501
0.41882028599957266 0.5280898876404494 0.44699560332193444
0.4190175969997654 0.533952125061065 0.44699560332193444
0.4192149270002119 0.5368832437713726 0.4450415241817294
0.41941140499966423 0.5388373229115779 0.44406448461162684
0.4196140499998364 0.5388373229115779 0.4430874450415241
0.4198108049995426 0.5368832437713726 0.44211040547142155
0.4200083019995873 0.5290669272105519 0.4382022471910112
0.4202054090001184 0.5261358085002443 0.43624816805080613
0.4204388870002731 0.5202735710796287 0.4333170493404983
0.42063751299974683 0.5173424523693209 0.43722520762090866
0.42083495400038373 0.5144113336590133 0.43429408891060084
0.4210318579998784 0.5144113336590133 0.43917928676111373
0.4212292800002615 0.5114802149487054 0.4382022471910112
0.42142533199967147 0.512457254518808 0.44406448461162684
0.4216224579995469 0.5105031753786029 0.4430874450415241
0.4218188069999087 0.5095261358085001 0.4460185637518319
0.42203024700029346 0.5105031753786029 0.44699560332193444
0.42222722499991505 0.5056179775280898 0.4509037616023448
0.42242453699964244 0.5017098192476794 0.44992672203224227
0.4226219590000255 0.4948705422569615 0.4509037616023448
0.42281856699992204 0.48216902784562765 0.4509037616023448
0.42301595200024167 0.4753297508549097 0.4509037616023448
0.42321344900028635 0.4636052760136786 0.4538348803126526
0.4234108339996965 0.45676599902296044 0.45481191988275516
0.4236102380000375 0.44894968246213973 0.4538348803126526
0.42382512299991504 0.4509037616023448 0.4557889594528579
0.4240258050003831 0.441133365901319 0.45676599902296044
0.4242222089997085 0.4352711284807034 0.45676599902296044
0.42441892700026074 0.43624816805080613 0.4557889594528579
0.4246159610001996 0.4323400097703958 0.45481191988275516
0.42481575399961 0.431362970200293 0.45188080117244755
0.42501221299971803 0.4323400097703958 0.44894968246213973
0.42520952399991074 0.4323400097703958 0.4479726428920372
0.4254070759998285 0.43917928676111373 0.44992672203224227
0.42560323999987304 0.44211040547142155 0.4450415241817294
0.42580282899962185 0.44211040547142155 0.4479726428920372
0.42602808399988135 0.44406448461162684 0.44992672203224227
0.426225154000349 0.44699560332193444 0.45188080117244755
0.4264210399996955 0.4479726428920372 0.4528578407425501
0.4266174249996766 0.44699560332193444 0.4557889594528579
0.42681394000010187 0.44406448461162684 0.4538348803126526
0.42701091799972346 0.4450415241817294 0.4528578407425501
0.4272091000002547 0.44699560332193444 0.45969711773326827
0.42740591100027814 0.44406448461162684 0.457743038593063
0.42760322300000553 0.4450415241817294 0.457743038593063
0.42780079299973295 0.441133365901319 0.45969711773326827
0.42799784500039095 0.43624816805080613 0.4606741573033708
0.4281946569999491 0.4333170493404983 0.46262823644357587
0.4283911160000571 0.4264777723497801 0.46262823644357587
0.42858753800010163 0.4176844162188569 0.46165119687347334
0.42878394200033654 0.41182217879824123 0.46262823644357587
0.4289821239999583 0.4040058622374205 0.46165119687347334
0.4292026760003864 0.40205178309721545 0.4665363947239862
0.42940441300015664 0.39716658524670256 0.4587200781631655
0.4296020199999475 0.39228138739618945 0.45969711773326827
0.429799071999696 0.38935026868588185 0.46165119687347334
0.4300167350002084 0.3854421104054715 0.45969711773326827
0.43021547199987253 0.38251099169516367 0.457743038593063
0.4304142840001077 0.3776257938446508 0.45481191988275516
0.4306115019999197 0.3756717147044455 0.45481191988275516
0.4308084060003239 0.376648754274548 0.44992672203224227
0.4310059950003051 0.3707865168539326 0.44699560332193444
0.43120319599984214 0.36980947728383007 0.44699560332193444
0.43140024799959065 0.3688324377137273 0.4460185637518319
0.4315968549999525 0.37176355642403514 0.44699560332193444
0.4317941669996799 0.37274059599413767 0.4479726428920372
0.431990830000359 0.3707865168539326 0.44894968246213973
0.4321874369998113 0.37176355642403514 0.44894968246213973
0.43238572999962344 0.3737176355642404 0.44894968246213973
0.4325837269998374 0.3786028334147533 0.4460185637518319
0.4327803340001992 0.37957987298485585 0.4450415241817294
0.4329769229998419 0.38446507083536874 0.44406448461162684
0.4331744009996328 0.3913043478260869 0.4352711284807034
0.4333710089995293 0.40009770395701016 0.43624816805080613
0.4335865789998934 0.40986809965803617 0.43624816805080613
0.4337865759998749 0.4176844162188569 0.43722520762090866
0.43398494299981394 0.4303859306301905 0.4352711284807034
0.4341848089998166 0.43722520762090866 0.4382022471910112
0.43438234299992473 0.4450415241817294 0.4430874450415241
0.434579617000054 0.45188080117244755 0.4430874450415241
0.4347766880000563 0.457743038593063 0.4479726428920372
0.4349732029995721 0.4665363947239862 0.45188080117244755
0.43517145900023024 0.47142159257449934 0.4509037616023448
0.4353681960001268 0.47435271128480694 0.4528578407425501
0.43556587700004457 0.47239863214460187 0.45188080117244755
0.43576337400008924 0.47239863214460187 0.4528578407425501
0.43595975900007033 0.47435271128480694 0.45188080117244755
0.4361573300002419 0.4782608695652173 0.4528578407425501
0.43636667800001305 0.47923790913532005 0.44992672203224227
0.43656663700039644 0.4831460674157304 0.45188080117244755
0.43676392999987 0.4851001465559355 0.4557889594528579
0.43696133399953396 0.48900830483634583 0.4557889594528579
0.4371586830002343 0.49193942354665365 0.44992672203224227
0.43735904900040623 0.4948705422569615 0.45188080117244755
0.4375581009999223 0.49682462139716654 0.44894968246213973
0.4377896160003729 0.4938935026868587 0.4538348803126526
0.4380329260002327 0.495847581827064 0.4528578407425501
0.4382483110002795 0.49682462139716654 0.4479726428920372
0.4384645299996919 0.49975574010747437 0.4509037616023448
0.4386803779998445 0.5026868588177822 0.44894968246213973
0.43890509599987126 0.5056179775280898 0.44992672203224227
0.43913783300013165 0.5202735710796287 0.44894968246213973
0.43937217999973655 0.5202735710796287 0.44992672203224227
0.43961441699957504 0.5251587689301416 0.44992672203224227
0.4398428200001945 0.5280898876404494 0.4538348803126526
0.4400674270000309 0.5271128480703469 0.4528578407425501
0.44061530599992693 0.512457254518808 0.457743038593063
0.44100531799995224 0.5046409379579873 0.4538348803126526
0.44129755300036777 0.4978016609672691 0.4557889594528579
0.44156069699965883 0.49682462139716654 0.4509037616023448
0.4419061540002076 0.4948705422569615 0.45481191988275516
0.4422873880002953 0.49193942354665365 0.45188080117244755
0.4425901969998449 0.486077186126038 0.4509037616023448
0.44285963699985587 0.4753297508549097 0.4538348803126526
0.44309787299971504 0.4684904738641915 0.44992672203224227
0.4433232029996361 0.46262823644357587 0.4479726428920372
0.44355003199962084 0.45481191988275516 0.4450415241817294
0.443803619999926 0.44992672203224227 0.44406448461162684
0.4440461710000818 0.44406448461162684 0.44406448461162684
0.444278648999898 0.44211040547142155 0.4450415241817294
0.44450186700032646 0.44406448461162684 0.4460185637518319
0.44472243699965475 0.44406448461162684 0.44699560332193444
0.444938896000167 0.4430874450415241 0.4460185637518319
0.4451449300004242 0.4450415241817294 0.4479726428920372
0.44535129599989887 0.4460185637518319 0.4509037616023448
0.4455523300002824 0.4479726428920372 0.44894968246213973
0.4458195289998912 0.44894968246213973 0.4509037616023448
0.44604704300036246 0.44699560332193444 0.45188080117244755
0.4462477429997307 0.4479726428920372 0.45188080117244755
0.44644529499964847 0.4450415241817294 0.45969711773326827
0.4466442359998837 0.4460185637518319 0.4509037616023448
0.44684114000028785 0.4450415241817294 0.44894968246213973
0.4470389329999307 0.44699560332193444 0.4528578407425501
0.44723620700005995 0.44699560332193444 0.44992672203224227
0.4474334070000623 0.4460185637518319 0.4479726428920372
0.44763279299968417 0.4538348803126526 0.44699560332193444
0.44783091899989813 0.4430874450415241 0.4479726428920372
0.4480278969995197 0.441133365901319 0.4450415241817294
0.4482272449995435 0.43722520762090866 0.4479726428920372
0.4484256859996094 0.431362970200293 0.44699560332193444
0.4486229969998021 0.4235466536394723 0.4479726428920372
0.44882169799984695 0.41670737664875435 0.4509037616023448
0.4490187869996589 0.40986809965803617 0.44992672203224227
0.4492167460002747 0.403028822667318 0.4509037616023448
0.4494142240000656 0.3961895456765998 0.4528578407425501
0.44961172100011026 0.39228138739618945 0.44992672203224227
0.44981010599985893 0.3883732291157791 0.4509037616023448
0.4500268430001597 0.38641914997557403 0.44894968246213973
0.4502366910001001 0.3834880312652662 0.4509037616023448
0.45044207600039954 0.38153395212506114 0.4528578407425501
0.45065181300014956 0.38251099169516367 0.4538348803126526
0.4508520689996658 0.38251099169516367 0.4538348803126526
0.45105443600004946 0.3834880312652662 0.45188080117244755
0.45125232099962886 0.3786028334147533 0.45188080117244755
0.45144948399956775 0.37957987298485585 0.4479726428920372
0.45166468400020676 0.3756717147044455 0.4460185637518319
0.4518876800002545 0.3737176355642404 0.4460185637518319
0.4521032499997091 0.3737176355642404 0.44406448461162684
0.4523366169996734 0.3707865168539326 0.4460185637518319
0.45261163000031956 0.37274059599413767 0.4460185637518319
0.4529209029997219 0.38446507083536874 0.44992672203224227
0.4532440269995277 0.4010747435271129 0.4509037616023448
0.4536105019997194 0.42159257449926724 0.45188080117244755
0.4540489009996236 0.4430874450415241 0.4557889594528579
0.45473433299957833 0.45969711773326827 0.457743038593063
0.4552098249996561 0.4684904738641915 0.4587200781631655
0.4555165969995869 0.46946751343429405 0.45969711773326827
0.4557448530003967 0.4704445530043966 0.46262823644357587
0.45596207099970343 0.4753297508549097 0.4665363947239862
0.4561656039995796 0.47142159257449934 0.46458231558378116
0.45637113799966755 0.46946751343429405 0.46458231558378116
0.4565693750000719 0.46946751343429405 0.4636052760136786
0.4567666860002646 0.47142159257449934 0.4655593551538837
0.45696466400022473 0.4665363947239862 0.4655593551538837
0.4571621420000156 0.467513434294089 0.46165119687347334
0.4573643789999551 0.467513434294089 0.4587200781631655
0.45757402399976854 0.47142159257449934 0.457743038593063
0.4577993350003453 0.47239863214460187 0.4509037616023448
0.4580597559997841 0.47435271128480694 0.44699560332193444
0.4582651040000201 0.48216902784562765 0.44211040547142155
0.45846591499957867 0.48705422569614076 0.441133365901319
0.4586638190003214 0.48998534440644836 0.4382022471910112
0.45886611199966865 0.4938935026868587 0.4401563263312165
0.4590638489999037 0.49682462139716654 0.43722520762090866
0.4592616050003926 0.495847581827064 0.4382022471910112
0.45945906399992964 0.495847581827064 0.43429408891060084
0.45965717200033396 0.49193942354665365 0.43917928676111373
0.4598544459995537 0.4909623839765511 0.43624816805080613
0.4600515539996195 0.49193942354665365 0.43624816805080613
0.46024890199987567 0.4929164631167562 0.43624816805080613
0.4604473990002589 0.49682462139716654 0.4352711284807034
0.4606444510000074 0.5017098192476794 0.4382022471910112
0.4608422250003059 0.49682462139716654 0.4352711284807034
0.46104033299980074 0.4938935026868587 0.4382022471910112
0.46124530999986746 0.4929164631167562 0.43722520762090866
0.4614431769996372 0.4938935026868587 0.43722520762090866
0.46164006300023175 0.4948705422569615 0.43917928676111373
0.461837058999663 0.4978016609672691 0.44211040547142155
0.4620469999999841 0.5017098192476794 0.4430874450415241
0.4622448849995635 0.5075720566682951 0.4450415241817294
0.4624426219997986 0.5085490962383976 0.44699560332193444
0.4626393230000758 0.5065950170981925 0.4479726428920372
0.4628364119998878 0.5017098192476794 0.45188080117244755
0.4630330560003131 0.49877870053737183 0.4509037616023448
