0 0.3639472398632144 0.4157303370786516
0.0023900769992906135 0.3629702002931119 0.4851001465559355
0.0029444199990393827 0.36492427943331696 0.5026868588177822
0.003273749000072712 0.3678553981436248 0.5114802149487054
0.0036417619994608685 0.3737176355642404 0.5153883732291158
0.0039029809995554388 0.3756717147044455 0.5163654127992183
0.0041118289991572965 0.38153395212506114 0.5095261358085001
0.004323677998399944 0.38446507083536874 0.5075720566682951
0.004563211999993655 0.3932584269662922 0.5065950170981925
0.004785745999470237 0.4010747435271129 0.5017098192476794
0.004996075998860761 0.4040058622374205 0.5017098192476794
0.005211183999563218 0.40986809965803617 0.4929164631167562
0.005427310999948531 0.4186614557889594 0.48705422569614076
0.0056566039984318195 0.4303859306301905 0.4733756717147044
0.006092394000006607 0.441133365901319 0.4636052760136786
0.006356778998451773 0.45481191988275516 0.45481191988275516
0.006663162999757333 0.47435271128480694 0.44992672203224227
0.006924047998836613 0.4851001465559355 0.4430874450415241
0.007133044999136473 0.4978016609672691 0.42940889106008795
0.007343134999246104 0.512457254518808 0.42256961406936977
0.0075611869997374015 0.5192965315095261 0.41182217879824123
0.007772517999910633 0.5300439667806547 0.403028822667318
0.007988513998498092 0.5378602833414754 0.3981436248168051
0.008198733999961405 0.5417684416218858 0.39423546653639474
0.008407600998907583 0.5476306790425012 0.3913043478260869
0.008627115999843227 0.5515388373229115 0.39228138739618945
0.00884246499845176 0.5515388373229115 0.3981436248168051
0.00905114699889964 0.5476306790425012 0.4040058622374205
0.009249347998775193 0.5495847581827065 0.4010747435271129
0.009448733999306569 0.5495847581827065 0.4010747435271129
0.009661026999310707 0.5466536394723986 0.40205178309721545
0.010048521999124205 0.5495847581827065 0.4108451392281387
0.010290369998983806 0.5534929164631168 0.4137762579384465
0.010562050998487393 0.550561797752809 0.42159257449926724
0.010782862998894416 0.5486077186126037 0.42159257449926724
0.010995915999956196 0.5525158768930141 0.4333170493404983
0.011325521998514887 0.5534929164631168 0.4382022471910112
0.011634016998868901 0.5476306790425012 0.44211040547142155
0.011855606999233714 0.5495847581827065 0.4460185637518319
0.01207136299854028 0.5476306790425012 0.4479726428920372
0.012283433999982662 0.5456765999022961 0.44992672203224227
0.012520819998826482 0.5437225207620908 0.4538348803126526
0.012743149998641456 0.5417684416218858 0.4509037616023448
0.013013126999794622 0.5368832437713726 0.44406448461162684
0.013300659999003983 0.5319980459208598 0.4450415241817294
0.013550193998526083 0.522227650219834 0.4528578407425501
0.013965464999273536 0.5085490962383976 0.4587200781631655
0.014262868999139755 0.4938935026868587 0.4528578407425501
0.01468667699919024 0.4763067904250122 0.45188080117244755
0.015157373998590629 0.457743038593063 0.4557889594528579
0.015729254999314435 0.43917928676111373 0.4655593551538837
0.01599412099858455 0.42452369320957506 0.4782608695652173
0.01624096999876201 0.4157303370786516 0.47923790913532005
0.016474873998959083 0.4059599413776258 0.48998534440644836
0.016693962999852374 0.39716658524670256 0.4851001465559355
0.01691346000006888 0.38935026868588185 0.48412310698583294
0.017204733998369193 0.37957987298485585 0.4831460674157304
0.0174393039997085 0.3756717147044455 0.4782608695652173
0.017655708999882336 0.3707865168539326 0.47728382999511476
0.01797603699924366 0.36980947728383007 0.47728382999511476
0.018187052999564912 0.3688324377137273 0.47923790913532005
0.018398308999167057 0.37274059599413767 0.4811919882755251
0.01860721299999568 0.36980947728383007 0.4753297508549097
0.018824450999090914 0.3707865168539326 0.4636052760136786
0.019057761999647482 0.37176355642403514 0.45676599902296044
0.019273721998615656 0.3737176355642404 0.457743038593063
0.019486755998514127 0.3737176355642404 0.4587200781631655
0.01972343799934606 0.37469467513434296 0.4587200781631655
0.020015914999021334 0.37274059599413767 0.46262823644357587
0.020228819999829284 0.36980947728383007 0.46458231558378116
0.020441334998395178 0.3688324377137273 0.4753297508549097
0.02065309099998558 0.3688324377137273 0.486077186126038
0.020867347999228514 0.3678553981436248 0.4811919882755251
0.021081436998429126 0.36687835857352225 0.48216902784562765
0.0212923969993426 0.3688324377137273 0.4753297508549097
0.02160004100005608 0.3659013190034197 0.4684904738641915
0.021886998998525087 0.36492427943331696 0.467513434294089
0.022100607999163913 0.3659013190034197 0.46262823644357587
0.02231399299853365 0.3639472398632144 0.457743038593063
0.022530989999722806 0.36492427943331696 0.46165119687347334
0.022798578998845187 0.36492427943331696 0.46262823644357587
0.02305722299934132 0.3678553981436248 0.4704445530043966
0.02328588699856482 0.3678553981436248 0.47435271128480694
0.023521475999586983 0.3707865168539326 0.4753297508549097
0.02376667599855864 0.3756717147044455 0.4733756717147044
0.02401880199977313 0.3805569125549584 0.46458231558378116
0.024314667998623918 0.3854421104054715 0.44894968246213973
0.02456618299947877 0.3913043478260869 0.4382022471910112
0.024816586999804713 0.4010747435271129 0.4255007327796776
0.02504276899890101 0.4059599413776258 0.4206155349291647
0.025253857998905005 0.41475329750854906 0.4176844162188569
0.025459114998739096 0.42159257449926724 0.4206155349291647
0.0256702229999064 0.431362970200293 0.42256961406936977
0.02598625499922491 0.4401563263312165 0.4186614557889594
0.02623875199969916 0.44699560332193444 0.4137762579384465
0.026474673999473453 0.45969711773326827 0.40986809965803617
0.02672405900011654 0.4704445530043966 0.40693698094772834
0.02697392599839077 0.486077186126038 0.412799218368344
0.02718883099987579 0.4938935026868587 0.4186614557889594
0.027397382998969988 0.5095261358085001 0.41475329750854906
0.02760839899929124 0.5192965315095261 0.4176844162188569
0.027824302998851635 0.5290669272105519 0.4137762579384465
0.028035669998644153 0.5349291646311676 0.4186614557889594
0.028263018999496126 0.5495847581827065 0.41670737664875435
0.02851819999887084 0.5476306790425012 0.4206155349291647
0.028726326998366858 0.550561797752809 0.4235466536394723
0.028994730999329477 0.550561797752809 0.4255007327796776
0.02920907899897429 0.5515388373229115 0.42745481191988266
0.029412223999315756 0.5525158768930141 0.431362970200293
0.029621683999721427 0.5544699560332194 0.4323400097703958
0.029907531999924686 0.5534929164631168 0.4333170493404983
0.030148676998578594 0.5525158768930141 0.43917928676111373
0.030456968999715173 0.5534929164631168 0.44406448461162684
0.030860906999805593 0.5534929164631168 0.45481191988275516
0.031322363998697256 0.5515388373229115 0.4665363947239862
0.031898558998364024 0.5515388373229115 0.46946751343429405
0.032294404998538084 0.5495847581827065 0.4704445530043966
0.032795582999824546 0.540791402051783 0.46946751343429405
0.03314244899956975 0.5310210063507572 0.4655593551538837
0.03342190799958189 0.5280898876404494 0.4587200781631655
0.03366423699844745 0.5134342940889105 0.45676599902296044
0.034027787998638814 0.5085490962383976 0.4557889594528579
0.034262154998941696 0.4948705422569615 0.4587200781631655
0.03452872499838122 0.48412310698583294 0.467513434294089
0.03484509099871502 0.47142159257449934 0.47923790913532005
0.03514280899980804 0.4587200781631655 0.47923790913532005
0.03539758299848472 0.45188080117244755 0.4763067904250122
0.03565694899953087 0.441133365901319 0.47728382999511476
0.03596555599870044 0.4284318514899854 0.47239863214460187
0.036293643999670167 0.4186614557889594 0.4802149487054226
0.036608806000003824 0.4010747435271129 0.4880312652662433
0.0368934319994878 0.39716658524670256 0.4929164631167562
0.03719268699933309 0.3854421104054715 0.48998534440644836
0.03747899699919799 0.37957987298485585 0.4851001465559355
0.03785926999989897 0.37176355642403514 0.45481191988275516
0.038138803000038024 0.3678553981436248 0.4333170493404983
0.03840040999966732 0.3659013190034197 0.42256961406936977
0.03864110999893455 0.36492427943331696 0.41963849535906195
0.03889538399926096 0.3688324377137273 0.4255007327796776
0.03967581699907896 0.36980947728383007 0.45676599902296044
0.04072913599884487 0.36492427943331696 0.45969711773326827
0.04119275899938657 0.3659013190034197 0.46165119687347334
0.04159390099994198 0.3639472398632144 0.44992672203224227
0.04225222499917436 0.36492427943331696 0.4323400097703958
0.04292860399982601 0.3629702002931119 0.43917928676111373
0.04333502400004363 0.3639472398632144 0.44699560332193444
0.04378707299838425 0.37176355642403514 0.4557889594528579
0.0441319379988272 0.37957987298485585 0.4557889594528579
0.04436395399898174 0.3834880312652662 0.45188080117244755
0.044588783999643056 0.39423546653639474 0.44894968246213973
0.04480766899905575 0.3981436248168051 0.4460185637518319
0.04502240699912363 0.40205178309721545 0.44211040547142155
0.045227811999211553 0.40889106008793363 0.43722520762090866
0.04546586399919761 0.4206155349291647 0.4352711284807034
0.04579452599864453 0.4323400097703958 0.44211040547142155
0.04608328099857317 0.44211040547142155 0.44992672203224227
0.04632405499978631 0.45481191988275516 0.45481191988275516
0.046543773998564575 0.4665363947239862 0.45969711773326827
0.046756048999668565 0.4782608695652173 0.46458231558378116
0.04695717599861382 0.48998534440644836 0.4704445530043966
0.04715509899870085 0.5036638983878847 0.46458231558378116
0.04735546599840745 0.5114802149487054 0.46262823644357587
0.047579073998349486 0.5232046897899365 0.457743038593063
0.047812367000005906 0.5329750854909623 0.4479726428920372
0.04805025199857482 0.5378602833414754 0.43917928676111373
0.04825958299988997 0.5427454811919883 0.4333170493404983
0.04846957999870938 0.5446995603321934 0.42745481191988266
0.048724723999839625 0.5446995603321934 0.42159257449926724
0.04897905399957381 0.5437225207620908 0.42256961406936977
0.049237938999795006 0.5427454811919883 0.42159257449926724
0.049518304998855456 0.5476306790425012 0.42452369320957506
0.04980511599933379 0.5446995603321934 0.4333170493404983
0.050101389999326784 0.5495847581827065 0.431362970200293
0.05040656999881321 0.5486077186126037 0.4186614557889594
0.050868155998614384 0.5525158768930141 0.3883732291157791
0.05142049999994924 0.5515388373229115 0.37176355642403514
0.05173366199960583 0.5515388373229115 0.3707865168539326
0.052000992000103 0.5525158768930141 0.37469467513434296
0.05224437699871487 0.5525158768930141 0.38153395212506114
0.05246476299907954 0.550561797752809 0.4040058622374205
0.052663389998997445 0.5486077186126037 0.41963849535906195
0.05286168299971905 0.5476306790425012 0.4479726428920372
0.053059402998769656 0.5437225207620908 0.4763067904250122
0.053257306999512366 0.5446995603321934 0.49682462139716654
0.05346011899928271 0.5359062042012701 0.5105031753786029
0.05365767199873517 0.5280898876404494 0.5212506106497312
0.05386727999939467 0.5212506106497312 0.5290669272105519
0.05406444399886823 0.5114802149487054 0.5359062042012701
0.054260829998384 0.5036638983878847 0.5398143624816805
0.054458030999740004 0.49975574010747437 0.5388373229115779
0.05465584299963666 0.4929164631167562 0.5437225207620908
0.05485593199955474 0.4831460674157304 0.540791402051783
0.05505357799847843 0.4763067904250122 0.5300439667806547
0.0552506119984173 0.46458231558378116 0.5329750854909623
0.05544799800009059 0.46262823644357587 0.533952125061065
0.05567480899844668 0.44894968246213973 0.5359062042012701
0.05587791799916886 0.44211040547142155 0.540791402051783
0.056075266998959705 0.431362970200293 0.550561797752809
0.05627372699927946 0.42256961406936977 0.5534929164631168
0.056471871999747236 0.4176844162188569 0.5534929164631168
0.05666897999981302 0.41182217879824123 0.5456765999022961
0.05686656999932893 0.40009770395701016 0.5398143624816805
0.057064399999944726 0.3913043478260869 0.5114802149487054
0.057272934000138775 0.3883732291157791 0.4909623839765511
0.05747080199944321 0.38251099169516367 0.4684904738641915
0.05766779899931862 0.3834880312652662 0.44699560332193444
0.05790283299938892 0.3756717147044455 0.43429408891060084
0.05809979299920087 0.37176355642403514 0.4206155349291647
0.05829930899926694 0.3678553981436248 0.4059599413776258
0.05849752799986163 0.3659013190034197 0.40205178309721545
0.058695080999314087 0.3659013190034197 0.39912066438690763
0.05889198499971826 0.3659013190034197 0.3913043478260869
0.05908979699961492 0.36980947728383007 0.38251099169516367
0.05928855399906752 0.36980947728383007 0.37274059599413767
0.05948660600006406 0.37176355642403514 0.36980947728383007
0.05968719599877659 0.3707865168539326 0.3678553981436248
0.059883748999709496 0.37274059599413767 0.3707865168539326
0.06014211499859812 0.36980947728383007 0.38446507083536874
0.060368167998603894 0.3678553981436248 0.3952125061064973
0.0605839419986296 0.3678553981436248 0.41182217879824123
0.0607941429989296 0.3659013190034197 0.4235466536394723
0.061000584999419516 0.3659013190034197 0.4430874450415241
0.06121389599866234 0.3629702002931119 0.4460185637518319
0.06143146700014768 0.36199316072300936 0.4587200781631655
0.06163914899843803 0.36199316072300936 0.4636052760136786
0.06189816400001291 0.3629702002931119 0.4684904738641915
0.06213629000012588 0.3629702002931119 0.46946751343429405
0.06236030599939113 0.3610161211529066 0.46458231558378116
0.06257763599933241 0.36492427943331696 0.4655593551538837
0.06279216999973869 0.36199316072300936 0.45969711773326827
0.06301359299868636 0.3639472398632144 0.4528578407425501
0.06325377399844001 0.36492427943331696 0.44211040547142155
0.06349184499958938 0.36980947728383007 0.43429408891060084
0.06373880399951304 0.3737176355642404 0.4157303370786516
0.06404668899995158 0.3805569125549584 0.4079140205178309
0.06429199999911361 0.3883732291157791 0.40205178309721545
0.06453557099848695 0.3913043478260869 0.4040058622374205
0.06478867799887666 0.40009770395701016 0.40693698094772834
0.06506187800005137 0.40889106008793363 0.40986809965803617
0.06531444799838937 0.4137762579384465 0.41670737664875435
0.06554288899860694 0.41963849535906195 0.4235466536394723
0.06577470099909988 0.42940889106008795 0.4284318514899854
0.0659959569984494 0.441133365901319 0.431362970200293
0.06622517599862476 0.44894968246213973 0.43722520762090866
0.06644741399941267 0.457743038593063 0.44699560332193444
0.06667324399859353 0.4665363947239862 0.45188080117244755
0.06689123999967705 0.4782608695652173 0.45969711773326827
0.06711088500014739 0.48900830483634583 0.4753297508549097
0.06732204899890348 0.5036638983878847 0.48412310698583294
0.06751980499939236 0.5095261358085001 0.5046409379579873
0.0677956349991291 0.522227650219834 0.5046409379579873
0.06800481699974625 0.5290669272105519 0.49877870053737183
0.06820236999919871 0.5359062042012701 0.4938935026868587
0.06839947799926449 0.5446995603321934 0.4811919882755251
0.06860032699842122 0.5427454811919883 0.4733756717147044
0.0688058239993552 0.5486077186126037 0.4636052760136786
0.06900456199946348 0.5476306790425012 0.45481191988275516
0.06920192899997346 0.5525158768930141 0.44211040547142155
0.06939885199972196 0.5515388373229115 0.43624816805080613
0.06959636799911095 0.5574010747435272 0.4323400097703958
0.06983214299907559 0.5632633121641426 0.4284318514899854
0.07003021399941645 0.5652173913043479 0.43429408891060084
0.07022821099963039 0.5681485100146555 0.43722520762090866
0.07042467099927308 0.5691255495847583 0.441133365901319
0.07062113099891576 0.5681485100146555 0.44894968246213973
0.07081779500003904 0.5681485100146555 0.457743038593063
0.07101545899968187 0.5632633121641426 0.46262823644357587
0.07121434500004398 0.5603321934538348 0.467513434294089
0.07141219400000409 0.5593551538837322 0.47239863214460187
0.07160926500000642 0.5564240351734244 0.4733756717147044
0.07180674399933196 0.5544699560332194 0.47435271128480694
0.0720045369998843 0.5534929164631168 0.47142159257449934
0.07220097899880784 0.550561797752809 0.4733756717147044
0.0723978089990851 0.5486077186126037 0.4733756717147044
0.07259439900008147 0.5476306790425012 0.4684904738641915
0.07279085899972415 0.5476306790425012 0.4704445530043966
0.07298774499940919 0.5398143624816805 0.4665363947239862
0.07318440899871348 0.5329750854909623 0.4655593551538837
0.07356088499909674 0.5202735710796287 0.46262823644357587
0.07390793599915924 0.5095261358085001 0.4509037616023448
0.0741610059994855 0.49975574010747437 0.44211040547142155
0.07441766899864888 0.4929164631167562 0.431362970200293
0.07467127699965204 0.4802149487054226 0.42452369320957506
0.07493221699951391 0.4684904738641915 0.42745481191988266
0.07518978799998877 0.46165119687347334 0.4352711284807034
0.07544907999908901 0.4479726428920372 0.44406448461162684
0.07570733600005042 0.4450415241817294 0.4479726428920372
0.07598942399999942 0.4333170493404983 0.44699560332193444
0.07632995599851711 0.41963849535906195 0.4479726428920372
0.07676511699901312 0.4010747435271129 0.4401563263312165
0.077173073999802 0.3854421104054715 0.4401563263312165
0.07756369799972163 0.3786028334147533 0.457743038593063
0.07819355899846414 0.3688324377137273 0.4753297508549097
0.07870023699979356 0.36980947728383007 0.4733756717147044
0.07891277099952276 0.3678553981436248 0.47435271128480694
0.07911860099920887 0.36980947728383007 0.46946751343429405
0.07933752399912919 0.3707865168539326 0.4665363947239862
0.07955063199915458 0.3707865168539326 0.457743038593063
0.07976773999871511 0.37274059599413767 0.45481191988275516
0.07998286699876189 0.3678553981436248 0.4557889594528579
0.08020041899908392 0.3629702002931119 0.4587200781631655
0.08041528600006131 0.3639472398632144 0.4606741573033708
0.080639504998544 0.3659013190034197 0.4606741573033708
0.08089296499929333 0.358085002442599 0.4557889594528579
0.08119883099971048 0.3610161211529066 0.45481191988275516
0.08143410499906167 0.36003908158280407 0.44699560332193444
0.08165528700010327 0.358085002442599 0.43624816805080613
0.08192496799892979 0.35906204201270153 0.42256961406936977
0.0821845199989184 0.3610161211529066 0.4079140205178309
0.08243296099863073 0.36199316072300936 0.3981436248168051
0.0827024199988955 0.36199316072300936 0.39228138739618945
0.083064951999404 0.3659013190034197 0.39423546653639474
0.08341540999936115 0.3688324377137273 0.39423546653639474
0.08366192499852332 0.3707865168539326 0.40205178309721545
0.08387014399886539 0.3756717147044455 0.412799218368344
0.08407097499912197 0.38153395212506114 0.42256961406936977
0.08426891599992814 0.38446507083536874 0.43429408891060084
0.08447298699866224 0.3883732291157791 0.44211040547142155
0.08468605799862416 0.3952125061064973 0.4587200781631655
0.08491270299964526 0.4010747435271129 0.4587200781631655
0.08512151499962783 0.40693698094772834 0.46165119687347334
0.08533090099990659 0.4137762579384465 0.45481191988275516
0.0855563049990451 0.4206155349291647 0.45188080117244755
0.08576880199871084 0.4303859306301905 0.44699560332193444
0.08598181699926499 0.4352711284807034 0.4430874450415241
0.08619062899924756 0.44699560332193444 0.44406448461162684
0.08641718199942261 0.45481191988275516 0.4401563263312165
0.08667510399936873 0.46946751343429405 0.44406448461162684
0.08690535999994609 0.4811919882755251 0.44406448461162684
0.08712480099893583 0.4948705422569615 0.4450415241817294
0.08734183499836945 0.5026868588177822 0.4460185637518319
0.08757598000011058 0.5202735710796287 0.44699560332193444
0.08780292099982034 0.5271128480703469 0.44699560332193444
0.08801939899967692 0.5359062042012701 0.44992672203224227
0.08822002599845291 0.5417684416218858 0.4479726428920372
0.08841757899972436 0.5476306790425012 0.4479726428920372
0.08861553899987484 0.5495847581827065 0.4509037616023448
0.08881290599856584 0.550561797752809 0.4587200781631655
0.08901343999968958 0.5515388373229115 0.4587200781631655
0.08920984499854967 0.5554469956033219 0.45969711773326827
0.08940763799910201 0.5525158768930141 0.45969711773326827
0.08960480199857557 0.5574010747435272 0.46165119687347334
0.08990257599907636 0.5554469956033219 0.4636052760136786
0.09012588699988555 0.5554469956033219 0.46262823644357587
0.09033553299923369 0.5564240351734244 0.4606741573033708
0.09054526999898371 0.5574010747435272 0.46165119687347334
0.09075760099949548 0.5583781143136297 0.4665363947239862
0.09105157799967856 0.5574010747435272 0.46946751343429405
0.09126453799945011 0.5574010747435272 0.4684904738641915
0.0914708119998977 0.5525158768930141 0.47239863214460187
0.091688290998718 0.5525158768930141 0.47728382999511476
0.09190517699971679 0.550561797752809 0.4763067904250122
0.09211961799883284 0.5525158768930141 0.4802149487054226
0.09234316999936709 0.5525158768930141 0.4811919882755251
0.09255331499844033 0.5486077186126037 0.4782608695652173
0.09276533099910012 0.5427454811919883 0.4802149487054226
0.09298738299912657 0.5368832437713726 0.47923790913532005
0.09322604599947226 0.5300439667806547 0.48705422569614076
0.09354787499978556 0.5202735710796287 0.48412310698583294
0.09375987199928204 0.5153883732291158 0.4880312652662433
0.09395770299852302 0.5065950170981925 0.4880312652662433
0.09415418099888484 0.5026868588177822 0.4851001465559355
0.09435071499865444 0.49682462139716654 0.4802149487054226
0.09454806399844529 0.486077186126038 0.47728382999511476
0.0947445619985956 0.4802149487054226 0.4636052760136786
0.09494192899910558 0.47435271128480694 0.4557889594528579
0.09514179699908709 0.4665363947239862 0.44406448461162684
0.09533816399925854 0.4587200781631655 0.4382022471910112
0.09553504999894358 0.45188080117244755 0.4303859306301905
0.09573304699915752 0.4460185637518319 0.4323400097703958
0.09593480399962573 0.4382022471910112 0.4333170493404983
0.096133392999036 0.431362970200293 0.43624816805080613
0.0963307049987634 0.42452369320957506 0.4430874450415241
0.09652755399838497 0.41670737664875435 0.44894968246213973
0.09672488499927567 0.4079140205178309 0.4538348803126526
0.09697302999848034 0.3981436248168051 0.4557889594528579
0.0971763599991391 0.3883732291157791 0.457743038593063
0.09737630199924752 0.38153395212506114 0.45969711773326827
0.09757429899946146 0.3776257938446508 0.45481191988275516
0.09780692499953147 0.37274059599413767 0.44894968246213973
0.09801181100010581 0.36980947728383007 0.44894968246213973
0.09820878999926208 0.3678553981436248 0.45481191988275516
0.09840680499837617 0.3678553981436248 0.45188080117244755
0.09860372799994366 0.3629702002931119 0.44992672203224227
0.09880048499871918 0.3639472398632144 0.4538348803126526
0.09899868599859474 0.3659013190034197 0.457743038593063
0.09919762699973944 0.3678553981436248 0.4538348803126526
0.09939486499933992 0.3707865168539326 0.45481191988275516
0.0995919729994057 0.37274059599413767 0.45188080117244755
0.09978913699887926 0.36980947728383007 0.4528578407425501
0.09998670799905085 0.3678553981436248 0.44992672203224227
0.10018455699901097 0.3688324377137273 0.4528578407425501
0.10038114700000733 0.3678553981436248 0.4538348803126526
0.1005777919999673 0.36492427943331696 0.4557889594528579
0.10077819699836255 0.3659013190034197 0.4587200781631655
0.10097589799988782 0.3639472398632144 0.4557889594528579
0.10117239499959396 0.36003908158280407 0.46165119687347334
0.10136896599942702 0.36492427943331696 0.4538348803126526
0.10156540799835057 0.36199316072300936 0.44894968246213973
0.10177783099970839 0.36003908158280407 0.4450415241817294
0.10198434599988104 0.3629702002931119 0.44211040547142155
0.10219404700001178 0.3629702002931119 0.4430874450415241
0.10240472899931774 0.3610161211529066 0.43917928676111373
0.10263837399907061 0.36199316072300936 0.43429408891060084
0.10284344499996223 0.3639472398632144 0.4333170493404983
0.10305296099977568 0.3659013190034197 0.43429408891060084
0.10326288299984299 0.36980947728383007 0.4333170493404983
0.1034608069985552 0.3688324377137273 0.4382022471910112
0.10365891499895952 0.3756717147044455 0.43624816805080613
0.10385572699851764 0.3776257938446508 0.43624816805080613
0.10405313099909108 0.38739618954567656 0.43624816805080613
0.10424990599858575 0.38641914997557403 0.43624816805080613
0.10444879199894785 0.39423546653639474 0.43624816805080613
0.1046469379998598 0.39716658524670256 0.4382022471910112
0.10484437899867771 0.4040058622374205 0.43917928676111373
0.10504172799846856 0.40889106008793363 0.441133365901319
0.1052398739993805 0.412799218368344 0.44406448461162684
0.10543761099870608 0.41963849535906195 0.44406448461162684
0.10585184599949571 0.4333170493404983 0.44406448461162684
0.1060733429985703 0.4430874450415241 0.4460185637518319
0.10627250699872093 0.4479726428920372 0.44211040547142155
0.10646981899844832 0.457743038593063 0.4509037616023448
0.10666890799984685 0.46262823644357587 0.4430874450415241
0.10687449799843307 0.4763067904250122 0.4430874450415241
0.10707292099868937 0.4851001465559355 0.44699560332193444
0.10726943699955882 0.49975574010747437 0.4479726428920372
0.10746682299941313 0.5085490962383976 0.44699560332193444
0.10766283900011331 0.5183194919394236 0.44699560332193444
0.10785959499844466 0.5251587689301416 0.44699560332193444
0.108057387998997 0.5310210063507572 0.4509037616023448
0.10825449699950696 0.5398143624816805 0.4538348803126526
0.10845114199946693 0.5398143624816805 0.46165119687347334
0.10864802799915196 0.5456765999022961 0.47142159257449934
0.10884443299983104 0.550561797752809 0.47728382999511476
0.10904181899968535 0.5525158768930141 0.48705422569614076
0.10923811199972988 0.5534929164631168 0.4938935026868587
0.10943610899994383 0.5534929164631168 0.49682462139716654
0.10963412499950209 0.5564240351734244 0.49682462139716654
0.1098328069983836 0.5593551538837322 0.4948705422569615
0.11002989699954924 0.5583781143136297 0.4938935026868587
0.11022639399925538 0.5583781143136297 0.4880312652662433
0.11042252100014593 0.5593551538837322 0.4851001465559355
0.11061983299987332 0.5544699560332194 0.4782608695652173
0.11081664499943145 0.5564240351734244 0.4763067904250122
0.11101404999863007 0.5544699560332194 0.47239863214460187
0.11120936199949938 0.5534929164631168 0.467513434294089
0.11140552500000922 0.5544699560332194 0.46165119687347334
0.11160168899914424 0.550561797752809 0.4587200781631655
0.11179809399982332 0.550561797752809 0.4528578407425501
0.11199340599887364 0.5495847581827065 0.44406448461162684
0.11219195899866463 0.5446995603321934 0.43917928676111373
0.11238808499911102 0.5427454811919883 0.4323400097703958
0.11258421200000157 0.540791402051783 0.4206155349291647
0.11278065399892512 0.5378602833414754 0.41182217879824123
0.11297759499939275 0.533952125061065 0.4049829018075233
0.11317433299882396 0.5300439667806547 0.3883732291157791
0.1133724789997359 0.5212506106497312 0.3786028334147533
0.11357940199923178 0.5192965315095261 0.36492427943331696
0.11382415699881676 0.512457254518808 0.35906204201270153
0.11403159899964521 0.5007327796775769 0.35417684416218864
0.11424513299971295 0.4948705422569615 0.34929164631167553
0.11445938899851171 0.48412310698583294 0.3531998045920859
0.1146740519998275 0.47923790913532005 0.3707865168539326
0.11491423400002532 0.4684904738641915 0.3854421104054715
0.11518115599938028 0.46165119687347334 0.4010747435271129
0.1153872639988549 0.45676599902296044 0.41963849535906195
0.115598112999578 0.4450415241817294 0.4333170493404983
0.11580836899884162 0.43917928676111373 0.4557889594528579
0.11602231100005156 0.431362970200293 0.45969711773326827
0.11623839999992924 0.4264777723497801 0.46946751343429405
0.1164546939999127 0.4186614557889594 0.47728382999511476
0.11667261599905032 0.412799218368344 0.4782608695652173
0.11688577999848349 0.4049829018075233 0.47923790913532005
0.11709772099857219 0.39716658524670256 0.4811919882755251
0.11730225499923108 0.3932584269662922 0.4831460674157304
0.1175152519990661 0.38739618954567656 0.4831460674157304
0.11778161899928818 0.38251099169516367 0.48216902784562765
0.11800383799891279 0.3786028334147533 0.4802149487054226
0.11821301999952993 0.3737176355642404 0.47728382999511476
0.1184252019993437 0.36980947728383007 0.4753297508549097
0.11863219899896649 0.3659013190034197 0.4753297508549097
0.11884078899856831 0.3678553981436248 0.4763067904250122
0.11906276699846785 0.3688324377137273 0.4782608695652173
0.11927424599889491 0.3688324377137273 0.4802149487054226
0.11948322399985045 0.3707865168539326 0.48705422569614076
0.11968679499841528 0.36980947728383007 0.48705422569614076
0.11988369999926363 0.37274059599413767 0.4851001465559355
0.12008091899951978 0.3776257938446508 0.47923790913532005
0.12028048999854946 0.36980947728383007 0.4782608695652173
0.12047715399967274 0.36687835857352225 0.46946751343429405
0.12067474399918865 0.36980947728383007 0.4557889594528579
0.12087096299910627 0.3659013190034197 0.4509037616023448
0.12107247899984941 0.3659013190034197 0.4430874450415241
0.12126864299898443 0.3659013190034197 0.4333170493404983
0.12146965799911413 0.36199316072300936 0.42745481191988266
0.12167034099911689 0.3610161211529066 0.4255007327796776
0.12192981799853442 0.35906204201270153 0.42256961406936977
0.1221268709996366 0.35906204201270153 0.4255007327796776
0.12232477599900449 0.3610161211529066 0.4323400097703958
0.12252090199945087 0.36003908158280407 0.4401563263312165
0.12271675199917809 0.358085002442599 0.45481191988275516
0.122913877999963 0.35906204201270153 0.467513434294089
0.12311244999909832 0.3610161211529066 0.47728382999511476
0.12331044699931226 0.36492427943331696 0.4802149487054226
0.12350833299933583 0.36492427943331696 0.4851001465559355
0.12370442199971876 0.36980947728383007 0.48412310698583294
0.12390334599876951 0.37176355642403514 0.4782608695652173
0.12410491699847626 0.38446507083536874 0.4802149487054226
0.12430293199940934 0.38153395212506114 0.4831460674157304
0.12449913299860782 0.38641914997557403 0.48900830483634583
0.12470157499956258 0.3932584269662922 0.49193942354665365
0.12491447899992636 0.403028822667318 0.5007327796775769
0.12518964199989568 0.4079140205178309 0.5026868588177822
0.12538791699989815 0.4157303370786516 0.5036638983878847
0.1255859689990757 0.42159257449926724 0.495847581827064
0.1258049479984038 0.42745481191988266 0.48998534440644836
0.12600162999842723 0.43722520762090866 0.47728382999511476
0.12619849799921212 0.4430874450415241 0.4655593551538837
0.1263958099989395 0.45188080117244755 0.45676599902296044
0.12659362199883617 0.4606741573033708 0.44894968246213973
0.1267901189985423 0.4704445530043966 0.44211040547142155
0.1269868569997925 0.4811919882755251 0.43722520762090866
0.1271830019995832 0.4909623839765511 0.4352711284807034
0.12737942499916244 0.5056179775280898 0.43429408891060084
0.12757656999929168 0.5114802149487054 0.431362970200293
0.12777343800007657 0.522227650219834 0.4352711284807034
0.1279708429992752 0.5271128480703469 0.4255007327796776
0.12817015399923548 0.5388373229115779 0.42256961406936977
0.12837683699945046 0.5417684416218858 0.4235466536394723
0.12857409299977007 0.5446995603321934 0.4303859306301905
0.12877105299958203 0.5437225207620908 0.42940889106008795
0.12896795799861138 0.5495847581827065 0.4264777723497801
0.1291656029989099 0.5476306790425012 0.4235466536394723
0.12936141499994847 0.5486077186126037 0.42452369320957506
0.1295590789995913 0.550561797752809 0.4186614557889594
0.12975903899859986 0.5495847581827065 0.42159257449926724
0.12995714699900418 0.5515388373229115 0.42256961406936977
0.130155125998499 0.5515388373229115 0.42452369320957506
0.1303540119988611 0.5525158768930141 0.4264777723497801
0.1305503419989691 0.5574010747435272 0.431362970200293
0.13075211699833744 0.5574010747435272 0.43917928676111373
0.13095000299836101 0.5564240351734244 0.4460185637518319
0.1311480379990826 0.5534929164631168 0.4509037616023448
0.13134446099866182 0.5564240351734244 0.45969711773326827
0.13154093899902364 0.5564240351734244 0.46458231558378116
0.1317383069999778 0.5525158768930141 0.46946751343429405
0.13193602599858423 0.5525158768930141 0.4733756717147044
0.13213302299845964 0.5486077186126037 0.47728382999511476
0.13233068699992145 0.5515388373229115 0.47923790913532005
0.13252664699939487 0.5427454811919883 0.4831460674157304
0.13272406999931263 0.5437225207620908 0.4802149487054226
0.13292073399861692 0.5398143624816805 0.47923790913532005
0.1331169349996344 0.5300439667806547 0.48216902784562765
0.13331370999912906 0.5280898876404494 0.48900830483634583
0.13351016999877174 0.5251587689301416 0.4831460674157304
0.1339539969994803 0.5144113336590133 0.4802149487054226
0.1341749200000777 0.5026868588177822 0.4811919882755251
0.13437739799883275 0.49975574010747437 0.47728382999511476
0.13474870799836935 0.48705422569614076 0.4753297508549097
0.13495864899959997 0.47435271128480694 0.47142159257449934
0.13515953499882016 0.467513434294089 0.4704445530043966
0.13535880999916117 0.45969711773326827 0.46262823644357587
0.13555695600007311 0.4479726428920372 0.45188080117244755
0.13576572999954806 0.44211040547142155 0.4430874450415241
0.13597300499895937 0.4323400097703958 0.42452369320957506
0.13618344699898444 0.42256961406936977 0.41182217879824123
0.1364053689994762 0.4157303370786516 0.403028822667318
0.1366381249990809 0.4079140205178309 0.3981436248168051
0.1368926029990689 0.39716658524670256 0.40986809965803617
0.13711945199975162 0.3932584269662922 0.41475329750854906
0.13732611499835912 0.38935026868588185 0.42159257449926724
0.13753392699982214 0.3834880312652662 0.431362970200293
0.13783982999848376 0.3776257938446508 0.42940889106008795
0.13819915800013405 0.3688324377137273 0.42452369320957506
0.13844848799999454 0.36687835857352225 0.41670737664875435
0.13871120600015274 0.36199316072300936 0.4157303370786516
0.13898414699906425 0.36687835857352225 0.4137762579384465
0.13919731099849741 0.3629702002931119 0.4186614557889594
0.13941830699877755 0.3688324377137273 0.4206155349291647
0.13962674899994454 0.36687835857352225 0.4382022471910112
0.1398414679988491 0.36492427943331696 0.4430874450415241
0.1400608909989387 0.36492427943331696 0.45188080117244755
0.14027022099980968 0.36199316072300936 0.46262823644357587
0.14049049599998398 0.3629702002931119 0.4704445530043966
0.14069564099918352 0.36492427943331696 0.4782608695652173
0.14089734199842496 0.3659013190034197 0.4753297508549097
0.14109778300007747 0.36687835857352225 0.4733756717147044
0.14129587299976265 0.3659013190034197 0.46165119687347334
0.14149285199891892 0.36199316072300936 0.45676599902296044
0.14178340299986303 0.3688324377137273 0.4430874450415241
0.14199658500001533 0.3688324377137273 0.43429408891060084
0.14219652700012375 0.36492427943331696 0.4333170493404983
0.14239459799864562 0.36492427943331696 0.43429408891060084
0.14259216899881721 0.3629702002931119 0.43722520762090866
0.14279044399881968 0.3659013190034197 0.44699560332193444
0.14298886699907598 0.3659013190034197 0.4538348803126526
0.14318621599886683 0.3678553981436248 0.4606741573033708
0.1434580269997241 0.3707865168539326 0.47728382999511476
0.14369656099916028 0.37469467513434296 0.48900830483634583
0.14390885399916442 0.38153395212506114 0.49877870053737183
0.14412003599863965 0.38739618954567656 0.5026868588177822
0.1443311069997435 0.3883732291157791 0.5017098192476794
0.1445418819985207 0.3903273082559844 0.4929164631167562
0.14475673000015377 0.39228138739618945 0.4831460674157304
0.14496650499859243 0.3981436248168051 0.4753297508549097
0.14518394699916826 0.4059599413776258 0.4665363947239862
0.1454074989997025 0.4108451392281387 0.4636052760136786
0.14563890299905324 0.4176844162188569 0.431362970200293
0.14652659399871482 0.45969711773326827 0.42745481191988266
0.14677840500007733 0.4753297508549097 0.42159257449926724
0.14699421699879167 0.4851001465559355 0.41963849535906195
0.14721460299915634 0.49877870053737183 0.4186614557889594
0.14742524799839885 0.5114802149487054 0.4186614557889594
0.14763428199876216 0.5251587689301416 0.42159257449926724
0.14785137099897838 0.540791402051783 0.4157303370786516
0.14809768199847895 0.5417684416218858 0.40986809965803617
0.14831021600002714 0.5466536394723986 0.4040058622374205
0.1485509349986387 0.550561797752809 0.39423546653639474
0.1488144309987547 0.5554469956033219 0.38739618954567656
0.1490503719996923 0.5544699560332194 0.38641914997557403
0.14926033199844824 0.5525158768930141 0.38739618954567656
0.14948077400003967 0.5564240351734244 0.39912066438690763
0.1497782879996521 0.5534929164631168 0.4176844162188569
0.15008446899992123 0.5534929164631168 0.4303859306301905
0.1502949659989099 0.5554469956033219 0.4450415241817294
0.1505195729987463 0.5574010747435272 0.4450415241817294
0.1507402369988995 0.5632633121641426 0.45188080117244755
0.1509556410001096 0.5613092330239375 0.4528578407425501
0.15115889799926663 0.5622862725940401 0.4528578407425501
0.1513551539992477 0.5583781143136297 0.45188080117244755
0.15155270699870016 0.5603321934538348 0.4587200781631655
0.15174970399857557 0.5603321934538348 0.4587200781631655
0.151978126999893 0.5544699560332194 0.4606741573033708
0.15219191999858594 0.5554469956033219 0.457743038593063
0.1523934349988849 0.5515388373229115 0.44894968246213973
0.1525922469991201 0.5476306790425012 0.4382022471910112
0.1527896329989744 0.5437225207620908 0.4333170493404983
0.15298744499887107 0.5388373229115779 0.42452369320957506
0.15318516499974066 0.5359062042012701 0.42745481191988266
0.15338271699874895 0.5310210063507572 0.42940889106008795
0.1535790289999568 0.522227650219834 0.4382022471910112
0.15381648899892753 0.5173424523693209 0.44992672203224227
0.15401554199888778 0.5134342940889105 0.45969711773326827
0.1542119459991227 0.5017098192476794 0.46458231558378116
0.15440955399935774 0.4929164631167562 0.467513434294089
0.154606847998366 0.486077186126038 0.4684904738641915
0.15480369699980656 0.4763067904250122 0.46946751343429405
0.1550025269989419 0.4704445530043966 0.4684904738641915
0.15519950599991716 0.46165119687347334 0.467513434294089
0.15539692899983493 0.45481191988275516 0.46946751343429405
0.1555957969994779 0.44894968246213973 0.47239863214460187
0.15579266399981861 0.441133365901319 0.4811919882755251
0.15600868000001356 0.43722520762090866 0.48705422569614076
0.1562321579986019 0.42745481191988266 0.49975574010747437
0.15644659899953695 0.4206155349291647 0.5007327796775769
0.15666216999852622 0.4108451392281387 0.49682462139716654
0.1568815739992715 0.403028822667318 0.4880312652662433
0.1570904789987253 0.39423546653639474 0.4684904738641915
0.1573609379993286 0.3854421104054715 0.44406448461162684
0.15765822999856027 0.38153395212506114 0.49193942354665365
0.15952368499893055 0.37469467513434296 0.48216902784562765
0.1598780309996073 0.37176355642403514 0.4782608695652173
0.16009634299916797 0.36980947728383007 0.4753297508549097
0.16030241399857914 0.36687835857352225 0.4753297508549097
0.1605071889989631 0.36980947728383007 0.4782608695652173
0.16071057499902963 0.3659013190034197 0.47728382999511476
0.16091727599996375 0.36492427943331696 0.47728382999511476
0.16112075399905734 0.3610161211529066 0.47728382999511476
0.161323584999991 0.36199316072300936 0.4782608695652173
0.16152617399893643 0.3610161211529066 0.4763067904250122
0.16173320799862267 0.3610161211529066 0.47435271128480694
0.16193618699981016 0.36199316072300936 0.47435271128480694
0.16213712799981295 0.36199316072300936 0.4684904738641915
0.16233681099947717 0.36199316072300936 0.4665363947239862
0.1625467710000521 0.36492427943331696 0.4538348803126526
0.16308270699846616 0.3805569125549584 0.4303859306301905
0.16696185499858984 0.48900830483634583 0.431362970200293
0.16794867399948998 0.5280898876404494 0.43722520762090866
0.16824413299946173 0.5378602833414754 0.43722520762090866
0.16846699999950943 0.5446995603321934 0.43624816805080613
0.168696478000129 0.5486077186126037 0.43624816805080613
0.16891865999969014 0.5495847581827065 0.4323400097703958
0.16912991699973645 0.5534929164631168 0.4333170493404983
0.1693550799991499 0.5525158768930141 0.4323400097703958
0.16957515099966258 0.5544699560332194 0.4382022471910112
0.16989244299838901 0.5534929164631168 0.44406448461162684
0.17016114199941512 0.5554469956033219 0.4479726428920372
0.17043115699925693 0.5583781143136297 0.46165119687347334
0.1706796909984405 0.5574010747435272 0.45969711773326827
0.17091076099859492 0.5593551538837322 0.4557889594528579
0.1711526649996813 0.5622862725940401 0.44992672203224227
0.17137843999989855 0.5574010747435272 0.44992672203224227
0.17160462199899484 0.5593551538837322 0.44992672203224227
0.1718315629987046 0.5554469956033219 0.45481191988275516
0.1720576150000852 0.5525158768930141 0.45481191988275516
0.17236503699859895 0.5515388373229115 0.44894968246213973
0.17273714199836832 0.5446995603321934 0.45188080117244755
0.17299402799835661 0.540791402051783 0.4528578407425501
0.20532400699994469 0.42745481191988266 0.41182217879824123
0.20606969999971625 0.441133365901319 0.4040058622374205
0.2062812889998895 0.44211040547142155 0.4010747435271129
0.20648726799845463 0.45481191988275516 0.39716658524670256
0.20669109799928265 0.4606741573033708 0.39912066438690763
0.20689176199994108 0.46946751343429405 0.403028822667318
0.2070919439993304 0.48216902784562765 0.4079140205178309
0.20729190399833897 0.495847581827064 0.41475329750854906
0.20749082699876453 0.5036638983878847 0.4186614557889594
0.207691175999571 0.5144113336590133 0.4264777723497801
0.20789035899906594 0.5290669272105519 0.42940889106008795
0.2080890589986666 0.5319980459208598 0.4284318514899854
0.2082879449990287 0.5378602833414754 0.4323400097703958
0.2084865910001099 0.5486077186126037 0.43429408891060084
0.20868586599863193 0.5456765999022961 0.431362970200293
0.20888469599958626 0.5515388373229115 0.4323400097703958
0.2090826929998002 0.5515388373229115 0.4352711284807034
0.20928107899999304 0.5534929164631168 0.43917928676111373
0.2094807059984305 0.5525158768930141 0.43429408891060084
0.20969883299949288 0.5525158768930141 0.4333170493404983
0.20995816199865658 0.5554469956033219 0.43429408891060084
0.21016045499891334 0.5564240351734244 0.43429408891060084
0.2103608789984719 0.5554469956033219 0.4352711284807034
0.2105598389989609 0.5554469956033219 0.44211040547142155
0.21075852099966141 0.5554469956033219 0.44211040547142155
0.21095799999966403 0.5574010747435272 0.44406448461162684
0.21115799699873605 0.5544699560332194 0.4509037616023448
0.21135706799941545 0.5525158768930141 0.4528578407425501
0.2115555279997352 0.550561797752809 0.45481191988275516
0.21175652499914577 0.5534929164631168 0.4528578407425501
0.21199918799902662 0.5525158768930141 0.457743038593063
0.2122850549985742 0.5476306790425012 0.4606741573033708
0.2125079219986219 0.5437225207620908 0.4655593551538837
0.212707844999386 0.540791402051783 0.4684904738641915
0.21290813799896569 0.5398143624816805 0.46946751343429405
0.21310717199958162 0.5349291646311676 0.47435271128480694
0.21330553999905533 0.5319980459208598 0.47435271128480694
0.21350346299914236 0.5280898876404494 0.48216902784562765
0.21372560799864004 0.5173424523693209 0.47728382999511476
0.2139269939998485 0.512457254518808 0.4782608695652173
0.21412708399839175 0.5046409379579873 0.47239863214460187
0.21432576599909225 0.49682462139716654 0.4684904738641915
0.2145236329997715 0.48998534440644836 0.4665363947239862
0.2147217969995836 0.48216902784562765 0.4606741573033708
0.21491907199924754 0.4802149487054226 0.4538348803126526
0.21511743999872124 0.4733756717147044 0.4479726428920372
0.21531771499940078 0.46458231558378116 0.441133365901319
0.2155167299988534 0.4665363947239862 0.4333170493404983
0.215714449999723 0.45676599902296044 0.4333170493404983
0.21591276199978893 0.4509037616023448 0.4284318514899854
0.2161116849983955 0.4450415241817294 0.4323400097703958
0.21630919999915932 0.4382022471910112 0.43624816805080613
0.2165102709986968 0.4303859306301905 0.441133365901319
0.21670880599958764 0.41963849535906195 0.44699560332193444
0.21691000600003463 0.4108451392281387 0.4450415241817294
0.2171084109995718 0.40009770395701016 0.4430874450415241
0.21730666699841095 0.3913043478260869 0.4460185637518319
0.21750470199913252 0.3854421104054715 0.44406448461162684
0.21771117999924172 0.3805569125549584 0.44992672203224227
0.21791062199918088 0.376648754274548 0.45676599902296044
0.21810982299939496 0.3737176355642404 0.4665363947239862
0.21830935699836118 0.36980947728383007 0.4753297508549097
0.2185083719996328 0.3707865168539326 0.48705422569614076
0.21870587000012165 0.3688324377137273 0.48216902784562765
0.21891021800001909 0.3678553981436248 0.4802149487054226
0.21910841899989464 0.3678553981436248 0.47728382999511476
0.219307082999876 0.3688324377137273 0.4733756717147044
0.21951387599983718 0.36980947728383007 0.46946751343429405
0.2197134289999667 0.37274059599413767 0.46946751343429405
0.21991211099884822 0.3688324377137273 0.46458231558378116
0.2201106089996756 0.36687835857352225 0.4636052760136786
0.22030910600005882 0.3659013190034197 0.4636052760136786
0.22050791799847502 0.36492427943331696 0.4704445530043966
0.2207059329994081 0.3629702002931119 0.467513434294089
0.22090535600000294 0.3639472398632144 0.47142159257449934
0.22110361299928627 0.36492427943331696 0.47728382999511476
0.22130460999869683 0.36199316072300936 0.47923790913532005
0.22150323699861474 0.36199316072300936 0.4811919882755251
0.22171432599861873 0.36492427943331696 0.4782608695652173
0.22191530499912915 0.36199316072300936 0.47142159257449934
0.22211344999959692 0.3639472398632144 0.4557889594528579
0.222311928999261 0.36687835857352225 0.44211040547142155
0.22250951800015173 0.3629702002931119 0.4255007327796776
0.2227079229996889 0.3629702002931119 0.4108451392281387
0.22290591999990284 0.3639472398632144 0.403028822667318
0.22310428799937654 0.36492427943331696 0.4010747435271129
0.2233036549987446 0.36687835857352225 0.4010747435271129
0.2235030599986203 0.3678553981436248 0.4079140205178309
0.22370309399957478 0.36980947728383007 0.4137762579384465
0.22390183199968305 0.3737176355642404 0.42159257449926724
0.2241002729988395 0.3776257938446508 0.42940889106008795
0.2243184549988655 0.38251099169516367 0.4401563263312165
0.22452711899859423 0.3883732291157791 0.44894968246213973
0.2247262459986814 0.3913043478260869 0.45969711773326827
0.22492563199921278 0.39716658524670256 0.467513434294089
0.22512409199953254 0.4040058622374205 0.4684904738641915
0.2253217189991119 0.41182217879824123 0.4665363947239862
0.22552065999843762 0.4137762579384465 0.46165119687347334
0.22572860199943534 0.41963849535906195 0.457743038593063
0.22592841400000907 0.42745481191988266 0.44894968246213973
0.22612813299929257 0.43722520762090866 0.44992672203224227
0.22632568599874503 0.44211040547142155 0.4460185637518319
0.226525127000059 0.44992672203224227 0.44211040547142155
0.22672403199976543 0.4606741573033708 0.4430874450415241
0.2288395749983465 0.5515388373229115 0.47142159257449934
0.22913453399996797 0.5525158768930141 0.4831460674157304
0.22998628099958296 0.5554469956033219 0.486077186126038
0.23262553899985505 0.5495847581827065 0.3756717147044455
0.23292779399889696 0.5456765999022961 0.38153395212506114
0.23316336499919998 0.5398143624816805 0.3932584269662922
0.2334103059984045 0.5310210063507572 0.4059599413776258
0.2336451909995958 0.5271128480703469 0.4186614557889594
0.23389403999863134 0.5153883732291158 0.4284318514899854
0.2341249249984685 0.5095261358085001 0.43917928676111373
0.2343585519993212 0.49877870053737183 0.4430874450415241
0.23469991699857928 0.4851001465559355 0.44894968246213973
0.23512631799894734 0.47239863214460187 0.44992672203224227
0.23537688899887144 0.4606741573033708 0.45676599902296044
0.23559003399896028 0.4538348803126526 0.46262823644357587
0.23579336399961903 0.4460185637518319 0.47239863214460187
0.23599584299881826 0.43917928676111373 0.48216902784562765
0.23619670999869413 0.4352711284807034 0.4802149487054226
0.23639911499958544 0.431362970200293 0.4802149487054226
0.23660381599984248 0.4235466536394723 0.4811919882755251
0.2369164779993298 0.41182217879824123 0.4782608695652173
0.23718865899900266 0.4010747435271129 0.4929164631167562
0.23788014899946575 0.38153395212506114 0.5026868588177822
0.23891272699984256 0.3629702002931119 0.46262823644357587
0.2407109229989146 0.3659013190034197 0.412799218368344
0.2416674090000015 0.36492427943331696 0.40986809965803617
0.24194575699948473 0.3629702002931119 0.412799218368344
0.24215173599986883 0.3659013190034197 0.4157303370786516
0.24235502899864514 0.36687835857352225 0.41475329750854906
0.2425568779999594 0.36492427943331696 0.4157303370786516
0.24275691199909488 0.3659013190034197 0.42256961406936977
0.24295705699842074 0.36687835857352225 0.4284318514899854
0.2431554619997769 0.3688324377137273 0.4333170493404983
0.24335516299834126 0.3678553981436248 0.441133365901319
0.24355436399855535 0.3707865168539326 0.44699560332193444
0.24375397199946747 0.3707865168539326 0.44699560332193444
0.24409441099851392 0.376648754274548 0.44406448461162684
0.244309722998878 0.38153395212506114 0.441133365901319
0.24451131299974804 0.38641914997557403 0.441133365901319
0.2447109949989681 0.3883732291157791 0.4401563263312165
0.2449108629989496 0.39423546653639474 0.4352711284807034
0.24510950799958664 0.4010747435271129 0.4303859306301905
0.2453091899988067 0.4059599413776258 0.42745481191988266
0.24550826099948608 0.412799218368344 0.42159257449926724
0.2457271839994064 0.4206155349291647 0.4176844162188569
0.24595205100013118 0.42745481191988266 0.4176844162188569
0.24619136299952515 0.43624816805080613 0.41963849535906195
0.24641000799965695 0.4430874450415241 0.42159257449926724
0.24661035699864442 0.4538348803126526 0.4284318514899854
0.24681051999868941 0.46165119687347334 0.4401563263312165
0.24701016600010917 0.4733756717147044 0.44406448461162684
0.24720842199894832 0.4831460674157304 0.4538348803126526
0.24740791899967007 0.4948705422569615 0.4636052760136786
0.24760789799984195 0.5056179775280898 0.4684904738641915
0.2478097279999929 0.5202735710796287 0.47142159257449934
0.2480083549999108 0.524181729360039 0.47142159257449934
0.24820624099993438 0.5310210063507572 0.4636052760136786
0.2484040899998945 0.5368832437713726 0.46165119687347334
0.24860208700010844 0.5388373229115779 0.4606741573033708
0.24880376900000556 0.5427454811919883 0.46262823644357587
0.24900282199996582 0.5456765999022961 0.4655593551538837
0.2492013009996299 0.5446995603321934 0.4655593551538837
0.24940126099863846 0.5446995603321934 0.4684904738641915
0.24959962799948698 0.5476306790425012 0.4704445530043966
0.24982318099864642 0.5486077186126037 0.47435271128480694
0.25002178899922 0.550561797752809 0.47239863214460187
0.25022048999926483 0.5515388373229115 0.4782608695652173
0.2504182459997537 0.5554469956033219 0.47142159257449934
0.2506184099984239 0.5554469956033219 0.4733756717147044
0.25081655499889166 0.5583781143136297 0.4684904738641915
0.25101512699984596 0.5534929164631168 0.46262823644357587
0.2512138269994466 0.5554469956033219 0.4606741573033708
0.2514125099987723 0.5544699560332194 0.46165119687347334
0.25161045099957846 0.5554469956033219 0.4538348803126526
0.25180868899951747 0.5564240351734244 0.44992672203224227
0.2520071859999007 0.5476306790425012 0.43917928676111373
0.25220760899901506 0.5486077186126037 0.4255007327796776
0.252405920999081 0.5437225207620908 0.41475329750854906
0.2526035109985969 0.5427454811919883 0.4040058622374205
0.2528025819992763 0.5388373229115779 0.3913043478260869
0.2530008939993422 0.5349291646311676 0.38739618954567656
0.25319811400004255 0.5310210063507572 0.38641914997557403
0.2533977219991357 0.5261358085002443 0.39228138739618945
0.25359731199932867 0.522227650219834 0.40205178309721545
0.25381145699975605 0.5202735710796287 0.41475329750854906
0.2540109349993145 0.512457254518808 0.431362970200293
0.2542093029987882 0.5085490962383976 0.44894968246213973
0.2544076149988541 0.5085490962383976 0.4665363947239862
0.2546069449999777 0.5017098192476794 0.47435271128480694
0.25480538699957833 0.5046409379579873 0.4831460674157304
0.25500323599953845 0.4929164631167562 0.4851001465559355
0.25520217699886416 0.4851001465559355 0.48998534440644836
0.2554003779987397 0.47728382999511476 0.48900830483634583
0.2555987269988691 0.4704445530043966 0.49193942354665365
0.25579646499863884 0.46165119687347334 0.486077186126038
0.2559950729992124 0.44894968246213973 0.4880312652662433
0.25619429299877083 0.4401563263312165 0.4851001465559355
0.2563920489992597 0.4284318514899854 0.4851001465559355
0.25659160199938924 0.4186614557889594 0.4851001465559355
0.25679256199873635 0.4079140205178309 0.4831460674157304
0.25699405900013517 0.3981436248168051 0.4811919882755251
0.2571933519993763 0.3903273082559844 0.47728382999511476
0.25739192399851163 0.38251099169516367 0.4684904738641915
0.2575904019995505 0.376648754274548 0.4606741573033708
0.257813639998858 0.37274059599413767 0.45481191988275516
0.258027358999243 0.36980947728383007 0.44699560332193444
0.25868577499932144 0.36492427943331696 0.44211040547142155
0.2591401390000101 0.3639472398632144 0.441133365901319
0.2593494319989986 0.36687835857352225 0.4430874450415241
0.2595502629992552 0.36980947728383007 0.44992672203224227
0.2597572039994702 0.3639472398632144 0.45481191988275516
0.25995618299930356 0.3688324377137273 0.4636052760136786
0.26015960599943355 0.3659013190034197 0.4684904738641915
0.2603594180000073 0.36492427943331696 0.4733756717147044
0.2605581190000521 0.3629702002931119 0.47728382999511476
0.26075696799853176 0.3629702002931119 0.4763067904250122
0.26095601999986684 0.36199316072300936 0.47142159257449934
0.26115557299999637 0.36199316072300936 0.45969711773326827
0.26135529299972404 0.36003908158280407 0.44894968246213973
0.26155436399858445 0.358085002442599 0.441133365901319
0.2617603419985244 0.3561309233023937 0.4352711284807034
0.2619606169992039 0.35710796287249624 0.431362970200293
0.26215978099935455 0.3561309233023937 0.4323400097703958
0.26235944499967445 0.35710796287249624 0.4333170493404983
0.2625596639991272 0.35710796287249624 0.43722520762090866
0.26275947599970095 0.358085002442599 0.44406448461162684
0.2629701579990069 0.358085002442599 0.44699560332193444
0.26316791499993997 0.35906204201270153 0.4509037616023448
0.2633693379993929 0.36003908158280407 0.4557889594528579
0.26356768699952227 0.3639472398632144 0.457743038593063
0.26376823899954616 0.3678553981436248 0.4538348803126526
0.2639671990000352 0.36980947728383007 0.45188080117244755
0.2641657149997627 0.3737176355642404 0.4450415241817294
0.2643628789992363 0.3805569125549584 0.441133365901319
0.2645608019993233 0.3834880312652662 0.431362970200293
0.2647587809988181 0.38739618954567656 0.4264777723497801
0.26495716699901095 0.3952125061064973 0.4255007327796776
0.26515732999905595 0.4010747435271129 0.4264777723497801
0.2653556609984662 0.4059599413776258 0.4284318514899854
0.265556750999167 0.41670737664875435 0.43624816805080613
0.2657610989990644 0.4206155349291647 0.4401563263312165
0.26596468899879255 0.42940889106008795 0.44699560332193444
0.26616629699856276 0.4352711284807034 0.45676599902296044
0.26636783100002503 0.44406448461162684 0.45969711773326827
0.2665701429996261 0.44894968246213973 0.467513434294089
0.2667720849985926 0.45969711773326827 0.47239863214460187
0.2669743970000127 0.46946751343429405 0.47728382999511476
0.267176652998387 0.4802149487054226 0.47728382999511476
0.2673781499997858 0.4948705422569615 0.4782608695652173
0.26757901800010586 0.5056179775280898 0.4753297508549097
0.26777990399932605 0.5163654127992183 0.4704445530043966
0.2679810299996461 0.5251587689301416 0.46946751343429405
0.26818332399852807 0.533952125061065 0.46262823644357587
0.2683846169984463 0.540791402051783 0.45676599902296044
0.26858620699931635 0.5495847581827065 0.4528578407425501
0.26878885199948854 0.550561797752809 0.44992672203224227
0.2689901089997875 0.5495847581827065 0.4430874450415241
0.26919162400008645 0.5466536394723986 0.4401563263312165
0.2693965290000051 0.5495847581827065 0.4352711284807034
0.2695974889993522 0.5486077186126037 0.4255007327796776
0.2698213929998019 0.5515388373229115 0.4206155349291647
0.27002259399887407 0.5534929164631168 0.4137762579384465
0.27022386899989215 0.5554469956033219 0.4040058622374205
0.27042527300000074 0.5593551538837322 0.3981436248168051
0.2706299739984388 0.5583781143136297 0.39912066438690763
0.2708314709998376 0.5613092330239375 0.3952125061064973
0.27103304199954437 0.5622862725940401 0.3961895456765998
0.27123431699874345 0.5642403517342451 0.403028822667318
0.2714354249983444 0.5613092330239375 0.412799218368344
0.271636977999151 0.5603321934538348 0.412799218368344
0.2718383449991961 0.5574010747435272 0.41670737664875435
0.27203906499926234 0.5534929164631168 0.4235466536394723
0.27224072799981514 0.5525158768930141 0.4284318514899854
0.27244131799852767 0.5515388373229115 0.43429408891060084
0.2726420929993765 0.5476306790425012 0.441133365901319
0.2728437749992736 0.5446995603321934 0.44894968246213973
0.27304564299993217 0.540791402051783 0.4587200781631655
0.2734760439998354 0.5271128480703469 0.4763067904250122
0.27371398499963107 0.5202735710796287 0.4782608695652173
0.27391872299995157 0.5183194919394236 0.4831460674157304
0.2741237379996164 0.5153883732291158 0.4909623839765511
0.2744782519985165 0.49877870053737183 0.5007327796775769
0.27469372999985353 0.48900830483634583 0.5036638983878847
0.2748966899998777 0.4802149487054226 0.5046409379579873
0.27509898399875965 0.47435271128480694 0.5105031753786029
0.2753011839995452 0.467513434294089 0.4978016609672691
0.2755022179990192 0.4587200781631655 0.48900830483634583
0.27570367899897974 0.45188080117244755 0.4753297508549097
0.2759042130001035 0.4450415241817294 0.4655593551538837
0.2761062839999795 0.4401563263312165 0.45481191988275516
0.27631235499939066 0.4303859306301905 0.4479726428920372
0.27651368499937234 0.42452369320957506 0.44211040547142155
0.276721385998826 0.4186614557889594 0.44211040547142155
0.27692399399893475 0.40889106008793363 0.44406448461162684
0.2771292319994245 0.3961895456765998 0.4460185637518319
0.27733178499875066 0.3903273082559844 0.44406448461162684
0.27753320800002257 0.3834880312652662 0.44406448461162684
0.27773570499994094 0.3776257938446508 0.4479726428920372
0.27793705399926694 0.3737176355642404 0.44992672203224227
0.2781380509986775 0.37176355642403514 0.44992672203224227
0.2783401779997803 0.36980947728383007 0.4509037616023448
0.2785412119992543 0.3659013190034197 0.44699560332193444
0.2787430049993418 0.36687835857352225 0.4401563263312165
0.27894394699978875 0.36492427943331696 0.4333170493404983
0.27916538799945556 0.36980947728383007 0.42745481191988266
0.27936712599876046 0.3688324377137273 0.4284318514899854
0.27956806699876324 0.37176355642403514 0.4264777723497801
0.2797689899998659 0.36980947728383007 0.4303859306301905
0.27997037599925534 0.37176355642403514 0.4303859306301905
0.2801730959999986 0.3688324377137273 0.4284318514899854
0.2803753329990286 0.3678553981436248 0.4303859306301905
0.28057664500011015 0.36687835857352225 0.431362970200293
0.2807775129986112 0.3659013190034197 0.4352711284807034
0.2809781029991427 0.36492427943331696 0.44211040547142155
0.28117932199893403 0.36199316072300936 0.44992672203224227
0.2813808749997406 0.36199316072300936 0.4509037616023448
0.28158185299980687 0.3610161211529066 0.4606741573033708
0.2818130719988403 0.3659013190034197 0.4636052760136786
0.2820181249990128 0.3610161211529066 0.45969711773326827
0.28222197399918514 0.36003908158280407 0.4557889594528579
0.2824363589988934 0.36199316072300936 0.4538348803126526
0.28263718999915 0.36199316072300936 0.44894968246213973
0.2828387979989202 0.3610161211529066 0.4479726428920372
0.2830470359986066 0.3659013190034197 0.441133365901319
0.2832500879994768 0.3659013190034197 0.43624816805080613
0.2834517709998181 0.3659013190034197 0.431362970200293
0.2836527119998209 0.3688324377137273 0.4264777723497801
0.2838531540000986 0.37176355642403514 0.42452369320957506
0.2840542619996995 0.38153395212506114 0.4235466536394723
0.2842594260000624 0.3776257938446508 0.42452369320957506
0.28446057099972677 0.38153395212506114 0.42745481191988266
0.28466132699941227 0.3883732291157791 0.43429408891060084
0.2848624539983575 0.3913043478260869 0.4382022471910112
0.28506337699946016 0.3981436248168051 0.4430874450415241
0.2852650219992938 0.4079140205178309 0.45188080117244755
0.2854664269998466 0.40889106008793363 0.44894968246213973
0.285669645998496 0.41670737664875435 0.44894968246213973
0.28590477199941233 0.42452369320957506 0.45481191988275516
0.28610950999973284 0.4284318514899854 0.4587200781631655
0.28631087799840316 0.4382022471910112 0.45969711773326827
0.28651181899840594 0.44406448461162684 0.4665363947239862
0.28671850099999574 0.45481191988275516 0.46946751343429405
0.28692286899968167 0.4655593551538837 0.4753297508549097
0.2871238469997479 0.4763067904250122 0.47728382999511476
0.2873242149998987 0.4880312652662433 0.4782608695652173
0.287524231000134 0.5007327796775769 0.47728382999511476
0.28772513500007335 0.5095261358085001 0.4753297508549097
0.28792550299840514 0.5202735710796287 0.4733756717147044
0.2881261659986194 0.5280898876404494 0.47142159257449934
0.2883270519996586 0.5329750854909623 0.46946751343429405
0.2885285489992384 0.5398143624816805 0.46458231558378116
0.28872913899976993 0.5495847581827065 0.4665363947239862
0.28893017299924395 0.5486077186126037 0.46262823644357587
0.2891344849995221 0.5466536394723986 0.4636052760136786
0.2893354449988692 0.5495847581827065 0.46165119687347334
0.28953664599976037 0.5486077186126037 0.46262823644357587
0.2897392729992134 0.5554469956033219 0.45969711773326827
0.28994025099927967 0.5534929164631168 0.4587200781631655
0.29014159999860567 0.550561797752809 0.4538348803126526
0.29043176300001505 0.5554469956033219 0.44699560332193444
0.29063490799853753 0.5583781143136297 0.4460185637518319
0.290838367998731 0.5544699560332194 0.441133365901319
0.29103971699987596 0.5574010747435272 0.44699560332193444
0.29124065899850393 0.5564240351734244 0.44992672203224227
0.2914421189998393 0.5593551538837322 0.45481191988275516
0.29164367099838273 0.5603321934538348 0.467513434294089
0.2918459089996759 0.5534929164631168 0.4655593551538837
0.2920469989985577 0.5564240351734244 0.46946751343429405
0.29224716299904685 0.5574010747435272 0.4636052760136786
0.2924992329990346 0.5544699560332194 0.45481191988275516
0.29270152599929133 0.5554469956033219 0.441133365901319
0.29290374599986535 0.5515388373229115 0.42452369320957506
0.2931054459986626 0.5456765999022961 0.4079140205178309
0.29330623999885574 0.540791402051783 0.39912066438690763
0.29354627299835556 0.5378602833414754 0.39716658524670256
0.2937620299999253 0.5280898876404494 0.403028822667318
0.293975322998449 0.5173424523693209 0.412799218368344
0.29420226399997773 0.5095261358085001 0.4284318514899854
0.29441792799843824 0.5017098192476794 0.43917928676111373
0.29526065599930007 0.4704445530043966 0.47435271128480694
0.2956210579995968 0.457743038593063 0.5046409379579873
0.2971652769992943 0.39423546653639474 0.4880312652662433
0.2974828279984649 0.38739618954567656 0.4753297508549097
0.2977558610000415 0.38153395212506114 0.4636052760136786
0.2979816539991589 0.37469467513434296 0.4479726428920372
0.29821042899857275 0.37176355642403514 0.4450415241817294
0.2984375549985998 0.37176355642403514 0.4460185637518319
0.29866134799885913 0.36980947728383007 0.4460185637518319
0.2988964739997755 0.3629702002931119 0.4479726428920372
0.29915643299864314 0.36687835857352225 0.44894968246213973
0.2993579119993228 0.36687835857352225 0.44699560332193444
0.2995596869986912 0.3678553981436248 0.44992672203224227
0.29976303599869425 0.37176355642403514 0.4509037616023448
0.2999619959991833 0.3707865168539326 0.457743038593063
0.3001613449996512 0.3707865168539326 0.44992672203224227
0.30036123099853285 0.3688324377137273 0.4430874450415241
0.30055933899893716 0.3678553981436248 0.4352711284807034
0.30075794699951075 0.36687835857352225 0.4284318514899854
0.3009575929991115 0.3659013190034197 0.4264777723497801
0.301158348998797 0.3659013190034197 0.4255007327796776
0.30135721699844 0.36687835857352225 0.42159257449926724
0.3015581209983793 0.36492427943331696 0.42256961406936977
0.30179767299887317 0.3610161211529066 0.42940889106008795
0.302014799999597 0.3610161211529066 0.4303859306301905
0.30221787099981157 0.36003908158280407 0.43624816805080613
0.30242318299860926 0.36199316072300936 0.43722520762090866
0.30262360599954263 0.3639472398632144 0.4430874450415241
0.3028260289993341 0.35906204201270153 0.43429408891060084
0.30302541499986546 0.36003908158280407 0.42940889106008795
0.30322402299862006 0.36003908158280407 0.42452369320957506
0.30342400199879194 0.36199316072300936 0.4264777723497801
0.30362444299862545 0.3629702002931119 0.431362970200293
0.3038230329984799 0.36980947728383007 0.4401563263312165
0.30402284499905363 0.36980947728383007 0.441133365901319
0.304222545999437 0.3756717147044455 0.4509037616023448
0.3044211169999471 0.3805569125549584 0.45676599902296044
0.3046191329995054 0.38739618954567656 0.4655593551538837
0.30481803699876764 0.38935026868588185 0.4704445530043966
0.30532888199923036 0.40693698094772834 0.48412310698583294
0.305581340999197 0.4176844162188569 0.4851001465559355
0.3058366709992697 0.4235466536394723 0.48705422569614076
0.30603888999939954 0.431362970200293 0.48900830483634583
0.30623853499855613 0.4382022471910112 0.4880312652662433
0.3064371429991297 0.4479726428920372 0.4909623839765511
0.30663560399989365 0.45188080117244755 0.4831460674157304
0.3068335269999807 0.45969711773326827 0.4753297508549097
0.3071290779989795 0.4733756717147044 0.4684904738641915
0.30733424199934234 0.48705422569614076 0.46165119687347334
0.307536608999726 0.49682462139716654 0.45188080117244755
0.30773590299941134 0.5085490962383976 0.44699560332193444
0.3079352699987794 0.5134342940889105 0.441133365901319
0.30813515599948005 0.524181729360039 0.4352711284807034
0.308334190000096 0.5300439667806547 0.42940889106008795
0.30853433499942184 0.5359062042012701 0.42256961406936977
0.30873625799904403 0.540791402051783 0.4186614557889594
0.3089410519987723 0.5446995603321934 0.4137762579384465
0.30914469699928304 0.5495847581827065 0.4079140205178309
0.30934500900002604 0.5534929164631168 0.40009770395701016
0.3095449689990346 0.5544699560332194 0.39423546653639474
0.30974926199996844 0.5525158768930141 0.39228138739618945
0.309949370999675 0.5544699560332194 0.3952125061064973
0.31015488599950913 0.5613092330239375 0.39423546653639474
0.3103547169994272 0.5583781143136297 0.40009770395701016
0.3105528249998315 0.5632633121641426 0.4040058622374205
0.31075100699854374 0.5652173913043479 0.40205178309721545
0.31095178199939255 0.5652173913043479 0.4040058622374205
0.31114872399848537 0.5661944308744504 0.4049829018075233
0.31134649900013756 0.5681485100146555 0.4059599413776258
0.3115444959985325 0.567171470444553 0.40986809965803617
0.3117429189987888 0.5613092330239375 0.4176844162188569
0.3119433599986223 0.5603321934538348 0.41963849535906195
0.3121412459986459 0.5593551538837322 0.42745481191988266
0.31233933600015007 0.5534929164631168 0.4303859306301905
0.3125468700000056 0.5486077186126037 0.4382022471910112
0.3127497379991837 0.5427454811919883 0.4401563263312165
0.3129480309999053 0.5417684416218858 0.44699560332193444
0.31314623199978087 0.5378602833414754 0.45188080117244755
0.31334426600005827 0.5329750854909623 0.45969711773326827
0.3135462259997439 0.5271128480703469 0.467513434294089
0.31374461199993675 0.5212506106497312 0.4733756717147044
0.31394303499837406 0.5153883732291158 0.47239863214460187
0.3141440319996036 0.5105031753786029 0.47142159257449934
0.3143435109996062 0.5026868588177822 0.4704445530043966
0.3145411929999682 0.4948705422569615 0.4665363947239862
0.3147385239990399 0.48705422569614076 0.4636052760136786
0.31493626199880964 0.4811919882755251 0.45969711773326827
0.3151347959992563 0.4753297508549097 0.45969711773326827
0.3153331449993857 0.4655593551538837 0.457743038593063
0.31553114199959964 0.45969711773326827 0.45969711773326827
0.31572899099955976 0.4528578407425501 0.4636052760136786
0.3159295989989914 0.4450415241817294 0.46458231558378116
0.31612679999852844 0.43722520762090866 0.46458231558378116
0.3163254639985098 0.42940889106008795 0.467513434294089
0.31652490599844896 0.42159257449926724 0.4665363947239862
0.31672273599906475 0.41670737664875435 0.46946751343429405
0.3169203999987076 0.4079140205178309 0.46946751343429405
0.31712447099926067 0.39912066438690763 0.4733756717147044
0.3173254499997711 0.3932584269662922 0.47435271128480694
0.31752418799987936 0.38446507083536874 0.4763067904250122
0.31775068399838347 0.37957987298485585 0.47728382999511476
0.3179507739987457 0.3737176355642404 0.4831460674157304
0.3181495669996366 0.3688324377137273 0.4851001465559355
0.318353971999386 0.3678553981436248 0.486077186126038
0.31855252499917697 0.36687835857352225 0.48705422569614076
0.3187507069997082 0.36492427943331696 0.48216902784562765
0.31894825999916065 0.3639472398632144 0.48216902784562765
0.3191451459988457 0.3639472398632144 0.47728382999511476
0.3193431609997788 0.3659013190034197 0.4733756717147044
0.3195411399992736 0.36492427943331696 0.467513434294089
0.31973848899906443 0.3659013190034197 0.45969711773326827
0.31993718999910925 0.36492427943331696 0.45676599902296044
0.32013568699949246 0.3659013190034197 0.4538348803126526
0.32033535099981236 0.3639472398632144 0.45188080117244755
0.3205341809989477 0.3629702002931119 0.4479726428920372
0.32073277099880215 0.3610161211529066 0.45188080117244755
0.32093197199901624 0.36199316072300936 0.4450415241817294
0.32113020999895525 0.3629702002931119 0.4450415241817294
0.3213278179991903 0.35906204201270153 0.44406448461162684
0.32152599999972153 0.36199316072300936 0.4450415241817294
0.3217276639988995 0.3629702002931119 0.44992672203224227
0.3219304199992621 0.36199316072300936 0.4509037616023448
0.32213156599937065 0.3610161211529066 0.4538348803126526
0.32233283999994455 0.36199316072300936 0.4509037616023448
0.32253365199903783 0.3639472398632144 0.4479726428920372
0.32273633499971766 0.36492427943331696 0.44211040547142155
0.32293773899982625 0.3639472398632144 0.4352711284807034
0.3231393659989408 0.36687835857352225 0.4323400097703958
0.3233414559999801 0.3688324377137273 0.4264777723497801
0.3235423969999829 0.37176355642403514 0.42452369320957506
0.32374339399939345 0.37469467513434296 0.42452369320957506
0.3239452429988887 0.3786028334147533 0.42745481191988266
0.32414681399859546 0.37957987298485585 0.4323400097703958
0.32434882999950787 0.38446507083536874 0.43624816805080613
0.32455543799915176 0.38641914997557403 0.4401563263312165
0.32475969400002214 0.39228138739618945 0.44406448461162684
0.3249609689992212 0.3961895456765998 0.4430874450415241
0.32516268899962597 0.4010747435271129 0.4479726428920372
0.3253637969992269 0.4079140205178309 0.4479726428920372
0.32556557199859526 0.4137762579384465 0.4528578407425501
0.32578484599980584 0.4206155349291647 0.45969711773326827
0.32598834300006274 0.42745481191988266 0.45969711773326827
0.3261898780001502 0.43429408891060084 0.4665363947239862
0.3263910969999415 0.441133365901319 0.4636052760136786
0.3265916679993097 0.44992672203224227 0.46262823644357587
0.32679383199865697 0.457743038593063 0.4655593551538837
0.3269945699994423 0.467513434294089 0.46165119687347334
0.32719638199887413 0.4782608695652173 0.45969711773326827
0.3273982119990251 0.4909623839765511 0.4509037616023448
0.32760006099852035 0.5007327796775769 0.4450415241817294
0.3278011689999403 0.5105031753786029 0.4303859306301905
0.32800192600006994 0.522227650219834 0.42452369320957506
0.32820301499850757 0.5271128480703469 0.4186614557889594
0.32840421599939873 0.5359062042012701 0.41475329750854906
0.328606379998746 0.5398143624816805 0.41670737664875435
0.3288082660001237 0.5446995603321934 0.4206155349291647
0.32901002200014773 0.5495847581827065 0.42940889106008795
0.3292116859993257 0.5534929164631168 0.4333170493404983
0.32941260899860936 0.5534929164631168 0.44406448461162684
0.32961473599971214 0.5525158768930141 0.45676599902296044
0.3298280099988915 0.5534929164631168 0.46262823644357587
0.330029229999127 0.5554469956033219 0.4704445530043966
0.3302307269987068 0.5534929164631168 0.47142159257449934
0.3304315389996191 0.5564240351734244 0.47142159257449934
0.33063318399945274 0.5583781143136297 0.47239863214460187
0.3308355329991173 0.5544699560332194 0.46262823644357587
0.33103660399865475 0.5593551538837322 0.457743038593063
0.3312388969989115 0.5583781143136297 0.44992672203224227
0.33144020899999305 0.5593551538837322 0.44699560332193444
0.33164215099895955 0.5564240351734244 0.441133365901319
0.3318443150001258 0.5554469956033219 0.4450415241817294
0.3320455149987538 0.5534929164631168 0.431362970200293
0.3322466979989258 0.5544699560332194 0.4284318514899854
0.33244801000000734 0.550561797752809 0.42745481191988266
0.3326554329996725 0.550561797752809 0.4303859306301905
0.3328567999997176 0.5446995603321934 0.42452369320957506
0.33324294299927715 0.5388373229115779 0.42256961406936977
0.333495494998715 0.5290669272105519 0.42159257449926724
0.3337572499985981 0.5212506106497312 0.41963849535906195
0.3340243940001528 0.5183194919394236 0.42452369320957506
0.3347380509985669 0.4811919882755251 0.4430874450415241
0.335564445998898 0.4557889594528579 0.46946751343429405
0.3360897169986856 0.4382022471910112 0.4851001465559355
0.33651635899877874 0.42256961406936977 0.4880312652662433
0.3368900379991828 0.40889106008793363 0.49975574010747437
0.33721740399960254 0.39423546653639474 0.49877870053737183
0.33748462199946516 0.38641914997557403 0.4929164631167562
0.33779526599937526 0.376648754274548 0.48216902784562765
0.33817540899872256 0.3707865168539326 0.46262823644357587
0.3398759579995385 0.36980947728383007 0.4753297508549097
0.34032108199971844 0.36687835857352225 0.48900830483634583
0.3406572799995047 0.36199316072300936 0.5007327796775769
0.3409035179993225 0.35906204201270153 0.4948705422569615
0.3411423659999855 0.3629702002931119 0.4929164631167562
0.34138297399840667 0.35710796287249624 0.49193942354665365
0.3416655439996248 0.3561309233023937 0.4880312652662433
0.34202518699930806 0.3561309233023937 0.4802149487054226
0.3422689609997178 0.358085002442599 0.4753297508549097
0.3424987170001259 0.358085002442599 0.4684904738641915
0.34271856599843886 0.358085002442599 0.4587200781631655
0.3429460070001369 0.358085002442599 0.4509037616023448
0.3431628369999089 0.35906204201270153 0.44406448461162684
0.3433648149984947 0.358085002442599 0.44406448461162684
0.34356705299978785 0.3629702002931119 0.43429408891060084
0.34376997599974857 0.37469467513434296 0.4303859306301905
0.3439719359994342 0.37274059599413767 0.42452369320957506
0.3441741560000082 0.3786028334147533 0.41475329750854906
0.3443770419999055 0.3834880312652662 0.4059599413776258
0.3445790389996546 0.3932584269662922 0.40009770395701016
0.3447828689986636 0.39912066438690763 0.39423546653639474
0.34498455099856074 0.40889106008793363 0.39716658524670256
0.3451887709998118 0.40889106008793363 0.3883732291157791
0.3453923050001322 0.4137762579384465 0.3883732291157791
0.34559422799975437 0.41963849535906195 0.3903273082559844
0.3458322799997404 0.4264777723497801 0.3883732291157791
0.3460477949993219 0.42745481191988266 0.3932584269662922
0.34626614399894606 0.43722520762090866 0.39716658524670256
0.3464819559994794 0.4430874450415241 0.4049829018075233
0.3466963049995684 0.44992672203224227 0.41475329750854906
0.34690704199965694 0.46262823644357587 0.4264777723497801
0.34710894699856 0.4704445530043966 0.42745481191988266
0.34730923999995866 0.48216902784562765 0.431362970200293
0.34750883000015165 0.495847581827064 0.4382022471910112
0.3477145489996474 0.5065950170981925 0.441133365901319
0.3479138239999884 0.5153883732291158 0.4450415241817294
0.34811565400013933 0.522227650219834 0.45188080117244755
0.3483148919985979 0.5280898876404494 0.44992672203224227
0.3485141669989389 0.5368832437713726 0.4528578407425501
0.34871229399868753 0.5388373229115779 0.457743038593063
0.3489112359984574 0.5437225207620908 0.4587200781631655
0.34910954799852334 0.5456765999022961 0.467513434294089
0.349308396998822 0.5476306790425012 0.46262823644357587
0.34951078299855 0.5476306790425012 0.457743038593063
0.3497562229986215 0.5515388373229115 0.45969711773326827
0.3499636279993865 0.5534929164631168 0.45676599902296044
0.35016510599962203 0.5525158768930141 0.457743038593063
0.35037934399952064 0.5544699560332194 0.4538348803126526
0.35058252599992556 0.5564240351734244 0.4479726428920372
0.35078352299933613 0.5593551538837322 0.4430874450415241
0.3509875209983875 0.5574010747435272 0.4430874450415241
0.351188683998771 0.5564240351734244 0.4430874450415241
0.35139058899949305 0.5544699560332194 0.4479726428920372
0.3515925669998978 0.5583781143136297 0.45481191988275516
0.3517928609999217 0.5564240351734244 0.46165119687347334
0.35199865399954433 0.5525158768930141 0.4655593551538837
0.35220033599944145 0.5515388373229115 0.46458231558378116
0.35240201899978274 0.5486077186126037 0.46262823644357587
0.3526028679989395 0.5456765999022961 0.45969711773326827
0.35280380899894226 0.5437225207620908 0.4538348803126526
0.3530044169983739 0.5398143624816805 0.4430874450415241
0.35320513699844014 0.5368832437713726 0.4382022471910112
0.3534069119996275 0.533952125061065 0.431362970200293
0.3536076119999052 0.5271128480703469 0.4284318514899854
0.35381673899973975 0.5251587689301416 0.43429408891060084
0.354018587999235 0.5163654127992183 0.43722520762090866
0.35421910399963963 0.5105031753786029 0.44406448461162684
0.3544226189987967 0.5017098192476794 0.44992672203224227
0.35462356099924364 0.4948705422569615 0.4528578407425501
0.35482516899901384 0.486077186126038 0.4557889594528579
0.35502527700009523 0.4802149487054226 0.4509037616023448
0.35522558899901924 0.47435271128480694 0.44992672203224227
0.3554267899999104 0.467513434294089 0.44894968246213973
0.35562660199866514 0.457743038593063 0.44894968246213973
0.3558270059984352 0.44894968246213973 0.4450415241817294
0.3560285039984592 0.4401563263312165 0.44406448461162684
0.35622912999861 0.4352711284807034 0.441133365901319
0.3564292939990992 0.4284318514899854 0.4382022471910112
0.35663132799891173 0.4206155349291647 0.441133365901319
0.35683300999880885 0.4137762579384465 0.43722520762090866
0.35703384099906543 0.4059599413776258 0.441133365901319
0.3572354859988991 0.39912066438690763 0.44406448461162684
0.35745313099869236 0.3932584269662922 0.4684904738641915
0.3584713569998712 0.36980947728383007 0.4763067904250122
0.35873638999873947 0.3678553981436248 0.4811919882755251
0.35894340599952557 0.3629702002931119 0.48412310698583294
0.3591458659993805 0.3678553981436248 0.49193942354665365
0.35934706699845265 0.3678553981436248 0.4851001465559355
0.359547804999238 0.36980947728383007 0.48412310698583294
0.3597499869993044 0.3688324377137273 0.4938935026868587
0.3599582989991177 0.36980947728383007 0.4880312652662433
0.36015962899909937 0.37176355642403514 0.49682462139716654
0.3603612189999694 0.36687835857352225 0.4938935026868587
0.36056149399883 0.36492427943331696 0.4948705422569615
0.36076432399931946 0.3610161211529066 0.49193942354665365
0.3609671359990898 0.36003908158280407 0.48705422569614076
0.36116766999839456 0.36003908158280407 0.47728382999511476
0.36137044499992044 0.35906204201270153 0.4665363947239862
0.3615722389986331 0.358085002442599 0.4538348803126526
0.36182086499866273 0.358085002442599 0.44894968246213973
0.36202502800006187 0.35710796287249624 0.4538348803126526
0.3622271919994091 0.358085002442599 0.4557889594528579
0.36243759599892655 0.3551538837322912 0.4655593551538837
0.3626398709984642 0.35710796287249624 0.46946751343429405
0.36284127599901694 0.35906204201270153 0.47239863214460187
0.36304297700007737 0.3561309233023937 0.47239863214460187
0.36324604799847293 0.35710796287249624 0.47142159257449934
0.3634475819999352 0.35906204201270153 0.4665363947239862
0.36365031999957864 0.3610161211529066 0.4655593551538837
0.3638526319991797 0.3629702002931119 0.4587200781631655
0.3640539619991614 0.36687835857352225 0.45481191988275516
0.3642556259983394 0.3707865168539326 0.45188080117244755
0.3644558079995477 0.376648754274548 0.4479726428920372
0.36465648999910627 0.38153395212506114 0.44894968246213973
0.36485732099936286 0.3883732291157791 0.45188080117244755
0.36505885499900614 0.3932584269662922 0.4479726428920372
0.3652591849986493 0.39912066438690763 0.4450415241817294
0.36546033099875785 0.40889106008793363 0.4430874450415241
0.3656622349990357 0.41475329750854906 0.4382022471910112
0.36588128799849073 0.4235466536394723 0.4382022471910112
0.3660844329988322 0.4323400097703958 0.4323400097703958
0.366286559999935 0.441133365901319 0.4284318514899854
0.3664900569983729 0.44992672203224227 0.42159257449926724
0.36669190599968715 0.46262823644357587 0.41475329750854906
0.3668926249993092 0.47142159257449934 0.41182217879824123
0.3670932699988043 0.4802149487054226 0.4049829018075233
0.3672946189999493 0.4929164631167562 0.3981436248168051
0.3674964869987889 0.5036638983878847 0.39716658524670256
0.36769740999989153 0.5144113336590133 0.39423546653639474
0.3679021289990487 0.522227650219834 0.39228138739618945
0.36810344100013026 0.5271128480703469 0.3932584269662922
0.36830404899956193 0.5319980459208598 0.39912066438690763
0.36868920999950205 0.5378602833414754 0.4157303370786516
0.36890891099938017 0.5437225207620908 0.42159257449926724
0.3691120739986218 0.5456765999022961 0.4303859306301905
0.36931368299883616 0.5446995603321934 0.4323400097703958
0.36951541999951587 0.5456765999022961 0.4323400097703958
0.3697194179985672 0.5466536394723986 0.4333170493404983
0.36992011799884494 0.5495847581827065 0.4333170493404983
0.3701210599992919 0.5564240351734244 0.43624816805080613
0.3703219459985121 0.5515388373229115 0.43722520762090866
0.37052249899898015 0.5583781143136297 0.4382022471910112
0.3707223099991097 0.5534929164631168 0.44699560332193444
0.37092278899945086 0.5544699560332194 0.4538348803126526
0.3711233229987556 0.5544699560332194 0.45676599902296044
0.3713304499997321 0.5564240351734244 0.4587200781631655
0.37153476200001023 0.5583781143136297 0.4606741573033708
0.371736017999865 0.5632633121641426 0.4704445530043966
0.37193701499927556 0.5593551538837322 0.4665363947239862
0.3721374199994898 0.5613092330239375 0.46458231558378116
0.3723381759991753 0.5603321934538348 0.4655593551538837
0.37253911799962225 0.5593551538837322 0.467513434294089
0.3727399109993712 0.5564240351734244 0.4704445530043966
0.372940129998824 0.5554469956033219 0.4733756717147044
0.3731404049995035 0.5495847581827065 0.47239863214460187
0.3733420689986815 0.5456765999022961 0.47239863214460187
0.3735457509992557 0.5388373229115779 0.4704445530043966
0.37374622999959684 0.5329750854909623 0.46165119687347334
0.37394698599928233 0.5271128480703469 0.45969711773326827
0.3741475199985871 0.5212506106497312 0.4587200781631655
0.37435023999933037 0.5114802149487054 0.4655593551538837
0.3746934009996039 0.5026868588177822 0.46946751343429405
0.3749076209987834 0.4880312652662433 0.4753297508549097
0.37511289499889244 0.4811919882755251 0.4880312652662433
0.37531737399876874 0.4704445530043966 0.4909623839765511
0.37551944499864476 0.4636052760136786 0.4938935026868587
0.375722330998542 0.45676599902296044 0.4929164631167562
0.3759234760000254 0.44992672203224227 0.49193942354665365
0.37612426999839954 0.44211040547142155 0.48412310698583294
0.3763255999983812 0.4382022471910112 0.47728382999511476
0.37652730099944165 0.431362970200293 0.46946751343429405
0.37672987199948693 0.4264777723497801 0.45969711773326827
0.3769462949985609 0.4137762579384465 0.457743038593063
0.37716282899964426 0.4059599413776258 0.4606741573033708
0.3774503619988536 0.39228138739618945 0.4763067904250122
0.37767519199951494 0.38446507083536874 0.49193942354665365
0.3779702060001 0.3786028334147533 0.5017098192476794
0.37818099899959634 0.37274059599413767 0.5085490962383976
0.3783958479998546 0.37176355642403514 0.5114802149487054
0.3786795659998461 0.3688324377137273 0.5065950170981925
0.3789288399984798 0.3659013190034197 0.4978016609672691
0.3792228359998262 0.36492427943331696 0.47923790913532005
0.37956184999893594 0.3688324377137273 0.45676599902296044
0.37982984599875635 0.3688324377137273 0.43624816805080613
0.380118915998537 0.37176355642403514 0.4137762579384465
0.3804250229986792 0.3707865168539326 0.4059599413776258
0.38068777799890086 0.36492427943331696 0.39423546653639474
0.3808982199989259 0.36492427943331696 0.3903273082559844
0.38110212399988086 0.3610161211529066 0.3883732291157791
0.38130197299869906 0.36003908158280407 0.3883732291157791
0.3814995069988072 0.358085002442599 0.39228138739618945
0.38173202199868683 0.35906204201270153 0.4010747435271129
0.3819446859997697 0.35710796287249624 0.4049829018075233
0.3821435529989685 0.358085002442599 0.41182217879824123
0.3823425139999017 0.35906204201270153 0.4176844162188569
0.3825415109986352 0.36003908158280407 0.4206155349291647
0.38275043399880815 0.36003908158280407 0.42745481191988266
0.38295081999967806 0.3610161211529066 0.4284318514899854
0.38315098299972306 0.3610161211529066 0.4255007327796776
0.38334909199875256 0.3659013190034197 0.42452369320957506
0.3835472739992838 0.36980947728383007 0.4176844162188569
0.383745770999667 0.37274059599413767 0.4157303370786516
0.3839470650000294 0.3786028334147533 0.412799218368344
0.3841449880001164 0.38446507083536874 0.41670737664875435
0.38434446599967487 0.38641914997557403 0.4255007327796776
0.3845425189992966 0.38935026868588185 0.4382022471910112
0.3847405719989183 0.39423546653639474 0.4528578407425501
0.38494023499879404 0.39912066438690763 0.46262823644357587
0.3851453989991569 0.40205178309721545 0.4704445530043966
0.3853456549986731 0.4040058622374205 0.47239863214460187
0.3855458929992892 0.4079140205178309 0.4655593551538837
0.38575370499893324 0.41475329750854906 0.45676599902296044
0.38596903500001645 0.41963849535906195 0.4528578407425501
0.3862014389997057 0.4284318514899854 0.4528578407425501
0.386419083999499 0.43624816805080613 0.44699560332193444
0.3866517480000766 0.44992672203224227 0.43917928676111373
0.38688033699872904 0.45969711773326827 0.4323400097703958
0.3871004079992417 0.47142159257449934 0.42256961406936977
0.3873220159985067 0.48705422569614076 0.412799218368344
0.38754351299940026 0.5036638983878847 0.4079140205178309
0.3877434539990645 0.5105031753786029 0.4108451392281387
0.38794152599984955 0.5212506106497312 0.4040058622374205
0.38814313399961975 0.5271128480703469 0.4079140205178309
0.38834290900013 0.5349291646311676 0.41670737664875435
0.3885468319986103 0.540791402051783 0.4255007327796776
0.38874632899933204 0.5476306790425012 0.43624816805080613
0.3889449739999691 0.5486077186126037 0.4450415241817294
0.3891439339986391 0.550561797752809 0.4557889594528579
0.38934622799934004 0.5515388373229115 0.4655593551538837
0.3895447429986234 0.5544699560332194 0.467513434294089
0.3897528509987751 0.5544699560332194 0.467513434294089
0.3899550520000048 0.5544699560332194 0.4665363947239862
0.3901575119998597 0.5554469956033219 0.46458231558378116
0.3903568429996085 0.5574010747435272 0.46458231558378116
0.39055628399910347 0.5583781143136297 0.4655593551538837
0.39075444799891557 0.5583781143136297 0.4636052760136786
0.3909538899988547 0.5613092330239375 0.4665363947239862
0.39115412699902663 0.5622862725940401 0.467513434294089
0.3913518839999597 0.5642403517342451 0.467513434294089
0.3915506590001314 0.5622862725940401 0.46946751343429405
0.3917506929992669 0.5622862725940401 0.4733756717147044
0.3919510599989735 0.5603321934538348 0.4763067904250122
0.3921500019987434 0.5574010747435272 0.47923790913532005
0.3923479249988304 0.5583781143136297 0.4831460674157304
0.39254669999900216 0.5534929164631168 0.4811919882755251
0.39274582699908933 0.5486077186126037 0.48412310698583294
0.39294465700004366 0.5456765999022961 0.4831460674157304
0.3931432469998981 0.540791402051783 0.48216902784562765
0.393342354998822 0.5349291646311676 0.4802149487054226
0.39354081499914173 0.533952125061065 0.47923790913532005
0.3937432009988697 0.5261358085002443 0.47239863214460187
0.39396336499885365 0.5202735710796287 0.4684904738641915
0.3941865839988168 0.5134342940889105 0.46262823644357587
0.39440793199901236 0.5056179775280898 0.45676599902296044
0.39461026299977675 0.49682462139716654 0.4538348803126526
0.39482859300005657 0.4938935026868587 0.4557889594528579
0.39503323799908685 0.48412310698583294 0.4587200781631655
0.3952374759992381 0.4763067904250122 0.46165119687347334
0.39543815799879667 0.467513434294089 0.4655593551538837
0.39563756299867237 0.4655593551538837 0.47239863214460187
0.3958378190000076 0.45481191988275516 0.4684904738641915
0.3960366309984238 0.4479726428920372 0.467513434294089
0.3962352389989974 0.44211040547142155 0.467513434294089
0.396434402999148 0.4352711284807034 0.4636052760136786
0.39663545599978534 0.4284318514899854 0.457743038593063
0.3968361379993439 0.4176844162188569 0.4538348803126526
0.39703380199898675 0.41182217879824123 0.457743038593063
0.3972322809986508 0.3981436248168051 0.4450415241817294
0.3974302959995839 0.3913043478260869 0.44699560332193444
0.3976280159986345 0.38251099169516367 0.44406448461162684
0.39783171599992784 0.3786028334147533 0.441133365901319
0.3980300650000572 0.3688324377137273 0.43917928676111373
0.39822909999929834 0.3639472398632144 0.4323400097703958
0.3986124639995978 0.36003908158280407 0.412799218368344
0.3990074220000679 0.3551538837322912 0.40693698094772834
0.39930373199968017 0.36003908158280407 0.4079140205178309
0.3995504139984405 0.36199316072300936 0.42256961406936977
0.3998238539988961 0.3639472398632144 0.4460185637518319
0.4000892770000064 0.3688324377137273 0.46165119687347334
0.400365512999997 0.36980947728383007 0.4704445530043966
0.40071806400010246 0.36980947728383007 0.4733756717147044
0.40112055799909285 0.37176355642403514 0.4528578407425501
0.4016072359991085 0.37274059599413767 0.43917928676111373
0.401865898998949 0.3737176355642404 0.4352711284807034
0.4020676740001363 0.37274059599413767 0.43624816805080613
0.4022678929995891 0.37274059599413767 0.4401563263312165
0.4024693899991689 0.36980947728383007 0.44406448461162684
0.4026691649996792 0.3659013190034197 0.45188080117244755
0.4028672549993644 0.3629702002931119 0.45676599902296044
0.4030670669999381 0.3639472398632144 0.45969711773326827
0.40326882299996214 0.3629702002931119 0.457743038593063
0.40346698699977424 0.3610161211529066 0.4557889594528579
0.403665447000094 0.3629702002931119 0.44894968246213973
0.40386383299846784 0.3678553981436248 0.44894968246213973
0.4040616449983645 0.3678553981436248 0.44406448461162684
0.4042589199998474 0.37274059599413767 0.4401563263312165
0.4044560469992575 0.3786028334147533 0.43917928676111373
0.40511194499958947 0.3981436248168051 0.4352711284807034
0.40537114499966265 0.4049829018075233 0.4401563263312165
0.4055870309985039 0.412799218368344 0.44894968246213973
0.40584184199906304 0.42256961406936977 0.457743038593063
0.40606744999968214 0.4284318514899854 0.46262823644357587
0.40627141000004485 0.44406448461162684 0.46458231558378116
0.4064726659998996 0.4460185637518319 0.4704445530043966
0.4066723849991831 0.44894968246213973 0.46946751343429405
0.40687265999986266 0.45969711773326827 0.4733756717147044
0.40707115799887106 0.4684904738641915 0.4704445530043966
0.4072718769984931 0.4831460674157304 0.46946751343429405
0.40747005899902433 0.48998534440644836 0.467513434294089
0.40766831600012665 0.5017098192476794 0.4655593551538837
0.40786755299996 0.512457254518808 0.47142159257449934
0.40806573599911644 0.5202735710796287 0.47435271128480694
0.4082643999990978 0.5271128480703469 0.4753297508549097
0.40846371199950227 0.5329750854909623 0.4802149487054226
0.40866317199834157 0.5378602833414754 0.4811919882755251
0.4088612239993381 0.5417684416218858 0.4831460674157304
0.40905948099862144 0.5437225207620908 0.4802149487054226
0.4092580149990681 0.5476306790425012 0.47435271128480694
0.4094557899989013 0.5466536394723986 0.4684904738641915
0.4096540649989038 0.5495847581827065 0.457743038593063
0.4098553029998584 0.5486077186126037 0.4479726428920372
0.4100550219991419 0.5486077186126037 0.44406448461162684
0.4102518709987635 0.5515388373229115 0.441133365901319
0.4104492569986178 0.5544699560332194 0.4430874450415241
0.41064725399883173 0.5544699560332194 0.4450415241817294
0.410846306998792 0.5554469956033219 0.4528578407425501
0.41104406299928087 0.5574010747435272 0.45188080117244755
0.41124196799864876 0.5515388373229115 0.4528578407425501
0.41144052099843975 0.5534929164631168 0.44894968246213973
0.4116387769990979 0.5515388373229115 0.44406448461162684
0.41183749599986186 0.5525158768930141 0.4401563263312165
0.41203553000013926 0.5515388373229115 0.4303859306301905
0.4122344349998457 0.550561797752809 0.42256961406936977
0.41243330299948866 0.550561797752809 0.41963849535906195
0.4126482069987105 0.5495847581827065 0.4186614557889594
0.4128712589990755 0.5495847581827065 0.4235466536394723
0.4130815339995024 0.5495847581827065 0.42940889106008795
0.4132923639990622 0.5456765999022961 0.43624816805080613
0.41349191699919174 0.5427454811919883 0.44699560332193444
0.41370876600012707 0.5329750854909623 0.4509037616023448
0.4139094659985858 0.5280898876404494 0.4587200781631655
0.41410768599962466 0.5183194919394236 0.4655593551538837
0.41431044199998723 0.5105031753786029 0.46946751343429405
0.4145093099996302 0.5026868588177822 0.4733756717147044
0.41470775099878665 0.4938935026868587 0.4802149487054226
0.41490619299838727 0.4880312652662433 0.4851001465559355
0.4151054119993205 0.4802149487054226 0.48412310698583294
0.4153029829994921 0.4733756717147044 0.4811919882755251
0.41550198099866975 0.4665363947239862 0.4811919882755251
0.41570460699949763 0.45969711773326827 0.4782608695652173
0.41590630799873907 0.45188080117244755 0.47239863214460187
0.41610623099950317 0.44406448461162684 0.47142159257449934
0.4163041729989345 0.4352711284807034 0.467513434294089
0.41650268800003687 0.4284318514899854 0.467513434294089
0.41670116699970094 0.42159257449926724 0.4665363947239862
0.41690551600004255 0.4157303370786516 0.4636052760136786
0.4171075499998551 0.40693698094772834 0.4606741573033708
0.41730604699841933 0.3961895456765998 0.44992672203224227
0.41750521099856996 0.3883732291157791 0.441133365901319
0.4177255779995903 0.3834880312652662 0.43429408891060084
0.4179269639989798 0.3756717147044455 0.4235466536394723
0.41812551699877076 0.37469467513434296 0.4157303370786516
0.4183252179991541 0.3688324377137273 0.4079140205178309
0.418524881999474 0.3688324377137273 0.40205178309721545
0.4187241929994343 0.36687835857352225 0.39912066438690763
0.41892356099924655 0.36492427943331696 0.40009770395701016
0.41912646499986295 0.36492427943331696 0.4040058622374205
0.419325980999929 0.3678553981436248 0.41182217879824123
0.4195256449984299 0.36687835857352225 0.4157303370786516
0.4197249749995535 0.3678553981436248 0.42452369320957506
0.4199262689999159 0.37176355642403514 0.4284318514899854
0.4201263769991783 0.3707865168539326 0.42940889106008795
0.42032624399871565 0.37176355642403514 0.43429408891060084
0.4205259269983799 0.3678553981436248 0.43624816805080613
0.4207259790000535 0.3659013190034197 0.43624816805080613
0.42092477299956954 0.3678553981436248 0.4382022471910112
0.42112656599965703 0.3639472398632144 0.44211040547142155
0.42132539699923655 0.36003908158280407 0.44211040547142155
0.4215237829994294 0.3610161211529066 0.44894968246213973
0.4217232430000877 0.36003908158280407 0.45188080117244755
0.42192162899846153 0.35906204201270153 0.45969711773326827
0.4221218479997333 0.358085002442599 0.46458231558378116
0.4223200859996723 0.35710796287249624 0.4763067904250122
0.42251849099920946 0.358085002442599 0.48216902784562765
0.42271652499948686 0.35710796287249624 0.4880312652662433
0.4229142629992566 0.35906204201270153 0.4929164631167562
0.423111574998984 0.3551538837322912 0.4938935026868587
0.42330984999898646 0.35710796287249624 0.49682462139716654
0.4235090129986929 0.358085002442599 0.4948705422569615
0.42370745500011253 0.36199316072300936 0.48705422569614076
0.4239054519985075 0.3629702002931119 0.486077186126038
0.42410852299872204 0.3678553981436248 0.4782608695652173
0.42434676099946955 0.37274059599413767 0.47142159257449934
0.4246439789985743 0.38251099169516367 0.47142159257449934
0.42488091999985045 0.3883732291157791 0.4684904738641915
0.4250851389988384 0.3981436248168051 0.4684904738641915
0.4252863579986297 0.40009770395701016 0.4636052760136786
0.42548887399971136 0.40693698094772834 0.45481191988275516
0.4257248329995491 0.41182217879824123 0.44211040547142155
0.42593427499923564 0.4235466536394723 0.4255007327796776
0.4261371049997251 0.42940889106008795 0.4157303370786516
0.42634608399930585 0.43429408891060084 0.4059599413776258
0.42654800699892803 0.4430874450415241 0.4040058622374205
0.42674931900000956 0.45188080117244755 0.40205178309721545
0.426950870998553 0.46262823644357587 0.4049829018075233
0.42715259099895775 0.47435271128480694 0.40693698094772834
0.4273539579990029 0.4831460674157304 0.40986809965803617
0.42755456599843455 0.4938935026868587 0.41670737664875435
0.4277556929991988 0.5065950170981925 0.42159257449926724
0.4279572460000054 0.5153883732291158 0.42452369320957506
0.4281588539997756 0.5232046897899365 0.4303859306301905
0.4283591469993553 0.5290669272105519 0.42940889106008795
0.4285599219983851 0.5378602833414754 0.4323400097703958
0.42876682699898083 0.540791402051783 0.4284318514899854
0.4291677469991555 0.5466536394723986 0.42256961406936977
0.42939065099926665 0.5515388373229115 0.41963849535906195
0.42959538899958716 0.5525158768930141 0.4176844162188569
0.42982103399845073 0.5554469956033219 0.4206155349291647
0.4300257529994269 0.5544699560332194 0.42452369320957506
0.43022769399976823 0.5544699560332194 0.431362970200293
0.43042913599856547 0.5554469956033219 0.43722520762090866
0.4306313919987588 0.5574010747435272 0.43917928676111373
0.4308354259992484 0.5583781143136297 0.441133365901319
0.4310364049997588 0.5564240351734244 0.4382022471910112
0.43123680999997305 0.5632633121641426 0.4401563263312165
0.4314378619983472 0.5603321934538348 0.4430874450415241
0.43163956299940764 0.5642403517342451 0.44992672203224227
0.43184054199991806 0.5593551538837322 0.4557889594528579
0.4320412609995401 0.5622862725940401 0.46946751343429405
0.4322432769986335 0.5564240351734244 0.4831460674157304
0.43244397699891124 0.5534929164631168 0.4909623839765511
0.4326446409995697 0.5534929164631168 0.4929164631167562
0.43284558300001663 0.5486077186126037 0.49193942354665365
0.43304635799904645 0.5437225207620908 0.4909623839765511
0.43324778099849937 0.5417684416218858 0.4880312652662433
0.4334503889986081 0.5349291646311676 0.48412310698583294
0.4336513299986109 0.5280898876404494 0.4851001465559355
0.43385817899979884 0.5232046897899365 0.48412310698583294
0.4340600279992941 0.5202735710796287 0.48216902784562765
0.43426135899971996 0.5114802149487054 0.4811919882755251
0.4344626149995747 0.5046409379579873 0.4831460674157304
0.4346633709992602 0.495847581827064 0.4802149487054226
0.4348659609986498 0.4880312652662433 0.4782608695652173
0.43506682899896987 0.48216902784562765 0.47923790913532005
0.4352684549994592 0.4733756717147044 0.48412310698583294
0.4354696559985314 0.47728382999511476 0.4763067904250122
0.4356718009985343 0.4665363947239862 0.47728382999511476
0.43587359499906597 0.4557889594528579 0.47728382999511476
0.43607425799928023 0.44699560332193444 0.4733756717147044
0.4362748669991561 0.4401563263312165 0.467513434294089
0.4364749189990107 0.4333170493404983 0.46262823644357587
0.43667593499958457 0.42745481191988266 0.45481191988275516
0.4368778769985511 0.4176844162188569 0.44992672203224227
0.4370789659988077 0.4079140205178309 0.44992672203224227
0.4372872219992132 0.40205178309721545 0.44992672203224227
0.4374888859983912 0.3952125061064973 0.4538348803126526
0.4377119759992638 0.38641914997557403 0.4557889594528579
0.4379142319994571 0.38251099169516367 0.4557889594528579
0.4381151919988042 0.37957987298485585 0.4587200781631655
0.4383180779987015 0.37469467513434296 0.457743038593063
0.43852013099967735 0.37274059599413767 0.4479726428920372
0.4387219609998283 0.3707865168539326 0.44211040547142155
0.4389224579990696 0.36980947728383007 0.4382022471910112
0.43912339999951655 0.3678553981436248 0.4333170493404983
0.4393244519997097 0.3688324377137273 0.4323400097703958
0.4395254119990568 0.36980947728383007 0.431362970200293
0.43972822399882716 0.376648754274548 0.43429408891060084
0.43992938799965486 0.3707865168539326 0.43722520762090866
0.4401302559999749 0.37176355642403514 0.4401563263312165
0.44033306799974525 0.36980947728383007 0.44211040547142155
0.4405341940000653 0.36980947728383007 0.4450415241817294
0.44074037599966687 0.3678553981436248 0.4509037616023448
0.4409413180001138 0.3639472398632144 0.44406448461162684
0.44114514799912286 0.3629702002931119 0.44211040547142155
0.4413459970000986 0.3639472398632144 0.441133365901319
0.44154634599908604 0.36199316072300936 0.44211040547142155
0.4417490839987295 0.3610161211529066 0.43917928676111373
0.44195172899890167 0.3610161211529066 0.4382022471910112
0.4421575409996876 0.3610161211529066 0.43917928676111373
0.44235768699945766 0.3610161211529066 0.44211040547142155
0.44255942400013737 0.3610161211529066 0.44211040547142155
0.4427599589998863 0.36199316072300936 0.44699560332193444
0.4429617329988105 0.3610161211529066 0.44894968246213973
0.44316274899938435 0.3610161211529066 0.44992672203224227
0.44336398699852 0.36199316072300936 0.45188080117244755
0.443564298999263 0.3629702002931119 0.44992672203224227
0.44376557399846206 0.36687835857352225 0.44992672203224227
0.4439670709998609 0.3688324377137273 0.4460185637518319
0.4441682349988696 0.376648754274548 0.4450415241817294
0.44436863899863965 0.37469467513434296 0.44406448461162684
0.44457374699959473 0.38153395212506114 0.44406448461162684
0.44477602199913235 0.3883732291157791 0.4460185637518319
0.4449772230000235 0.39423546653639474 0.44992672203224227
0.4451782199994341 0.39912066438690763 0.4509037616023448
0.4453792539989081 0.4040058622374205 0.4528578407425501
0.44557960299971455 0.4108451392281387 0.4528578407425501
0.4457965259989578 0.4157303370786516 0.44992672203224227
0.44600817099853884 0.42256961406936977 0.4479726428920372
0.44621107499915524 0.431362970200293 0.44211040547142155
0.44641399799911596 0.43917928676111373 0.43624816805080613
0.44661534699844196 0.4460185637518319 0.4352711284807034
0.44681597399903694 0.4538348803126526 0.4303859306301905
0.44701667499975883 0.46458231558378116 0.43429408891060084
0.447218190998683 0.4753297508549097 0.4333170493404983
0.44741900299959525 0.4831460674157304 0.43722520762090866
0.44761962899974606 0.49877870053737183 0.4401563263312165
0.4478217369996855 0.5065950170981925 0.4450415241817294
0.44802258599884226 0.5153883732291158 0.44992672203224227
0.4482233979997545 0.5232046897899365 0.4528578407425501
0.44842461799999 0.5359062042012701 0.45969711773326827
0.4486257629996544 0.5349291646311676 0.4538348803126526
0.4488266669995937 0.540791402051783 0.4538348803126526
0.44902744199862354 0.5427454811919883 0.44992672203224227
0.449228661998859 0.5466536394723986 0.4479726428920372
0.449428824998904 0.5515388373229115 0.44211040547142155
0.44963072999962606 0.5495847581827065 0.43917928676111373
0.44983220899848675 0.5515388373229115 0.4401563263312165
0.4500327979985741 0.5515388373229115 0.4333170493404983
0.4502327399986825 0.5574010747435272 0.431362970200293
0.4504331629996159 0.5554469956033219 0.42256961406936977
0.45063377099904756 0.5574010747435272 0.41670737664875435
0.4508345639987965 0.5564240351734244 0.412799218368344
0.45103685799949744 0.5564240351734244 0.403028822667318
0.4512378359995637 0.5554469956033219 0.40009770395701016
0.45143864799865696 0.5564240351734244 0.403028822667318
0.4516402749995905 0.5525158768930141 0.40205178309721545
0.45184141999925487 0.5593551538837322 0.40986809965803617
0.45204241699866543 0.5534929164631168 0.41670737664875435
0.45224463699923945 0.5534929164631168 0.42159257449926724
0.4524451709985442 0.550561797752809 0.431362970200293
0.45264453799973126 0.5486077186126037 0.43917928676111373
0.452844349998486 0.5446995603321934 0.44992672203224227
0.45304495899836184 0.5427454811919883 0.4655593551538837
0.45324604799861845 0.5359062042012701 0.47923790913532005
0.4534466559998691 0.5310210063507572 0.4929164631167562
0.45364837599845487 0.5271128480703469 0.5007327796775769
0.45385187299871177 0.5232046897899365 0.5095261358085001
0.45405340699835506 0.5173424523693209 0.5163654127992183
0.45425423699998646 0.5144113336590133 0.5212506106497312
0.4544554749991221 0.5085490962383976 0.5232046897899365
0.454656731999421 0.49975574010747437 0.5251587689301416
0.45485717299925454 0.495847581827064 0.5280898876404494
0.45505981799942674 0.48705422569614076 0.5319980459208598
0.4552609639995353 0.47923790913532005 0.5310210063507572
0.4554618309994112 0.4733756717147044 0.5251587689301416
0.4556622169984621 0.4684904738641915 0.5134342940889105
0.4558630479987187 0.45969711773326827 0.5046409379579873
0.45606324799882714 0.4538348803126526 0.4909623839765511
0.456265300999803 0.4479726428920372 0.4811919882755251
0.4564663909986848 0.441133365901319 0.47728382999511476
0.45666655499917397 0.4333170493404983 0.47239863214460187
0.45686847799879615 0.42452369320957506 0.47435271128480694
0.4570696409991797 0.412799218368344 0.4763067904250122
0.45726960100000724 0.4059599413776258 0.4763067904250122
0.45747115399899485 0.3981436248168051 0.4733756717147044
0.45780707499943674 0.38641914997557403 0.4587200781631655
0.45802610899954743 0.3805569125549584 0.44406448461162684
0.4582292729992332 0.3756717147044455 0.4352711284807034
0.45843030699870724 0.3737176355642404 0.4284318514899854
0.4586338409990276 0.37176355642403514 0.4264777723497801
0.4588344679996226 0.36687835857352225 0.42256961406936977
0.459034982999583 0.36980947728383007 0.42452369320957506
0.4592362769999454 0.36687835857352225 0.42745481191988266
0.45943758899920795 0.37176355642403514 0.42940889106008795
0.4596382159998029 0.3678553981436248 0.4284318514899854
0.45983880499989027 0.3707865168539326 0.42940889106008795
0.46003963600014686 0.3678553981436248 0.42940889106008795
0.46025281799848017 0.36980947728383007 0.4323400097703958
0.4604672039986326 0.36980947728383007 0.4333170493404983
0.4607308659997216 0.36492427943331696 0.43429408891060084
0.4609576589991775 0.3678553981436248 0.43429408891060084
0.46118185999876005 0.3610161211529066 0.4333170493404983
0.46140068999920913 0.36003908158280407 0.43624816805080613
0.46161640899845224 0.36003908158280407 0.4323400097703958
0.46189657200011425 0.36003908158280407 0.4323400097703958
0.4621143089989346 0.35906204201270153 0.431362970200293
0.4623832319994108 0.36003908158280407 0.4323400097703958
0.46262526499958767 0.3610161211529066 0.431362970200293
0.4628721499993844 0.36199316072300936 0.4303859306301905
0.4631415719995857 0.3639472398632144 0.42745481191988266
0.46354428899940103 0.3659013190034197 0.42452369320957506
0.46382274799907464 0.3688324377137273 0.42452369320957506
0.46411774399894057 0.3737176355642404 0.4176844162188569
0.4644442759999947 0.3834880312652662 0.42159257449926724
0.46471604999896954 0.3903273082559844 0.4255007327796776
0.46496545399895695 0.39423546653639474 0.44406448461162684
0.46524096799839754 0.4040058622374205 0.4606741573033708
0.4655469819990685 0.412799218368344 0.46262823644357587
0.4657626829994115 0.42159257449926724 0.4684904738641915
0.4659649389996048 0.4264777723497801 0.4704445530043966
0.46616443599850754 0.4333170493404983 0.47239863214460187
0.46636343299906 0.43722520762090866 0.4665363947239862
0.4665637269990839 0.4430874450415241 0.4606741573033708
0.4667616309998266 0.45188080117244755 0.457743038593063
0.4669635169993853 0.45969711773326827 0.4538348803126526
0.46716581100008625 0.4704445530043966 0.45188080117244755
0.4673645299990312 0.4811919882755251 0.4528578407425501
0.46756415699928766 0.4938935026868587 0.44699560332193444
0.46776589499859256 0.5065950170981925 0.44894968246213973
0.46796468799948343 0.5173424523693209 0.4479726428920372
0.4681650559996342 0.5271128480703469 0.44992672203224227
0.46836538599927735 0.5349291646311676 0.44992672203224227
0.46856419799951254 0.5398143624816805 0.45188080117244755
0.4687633619996632 0.5466536394723986 0.4538348803126526
0.46896311799901014 0.550561797752809 0.46165119687347334
0.4691640410001128 0.5554469956033219 0.4665363947239862
0.4693626309999672 0.5534929164631168 0.46458231558378116
0.4695660540000972 0.5544699560332194 0.457743038593063
0.4697891059986432 0.5574010747435272 0.44992672203224227
0.4699915849996614 0.5583781143136297 0.4401563263312165
0.47019165599886037 0.5583781143136297 0.4352711284807034
0.47039191299882077 0.5583781143136297 0.42745481191988266
0.470590409999204 0.5603321934538348 0.4186614557889594
0.4707887959993968 0.5593551538837322 0.4176844162188569
0.4709868669997377 0.5574010747435272 0.41963849535906195
0.47118532700005744 0.5554469956033219 0.4206155349291647
0.47138413899847365 0.5574010747435272 0.4255007327796776
0.4715829879987723 0.5564240351734244 0.43429408891060084
0.4717803739986266 0.5564240351734244 0.44211040547142155
0.47198585299884144 0.5564240351734244 0.4479726428920372
0.4721845719996054 0.5593551538837322 0.44894968246213973
0.4723819579994597 0.5554469956033219 0.45481191988275516
0.47258125099870085 0.5534929164631168 0.46262823644357587
0.4727803599998879 0.550561797752809 0.467513434294089
0.4729788569984521 0.5486077186126037 0.47142159257449934
0.4731771499991737 0.5427454811919883 0.47239863214460187
0.4733835919996636 0.5388373229115779 0.47435271128480694
0.4735817179989681 0.5349291646311676 0.47142159257449934
0.4737895299986121 0.5310210063507572 0.4655593551538837
0.47398921300009533 0.522227650219834 0.46458231558378116
0.4741878019995056 0.5192965315095261 0.4665363947239862
0.47438755899929674 0.5114802149487054 0.46458231558378116
0.4745852969990665 0.5105031753786029 0.46262823644357587
0.47492449499986833 0.49682462139716654 0.46458231558378116
0.47513867799898435 0.48998534440644836 0.45969711773326827
0.47533982299864874 0.48216902784562765 0.45969711773326827
0.47553909799898975 0.4733756717147044 0.45969711773326827
0.4757373729989922 0.4636052760136786 0.45969711773326827
0.47593496199988294 0.45676599902296044 0.467513434294089
0.4761327739997796 0.44699560332193444 0.46946751343429405
0.47633051199954934 0.4401563263312165 0.4763067904250122
0.476529045999996 0.4333170493404983 0.4753297508549097
0.4767297469988989 0.42745481191988266 0.4782608695652173
0.47692916999949375 0.42159257449926724 0.4811919882755251
0.47712735299865017 0.412799218368344 0.4802149487054226
0.4773247569992236 0.40205178309721545 0.48216902784562765
0.4775236799996492 0.39912066438690763 0.486077186126038
0.4777334549999068 0.3903273082559844 0.4880312652662433
0.4779366739985562 0.38641914997557403 0.48412310698583294
0.4781399309995322 0.38153395212506114 0.47923790913532005
0.4783423539993237 0.376648754274548 0.4753297508549097
0.47854510999968625 0.37176355642403514 0.47435271128480694
0.4787464959990757 0.36980947728383007 0.47728382999511476
0.47895164100009424 0.36492427943331696 0.4733756717147044
0.479189507999763 0.3639472398632144 0.47435271128480694
0.4794441710000683 0.36492427943331696 0.47142159257449934
0.4797218519997841 0.3639472398632144 0.4636052760136786
0.4799803489986516 0.3678553981436248 0.4606741573033708
0.48025165899889544 0.3659013190034197 0.44699560332193444
0.48054306299854943 0.3659013190034197 0.43429408891060084
0.4808089479993214 0.36492427943331696 0.4176844162188569
0.4810850549984025 0.3659013190034197 0.41475329750854906
0.48138429099890345 0.3678553981436248 0.4059599413776258
0.4816708979997202 0.36980947728383007 0.40889106008793363
0.48196122699846455 0.36980947728383007 0.412799218368344
0.4821906319994014 0.37274059599413767 0.4186614557889594
0.48240120299851696 0.3688324377137273 0.4255007327796776
0.4826271439997072 0.3688324377137273 0.42745481191988266
0.48284834399964893 0.3659013190034197 0.4352711284807034
0.48307065599874477 0.36687835857352225 0.44211040547142155
0.4832920599983481 0.3688324377137273 0.43917928676111373
0.483566148999671 0.36687835857352225 0.4460185637518319
0.48386875599862833 0.3707865168539326 0.44699560332193444
0.4840823269987595 0.3707865168539326 0.44699560332193444
0.48429408299853094 0.3737176355642404 0.4479726428920372
0.484501264998471 0.376648754274548 0.44894968246213973
0.48470498399910866 0.3805569125549584 0.4538348803126526
0.4849146849992394 0.38641914997557403 0.4587200781631655
0.48514460799924564 0.3903273082559844 0.4538348803126526
0.48536443800003326 0.3981436248168051 0.4509037616023448
0.4855831009990652 0.4040058622374205 0.4509037616023448
0.4858331899995392 0.41182217879824123 0.4430874450415241
0.4860609649986145 0.4235466536394723 0.43722520762090866
0.4862809249989368 0.431362970200293 0.43624816805080613
0.4865006989984977 0.43917928676111373 0.4323400097703958
0.48671178899894585 0.44699560332193444 0.4323400097703958
0.48692256299909786 0.45969711773326827 0.42940889106008795
0.48713157899874204 0.46946751343429405 0.42452369320957506
0.4873479089983448 0.4811919882755251 0.4235466536394723
0.4875721649987099 0.4948705422569615 0.4235466536394723
0.48778888400011056 0.5036638983878847 0.4255007327796776
0.48800152900003013 0.5144113336590133 0.4323400097703958
0.48822376699899905 0.5212506106497312 0.4401563263312165
0.48843637499885517 0.5261358085002443 0.44406448461162684
0.48865263100015 0.5359062042012701 0.4509037616023448
0.4888770170000498 0.5427454811919883 0.4538348803126526
0.48928514099861786 0.5466536394723986 0.45969711773326827
0.4895824139985052 0.5495847581827065 0.457743038593063
0.48987616900012654 0.550561797752809 0.45481191988275516
0.49013235099846497 0.5564240351734244 0.4528578407425501
0.49036932899980457 0.5613092330239375 0.44992672203224227
0.4905933809986891 0.5613092330239375 0.44894968246213973
0.49091041299834615 0.5583781143136297 0.457743038593063
0.49136194399943633 0.5632633121641426 0.4704445530043966
0.49159762599992973 0.5613092330239375 0.46458231558378116
0.49180086399974243 0.5574010747435272 0.4655593551538837
0.4920082859989634 0.5583781143136297 0.46165119687347334
0.492210560998501 0.5564240351734244 0.4606741573033708
0.49241252100000565 0.5554469956033219 0.4538348803126526
0.492613888998676 0.5525158768930141 0.4450415241817294
0.4928150709984038 0.550561797752809 0.44406448461162684
0.4930164199995488 0.5486077186126037 0.43624816805080613
0.49321941699963645 0.5437225207620908 0.4333170493404983
0.49342337699999916 0.540791402051783 0.4352711284807034
0.4936246889992617 0.5368832437713726 0.43429408891060084
0.4938312969989056 0.5290669272105519 0.43624816805080613
0.4940314979994582 0.524181729360039 0.43624816805080613
0.4942324029998417 0.5183194919394236 0.43624816805080613
0.49443408499973884 0.5095261358085001 0.43722520762090866
0.49463530399953015 0.5046409379579873 0.4382022471910112
0.49483639399841195 0.49682462139716654 0.43429408891060084
0.4950414839986479 0.48705422569614076 0.43624816805080613
0.4952455729999201 0.48216902784562765 0.44406448461162684
0.49544812599924626 0.4704445530043966 0.4430874450415241
0.49565988199901767 0.4655593551538837 0.4479726428920372
0.4958738789991912 0.4538348803126526 0.45188080117244755
0.49608928299858235 0.44894968246213973 0.4557889594528579
0.49630557599994063 0.44211040547142155 0.4557889594528579
0.49654485099927115 0.4323400097703958 0.45969711773326827
0.4967919209993852 0.4206155349291647 0.4587200781631655
0.49701073299911513 0.412799218368344 0.45481191988275516
0.49721397099892783 0.4059599413776258 0.44894968246213973
0.49741663499844435 0.3961895456765998 0.4460185637518319
0.4976180019984895 0.38641914997557403 0.441133365901319
0.4978275359990221 0.38153395212506114 0.43917928676111373
0.4980293479984539 0.3776257938446508 0.43722520762090866
0.49823347499841475 0.37274059599413767 0.44406448461162684
0.49843560099907336 0.37176355642403514 0.4509037616023448
0.4986382839997532 0.3688324377137273 0.45676599902296044
0.4988390029993752 0.36687835857352225 0.4606741573033708
0.4990397040000971 0.3688324377137273 0.47142159257449934
0.4992402009993384 0.36687835857352225 0.47923790913532005
0.49944093900012376 0.3688324377137273 0.4948705422569615
0.4996414540000842 0.3707865168539326 0.49877870053737183
0.4998412289987755 0.3737176355642404 0.5046409379579873
0.5000429299998359 0.376648754274548 0.5085490962383976
0.5002445009995427 0.37957987298485585 0.5095261358085001
0.5004455719990801 0.38251099169516367 0.5144113336590133
0.5006500689996756 0.3805569125549584 0.5183194919394236
0.5008511589985574 0.3805569125549584 0.5163654127992183
0.5010539340000832 0.376648754274548 0.5192965315095261
0.5012549499988381 0.376648754274548 0.5105031753786029
0.5014549099996657 0.37274059599413767 0.5036638983878847
0.5016557959988859 0.3678553981436248 0.5017098192476794
0.5018619959992066 0.36687835857352225 0.4948705422569615
0.502066011998977 0.3707865168539326 0.48705422569614076
0.5022663429990644 0.36980947728383007 0.4704445530043966
0.5026752069989016 0.37176355642403514 0.45969711773326827
0.5028777600000467 0.3678553981436248 0.4479726428920372
0.503077941999436 0.3678553981436248 0.42940889106008795
0.5032819759999256 0.3659013190034197 0.41475329750854906
0.503481046998786 0.3639472398632144 0.40205178309721545
0.5036811739992118 0.3659013190034197 0.3913043478260869
0.5038790599992353 0.3688324377137273 0.38739618954567656
0.5040792789986881 0.3707865168539326 0.3834880312652662
0.5042782019991137 0.37274059599413767 0.38251099169516367
0.5044768289990316 0.376648754274548 0.3834880312652662
0.5046761599987803 0.38251099169516367 0.38739618954567656
0.5048746379998192 0.38739618954567656 0.3883732291157791
0.5050723579988698 0.3903273082559844 0.39228138739618945
0.5052754469998035 0.39716658524670256 0.39716658524670256
0.5054762039999332 0.3981436248168051 0.4049829018075233
0.505706496998755 0.40693698094772834 0.412799218368344
0.5059105679993081 0.41182217879824123 0.41963849535906195
0.5061115089993109 0.42256961406936977 0.42745481191988266
0.5063101549985731 0.4264777723497801 0.43429408891060084
0.5065171329988516 0.43429408891060084 0.4430874450415241
0.506715796998833 0.4430874450415241 0.4509037616023448
0.5069137020000198 0.45188080117244755 0.45481191988275516
0.5071124759997474 0.4665363947239862 0.45969711773326827
0.5073102509995806 0.47435271128480694 0.4587200781631655
0.507517766998717 0.4880312652662433 0.45969711773326827
0.5077228939990164 0.5017098192476794 0.45969711773326827
0.5079585379990021 0.5114802149487054 0.4636052760136786
0.5082424789998186 0.524181729360039 0.4636052760136786
0.5085114559988142 0.5359062042012701 0.46262823644357587
0.5087144720000651 0.540791402051783 0.46946751343429405
0.5089131539989467 0.5495847581827065 0.4665363947239862
0.5091166509992036 0.5515388373229115 0.467513434294089
0.5093153519992484 0.5525158768930141 0.4704445530043966
0.5095171079992724 0.5534929164631168 0.467513434294089
0.5097416419994261 0.5564240351734244 0.45969711773326827
