0 0.4880312652662433 0.4509037616023448
0.0009092059999602498 0.4929164631167562 0.44894968246213973
0.0011682200001814635 0.4978016609672691 0.44406448461162684
0.001410623000083433 0.49682462139716654 0.43722520762090866
0.0016952289997789194 0.5036638983878847 0.43624816805080613
0.001958779999768012 0.5046409379579873 0.4323400097703958
0.00219916399964859 0.5114802149487054 0.4303859306301905
0.002420585999971081 0.5153883732291158 0.42745481191988266
0.0026471940000192262 0.5192965315095261 0.431362970200293
0.002872096999453788 0.5251587689301416 0.4303859306301905
0.0030997599997135694 0.5290669272105519 0.43429408891060084
0.0033157930001834757 0.5329750854909623 0.4352711284807034
0.003525658999933512 0.5398143624816805 0.4382022471910112
0.0037257670001054066 0.5437225207620908 0.44211040547142155
0.00399242899948149 0.5476306790425012 0.4401563263312165
0.004201814000225568 0.5446995603321934 0.44211040547142155
0.004463512999791419 0.5359062042012701 0.4450415241817294
0.004767377999996825 0.5280898876404494 0.44211040547142155
0.0049976330001300084 0.5202735710796287 0.4450415241817294
0.005208221999964735 0.5173424523693209 0.44211040547142155
0.0054239219998635235 0.5105031753786029 0.44211040547142155
0.005639343999973789 0.5085490962383976 0.4430874450415241
0.005848191999575647 0.5036638983878847 0.44406448461162684
0.006056225999600429 0.49682462139716654 0.44406448461162684
0.006265351999900304 0.49193942354665365 0.4460185637518319
0.006482662999587774 0.47923790913532005 0.44894968246213973
0.006696417999592086 0.4704445530043966 0.44992672203224227
0.00691513599940663 0.4655593551538837 0.45188080117244755
0.007133928999792261 0.46262823644357587 0.4538348803126526
0.00735359200007224 0.4557889594528579 0.45481191988275516
0.007578587999887532 0.4509037616023448 0.45969711773326827
0.007799305999469652 0.4479726428920372 0.45676599902296044
0.008042098000260012 0.4460185637518319 0.45481191988275516
0.008304092999424029 0.44211040547142155 0.4538348803126526
0.00856247799947596 0.43917928676111373 0.44992672203224227
0.008940785999584477 0.4450415241817294 0.4450415241817294
0.009208817999933672 0.4479726428920372 0.44406448461162684
0.009438443999897572 0.4450415241817294 0.4450415241817294
0.009676310000031663 0.4450415241817294 0.4460185637518319
0.009905638999953226 0.44406448461162684 0.4450415241817294
0.010138912999536842 0.441133365901319 0.4460185637518319
0.010399888999927498 0.43624816805080613 0.4460185637518319
0.010623514999679173 0.43624816805080613 0.4450415241817294
0.010860196000066935 0.4382022471910112 0.44406448461162684
0.01111263599977974 0.4333170493404983 0.4479726428920372
0.011334965000060038 0.4323400097703958 0.4528578407425501
0.011662940999485727 0.4235466536394723 0.46262823644357587
0.011891140999978234 0.41670737664875435 0.4665363947239862
0.012107654999454098 0.40986809965803617 0.46946751343429405
0.012331539999649976 0.4040058622374205 0.4704445530043966
0.012553943999591866 0.3981436248168051 0.47239863214460187
0.012952473999575886 0.3883732291157791 0.47435271128480694
0.013217339000220818 0.3805569125549584 0.4782608695652173
0.01345605699953012 0.376648754274548 0.48216902784562765
0.013678497999535466 0.37469467513434296 0.48216902784562765
0.013886771999750636 0.37274059599413767 0.48216902784562765
0.014098546000241186 0.36980947728383007 0.4763067904250122
0.014313412999399588 0.3707865168539326 0.47728382999511476
0.014534593999997014 0.3678553981436248 0.4782608695652173
0.014760144999854674 0.3688324377137273 0.4704445530043966
0.014983678999669792 0.3688324377137273 0.4684904738641915
0.015204618999632658 0.3678553981436248 0.4655593551538837
0.01541013399946678 0.36687835857352225 0.46262823644357587
0.015616185999533627 0.3688324377137273 0.46165119687347334
0.015854681999371678 0.3707865168539326 0.45969711773326827
0.01607414099999005 0.376648754274548 0.4557889594528579
0.01629656299974158 0.38251099169516367 0.44992672203224227
0.016509688000041933 0.40009770395701016 0.4460185637518319
0.01677090599969233 0.41182217879824123 0.4352711284807034
0.016996624000057636 0.4235466536394723 0.4303859306301905
0.01721389799968165 0.4352711284807034 0.4284318514899854
0.017440671999793267 0.4430874450415241 0.4264777723497801
0.017664260999481485 0.4528578407425501 0.42940889106008795
0.017875200999696972 0.457743038593063 0.4333170493404983
0.018095252999955846 0.4636052760136786 0.4382022471910112
0.018306101000234776 0.4684904738641915 0.44211040547142155
0.018518152999604354 0.4704445530043966 0.44406448461162684
0.0187297229995238 0.4733756717147044 0.44699560332193444
0.01894216399978177 0.47142159257449934 0.4460185637518319
0.019149030999869865 0.46946751343429405 0.44992672203224227
0.01936945299985382 0.4704445530043966 0.44699560332193444
0.01958144899981562 0.46946751343429405 0.44699560332193444
0.019796574999418226 0.46946751343429405 0.44992672203224227
0.020023514999593317 0.47142159257449934 0.4479726428920372
0.020259195999642543 0.4753297508549097 0.4509037616023448
0.02049128499947983 0.4753297508549097 0.44992672203224227
0.020747186999869882 0.4782608695652173 0.45188080117244755
0.021013904999563238 0.4782608695652173 0.44992672203224227
0.02147654500004137 0.4851001465559355 0.4479726428920372
0.022076848999859067 0.49193942354665365 0.43917928676111373
0.022353936999934376 0.495847581827064 0.4382022471910112
0.022605246999773954 0.49877870053737183 0.4352711284807034
0.022865390999868396 0.49975574010747437 0.43624816805080613
0.023149163000198314 0.49877870053737183 0.43722520762090866
0.02338949200020579 0.495847581827064 0.43624816805080613
0.023724152999420767 0.5017098192476794 0.43624816805080613
0.023965981999936048 0.49682462139716654 0.43624816805080613
0.02418582999962382 0.49682462139716654 0.4352711284807034
0.02440095600013592 0.495847581827064 0.4333170493404983
0.024610710999695584 0.4978016609672691 0.431362970200293
0.024855892000232416 0.49682462139716654 0.42940889106008795
0.02507648099981452 0.49975574010747437 0.4284318514899854
0.02528671799973381 0.49975574010747437 0.4264777723497801
0.02548608500001137 0.49975574010747437 0.42452369320957506
0.025685728999633284 0.5007327796775769 0.4235466536394723
0.025891077999403933 0.49975574010747437 0.4255007327796776
0.026102611000169418 0.4929164631167562 0.4333170493404983
0.026313773999390833 0.4811919882755251 0.4382022471910112
0.026520084999901883 0.47728382999511476 0.44406448461162684
0.0267321549999906 0.4655593551538837 0.4479726428920372
0.026968798999405408 0.45676599902296044 0.45481191988275516
0.027262626999799977 0.4460185637518319 0.4587200781631655
0.027478771999994933 0.4382022471910112 0.4587200781631655
0.027692009000020334 0.4264777723497801 0.4606741573033708
0.027908504999686556 0.42256961406936977 0.46262823644357587
0.028117556999859517 0.42159257449926724 0.4636052760136786
0.028328663999673154 0.4206155349291647 0.46458231558378116
0.02853717899961339 0.42159257449926724 0.4587200781631655
0.028922856999997748 0.4323400097703958 0.4538348803126526
0.029150241999559512 0.4401563263312165 0.4479726428920372
0.029363589999775286 0.4450415241817294 0.4479726428920372
0.029577456999504648 0.4538348803126526 0.44894968246213973
0.029785785999592918 0.4587200781631655 0.4479726428920372
0.029993985999681172 0.4606741573033708 0.44894968246213973
0.030236556000090786 0.4606741573033708 0.4509037616023448
0.03045538599963038 0.45969711773326827 0.45188080117244755
0.03065986299952783 0.45969711773326827 0.4509037616023448
0.030867192999721738 0.45676599902296044 0.44992672203224227
0.03110307799943257 0.45481191988275516 0.4460185637518319
0.03131709299941576 0.4479726428920372 0.44699560332193444
0.03151879300003202 0.44211040547142155 0.4479726428920372
0.0317188819999501 0.4382022471910112 0.4509037616023448
0.031923747999826446 0.4323400097703958 0.4557889594528579
0.032136707999598 0.4264777723497801 0.46165119687347334
0.0323436849994323 0.4206155349291647 0.467513434294089
0.03255083000021841 0.42159257449926724 0.4704445530043966
0.03284445400004188 0.41182217879824123 0.47435271128480694
0.03312435699990601 0.4049829018075233 0.47239863214460187
0.03365536599994812 0.3913043478260869 0.4782608695652173
0.03402195199942071 0.3903273082559844 0.48216902784562765
0.03426816999945004 0.3786028334147533 0.4851001465559355
0.034514109999690845 0.37176355642403514 0.49193942354665365
0.03478234599970165 0.37274059599413767 0.48412310698583294
0.03504443400015589 0.3688324377137273 0.4811919882755251
0.03526952199990774 0.36980947728383007 0.48216902784562765
0.03548559299997578 0.3678553981436248 0.4802149487054226
0.038036769999962416 0.46458231558378116 0.4323400097703958
0.0386108709999462 0.467513434294089 0.431362970200293
0.03889186600008543 0.467513434294089 0.4333170493404983
0.03914969400011614 0.467513434294089 0.43624816805080613
0.03942837500017049 0.4684904738641915 0.43917928676111373
0.040408005000244884 0.4753297508549097 0.43917928676111373
0.04084955300004367 0.47923790913532005 0.43917928676111373
0.041178120999575185 0.4831460674157304 0.43917928676111373
0.04170061199965858 0.49193942354665365 0.43722520762090866
0.04197879200000898 0.495847581827064 0.43624816805080613
0.042231546999573766 0.5026868588177822 0.441133365901319
0.04247609799949714 0.5095261358085001 0.43624816805080613
0.042701391000264266 0.5046409379579873 0.43429408891060084
0.042918701999951736 0.5056179775280898 0.43624816805080613
0.043128938999871025 0.5026868588177822 0.4352711284807034
0.043346712999664305 0.5056179775280898 0.4352711284807034
0.043575670999416616 0.5085490962383976 0.4382022471910112
0.04379313099980209 0.5026868588177822 0.43429408891060084
0.04400655300014478 0.5036638983878847 0.4352711284807034
0.044226123000044026 0.5026868588177822 0.43624816805080613
0.04444700800013379 0.5017098192476794 0.43722520762090866
0.0447509280002123 0.5026868588177822 0.4352711284807034
0.04497207299937145 0.5026868588177822 0.4333170493404983
0.04519193899977836 0.5046409379579873 0.43429408891060084
0.04541173100005835 0.5065950170981925 0.43429408891060084
0.045644875999641954 0.5017098192476794 0.4352711284807034
0.04592492600022524 0.49975574010747437 0.43722520762090866
0.04619529199953831 0.4909623839765511 0.44699560332193444
0.046406472999478865 0.48412310698583294 0.4460185637518319
0.04662022899992735 0.4753297508549097 0.44992672203224227
0.04684037300012278 0.4665363947239862 0.45481191988275516
0.04705392500000016 0.4636052760136786 0.45676599902296044
0.04727658699994208 0.45676599902296044 0.4587200781631655
0.047492249999777414 0.44992672203224227 0.4587200781631655
0.04770304300018324 0.4528578407425501 0.4587200781631655
0.0479190939995533 0.4430874450415241 0.45676599902296044
0.04812940600004367 0.43917928676111373 0.4587200781631655
0.04834364199996344 0.43917928676111373 0.4557889594528579
0.04856606399971497 0.4382022471910112 0.4557889594528579
0.04892129899963038 0.441133365901319 0.45481191988275516
0.04913988799944491 0.44406448461162684 0.4528578407425501
0.04936780899970472 0.4430874450415241 0.45676599902296044
0.04958830600025976 0.44406448461162684 0.45188080117244755
0.049852578999889374 0.44699560332193444 0.4528578407425501
0.050055556999723194 0.44699560332193444 0.4509037616023448
0.050284201000067696 0.4450415241817294 0.44894968246213973
0.05048512299981667 0.4450415241817294 0.4509037616023448
0.050681638000241946 0.44211040547142155 0.45188080117244755
0.050878745999398234 0.4430874450415241 0.4528578407425501
0.05107538999982353 0.44211040547142155 0.45188080117244755
0.05127260900007968 0.4450415241817294 0.4538348803126526
0.0514692169999762 0.43624816805080613 0.4538348803126526
0.05167056499976752 0.431362970200293 0.45481191988275516
0.051868024000214064 0.4255007327796776 0.45676599902296044
0.052064890999645286 0.41963849535906195 0.4587200781631655
0.05226225800015527 0.41182217879824123 0.46262823644357587
0.0524595879996923 0.4049829018075233 0.46165119687347334
0.05268282499946508 0.39716658524670256 0.467513434294089
0.0528816360001656 0.3961895456765998 0.467513434294089
0.053081299000041327 0.38641914997557403 0.467513434294089
0.05327827699966292 0.38446507083536874 0.467513434294089
0.05347499599974981 0.38153395212506114 0.47142159257449934
0.053673825999794644 0.3786028334147533 0.4704445530043966
0.05387073000019882 0.376648754274548 0.47239863214460187
0.0540676339996935 0.3737176355642404 0.47239863214460187
0.05426888900001359 0.37176355642403514 0.4782608695652173
0.05446882999967784 0.36980947728383007 0.47728382999511476
0.054665603999637824 0.3688324377137273 0.47239863214460187
0.05486395299976721 0.3678553981436248 0.4733756717147044
0.05506561599941051 0.36980947728383007 0.47239863214460187
0.05526281599941285 0.36980947728383007 0.47142159257449934
0.0556620870002007 0.3688324377137273 0.47239863214460187
0.05605278399980307 0.3756717147044455 0.46458231558378116
0.05651123799998459 0.3981436248168051 0.44699560332193444
0.05724139199992351 0.43917928676111373 0.44211040547142155
0.05747888799942302 0.4460185637518319 0.44211040547142155
0.057700606000253174 0.4538348803126526 0.43917928676111373
0.057909676999770454 0.4606741573033708 0.4430874450415241
0.058111931999519584 0.4665363947239862 0.4401563263312165
0.05834466899977997 0.4704445530043966 0.441133365901319
0.0585757389999344 0.47239863214460187 0.43917928676111373
0.05878534600014973 0.4763067904250122 0.44211040547142155
0.059009898000113026 0.4753297508549097 0.44406448461162684
0.05922848599948338 0.47435271128480694 0.44699560332193444
0.059437908999825595 0.4763067904250122 0.44894968246213973
0.059668552999937674 0.4704445530043966 0.44894968246213973
0.059975972999382066 0.467513434294089 0.4509037616023448
0.060212542999579455 0.4655593551538837 0.4528578407425501
0.06048413099961181 0.45969711773326827 0.4479726428920372
0.0608197179999479 0.45676599902296044 0.4460185637518319
0.061099194000235 0.45481191988275516 0.44699560332193444
0.0613153570002396 0.4557889594528579 0.4430874450415241
0.06152881599973625 0.45676599902296044 0.44211040547142155
0.06174529399959283 0.46165119687347334 0.4401563263312165
0.06195862299955479 0.4655593551538837 0.4382022471910112
0.06216591599968524 0.4733756717147044 0.43624816805080613
0.062388966999606055 0.47435271128480694 0.4303859306301905
0.0626320189994658 0.4782608695652173 0.42940889106008795
0.06288866199975018 0.4831460674157304 0.42745481191988266
0.0631221399999049 0.486077186126038 0.42940889106008795
0.06333906199961348 0.48900830483634583 0.4284318514899854
0.06356122399938613 0.48998534440644836 0.4303859306301905
0.06377683200025785 0.4929164631167562 0.4303859306301905
0.063985865000177 0.49193942354665365 0.4333170493404983
0.06424165699991136 0.49682462139716654 0.43429408891060084
0.06445687499945052 0.5007327796775769 0.4333170493404983
0.0647102779994384 0.5036638983878847 0.43722520762090866
0.0649194779998652 0.5026868588177822 0.43917928676111373
0.06511977099944488 0.5095261358085001 0.4401563263312165
0.06532967499970255 0.5114802149487054 0.441133365901319
0.06553150399940932 0.5144113336590133 0.4401563263312165
0.06574577799983672 0.5192965315095261 0.44894968246213973
0.06595788599952357 0.522227650219834 0.44406448461162684
0.06616506699992897 0.5212506106497312 0.4479726428920372
0.06636865600012243 0.5212506106497312 0.45188080117244755
0.06659989299987501 0.5134342940889105 0.45481191988275516
0.0668464619993756 0.5095261358085001 0.45676599902296044
0.06706184799986659 0.5065950170981925 0.45676599902296044
0.06728806599949166 0.4978016609672691 0.45676599902296044
0.06753670899979625 0.486077186126038 0.4587200781631655
0.06779274200016516 0.47728382999511476 0.457743038593063
0.06805849699958344 0.46458231558378116 0.45676599902296044
0.06830271399940102 0.45481191988275516 0.45481191988275516
0.06852806200004125 0.44699560332193444 0.45188080117244755
0.06878524300009303 0.44406448461162684 0.45188080117244755
0.06931128899941541 0.4509037616023448 0.44992672203224227
0.06963896900015243 0.4509037616023448 0.44894968246213973
0.06990950099952897 0.44894968246213973 0.4509037616023448
0.07014357099978952 0.4479726428920372 0.44992672203224227
0.07038875199941685 0.4460185637518319 0.4509037616023448
0.07064676499976486 0.4450415241817294 0.45481191988275516
0.07091218699952151 0.4430874450415241 0.46262823644357587
0.07136825299949123 0.4264777723497801 0.4684904738641915
0.07229697699949611 0.40205178309721545 0.4704445530043966
0.07305227799952263 0.38739618954567656 0.47239863214460187
0.07348073399953137 0.3786028334147533 0.45969711773326827
0.07381448700016335 0.3756717147044455 0.46165119687347334
0.0740405019996615 0.3786028334147533 0.46165119687347334
0.0742569240001103 0.3805569125549584 0.4606741573033708
0.07447058700017806 0.38153395212506114 0.4665363947239862
0.074697952999486 0.38446507083536874 0.4665363947239862
0.07490519000020868 0.38446507083536874 0.4665363947239862
0.07514751899998373 0.38446507083536874 0.4655593551538837
0.07541279199995188 0.3854421104054715 0.46458231558378116
0.07566893599960167 0.3834880312652662 0.46458231558378116
0.07590913500007446 0.3834880312652662 0.4587200781631655
0.07614466799986985 0.3854421104054715 0.45481191988275516
0.07637092299955839 0.39716658524670256 0.4479726428920372
0.07659045599939418 0.41182217879824123 0.44406448461162684
0.07685760000003938 0.4303859306301905 0.441133365901319
0.07707855900025606 0.4382022471910112 0.44211040547142155
0.07729946200015547 0.44894968246213973 0.44406448461162684
0.07761799399941083 0.4557889594528579 0.44211040547142155
0.07798685800025851 0.4655593551538837 0.4382022471910112
0.07821272399996815 0.4684904738641915 0.43917928676111373
0.07842303500001435 0.47142159257449934 0.4430874450415241
0.07863436499974341 0.4763067904250122 0.441133365901319
0.07885349000025599 0.47923790913532005 0.44211040547142155
0.0790648570000485 0.47728382999511476 0.4430874450415241
0.07931920400005765 0.4802149487054226 0.44406448461162684
0.0795353299999988 0.4811919882755251 0.4509037616023448
0.07974240000021382 0.47923790913532005 0.4538348803126526
0.07995904499966855 0.4763067904250122 0.44992672203224227
0.0801651519996085 0.4802149487054226 0.44992672203224227
0.08037905599940132 0.4753297508549097 0.4509037616023448
0.08058723700014525 0.4733756717147044 0.4460185637518319
0.0809230650002064 0.46946751343429405 0.4450415241817294
0.08123559599971486 0.46262823644357587 0.4430874450415241
0.08145662900005846 0.45676599902296044 0.43722520762090866
0.08166082899970206 0.457743038593063 0.43722520762090866
0.08187584400002379 0.45481191988275516 0.431362970200293
0.08210102500015637 0.457743038593063 0.4333170493404983
0.08231900299961126 0.4587200781631655 0.431362970200293
0.08254305399987061 0.4587200781631655 0.4323400097703958
0.0827568099994096 0.46165119687347334 0.4323400097703958
0.08299730599992472 0.46458231558378116 0.431362970200293
0.0833816320000551 0.47239863214460187 0.4323400097703958
0.08371003399952315 0.4733756717147044 0.4333170493404983
0.08391519699944183 0.4704445530043966 0.4352711284807034
0.08411302700005763 0.4665363947239862 0.431362970200293
0.0843116159994679 0.4665363947239862 0.4333170493404983
0.08451140800025314 0.4606741573033708 0.4323400097703958
0.08471431199996005 0.4606741573033708 0.4333170493404983
0.08491766099996312 0.45969711773326827 0.4352711284807034
0.08511678699960612 0.46165119687347334 0.4382022471910112
0.08531526499973552 0.46458231558378116 0.43917928676111373
0.08551461299975927 0.47728382999511476 0.4430874450415241
0.08571188699988852 0.4851001465559355 0.4460185637518319
0.08591521699963778 0.4909623839765511 0.4509037616023448
0.08613252800023474 0.5017098192476794 0.45676599902296044
0.08634491300017544 0.4909623839765511 0.4587200781631655
0.0865487060000305 0.48705422569614076 0.46165119687347334
0.08674794299986388 0.4851001465559355 0.46165119687347334
0.08694497599935858 0.486077186126038 0.46262823644357587
0.08714250999946671 0.4851001465559355 0.4606741573033708
0.08734146899951156 0.4831460674157304 0.45969711773326827
0.08754276199942979 0.48412310698583294 0.45481191988275516
0.0877404069997283 0.48705422569614076 0.45188080117244755
0.08793788499951916 0.48705422569614076 0.44894968246213973
0.08813608499986003 0.48705422569614076 0.44894968246213973
0.08833359999971435 0.4851001465559355 0.44992672203224227
0.08853000399994926 0.4802149487054226 0.4479726428920372
0.08876272199995583 0.4811919882755251 0.44699560332193444
0.08896138499949302 0.4851001465559355 0.4450415241817294
0.08922321399950306 0.486077186126038 0.44699560332193444
0.08942074700007652 0.4831460674157304 0.4450415241817294
0.08961696599999414 0.48412310698583294 0.44699560332193444
0.08981485099957354 0.4851001465559355 0.4479726428920372
0.0900150699999358 0.4851001465559355 0.44406448461162684
0.09021260400004394 0.486077186126038 0.44894968246213973
0.09040984100010974 0.486077186126038 0.44894968246213973
0.0906075229995622 0.4831460674157304 0.4479726428920372
0.09080488899962802 0.48216902784562765 0.4509037616023448
0.09100097899954562 0.47923790913532005 0.45188080117244755
0.09119777100022475 0.4704445530043966 0.4509037616023448
0.09139465699990978 0.46458231558378116 0.4528578407425501
0.0915915240002505 0.457743038593063 0.4538348803126526
0.09178820499982976 0.4528578407425501 0.4587200781631655
0.09198464600012812 0.4450415241817294 0.4606741573033708
0.09218093900017266 0.43917928676111373 0.46946751343429405
0.09237860199937131 0.4333170493404983 0.4704445530043966
0.09257580199937365 0.4255007327796776 0.47239863214460187
0.09282720499959396 0.4157303370786516 0.46946751343429405
0.09302560899959644 0.40889106008793363 0.4704445530043966
0.09322427200004313 0.4010747435271129 0.47142159257449934
0.09342225000000326 0.3952125061064973 0.47239863214460187
0.09362076500019612 0.38739618954567656 0.47728382999511476
0.09381790999941586 0.38153395212506114 0.4831460674157304
0.0940151099994182 0.376648754274548 0.48998534440644836
0.09421201399982237 0.3707865168539326 0.4948705422569615
0.0944091399996978 0.3659013190034197 0.49877870053737183
0.09460902599948895 0.36492427943331696 0.49975574010747437
0.09481311499985168 0.35906204201270153 0.5017098192476794
0.09501581499989697 0.358085002442599 0.5007327796775769
0.09521405199939181 0.3551538837322912 0.4978016609672691
0.09541153000009217 0.3512457254518808 0.4938935026868587
0.0956086010000945 0.34733756717147046 0.48998534440644836
0.09580572699996992 0.34636052760136793 0.4782608695652173
0.0960482589998719 0.348314606741573 0.4684904738641915
0.09624666299987439 0.3551538837322912 0.46165119687347334
0.09644797500004643 0.3678553981436248 0.44992672203224227
0.09669030399982148 0.3854421104054715 0.4401563263312165
0.09689624400016328 0.40205178309721545 0.431362970200293
0.09709529599967937 0.41670737664875435 0.4284318514899854
0.0972930890002317 0.4333170493404983 0.4255007327796776
0.09748914099964168 0.44211040547142155 0.4206155349291647
0.09768911899936938 0.44992672203224227 0.4176844162188569
0.09788644899981591 0.45676599902296044 0.4157303370786516
0.09808561199952237 0.46262823644357587 0.42256961406936977
0.09828279399971507 0.4665363947239862 0.4206155349291647
0.09848334599973896 0.4733756717147044 0.4206155349291647
0.09869432399955258 0.4763067904250122 0.42745481191988266
0.09890635699957784 0.48216902784562765 0.43624816805080613
0.09917094499996892 0.4851001465559355 0.4460185637518319
0.09950564300015685 0.4909623839765511 0.44894968246213973
0.09976050800014491 0.4948705422569615 0.44992672203224227
0.0999619120002535 0.495847581827064 0.44699560332193444
0.10016048299985414 0.495847581827064 0.44894968246213973
0.10035825700015266 0.4938935026868587 0.44699560332193444
0.10055551299956278 0.4929164631167562 0.44211040547142155
0.10080474899950786 0.4929164631167562 0.441133365901319
0.10100283799965837 0.4929164631167562 0.4382022471910112
0.10120422399995732 0.4938935026868587 0.4333170493404983
0.10140147899983276 0.4929164631167562 0.431362970200293
0.10159897599987744 0.4948705422569615 0.4303859306301905
0.10179613899981632 0.4948705422569615 0.4323400097703958
0.10199289499996667 0.4948705422569615 0.43429408891060084
0.10219000199958828 0.4909623839765511 0.43722520762090866
0.10238816599940037 0.4909623839765511 0.4401563263312165
0.10258497699942382 0.48900830483634583 0.44211040547142155
0.10279278799953318 0.48998534440644836 0.44406448461162684
0.10299097000006441 0.48998534440644836 0.44211040547142155
0.10350573799951235 0.48900830483634583 0.43722520762090866
0.1037412529994981 0.4880312652662433 0.4352711284807034
0.10394121199988149 0.48998534440644836 0.43429408891060084
0.10413843100013764 0.48705422569614076 0.43429408891060084
0.10433926099995006 0.4851001465559355 0.4323400097703958
0.10453747900010057 0.4851001465559355 0.431362970200293
0.10476684599962027 0.48216902784562765 0.4303859306301905
0.10496452699953807 0.48216902784562765 0.4333170493404983
0.10516202399958274 0.4763067904250122 0.4323400097703958
0.10535885399986 0.4753297508549097 0.4323400097703958
0.10555631299939705 0.467513434294089 0.4333170493404983
0.10575660599988623 0.4606741573033708 0.43624816805080613
0.10595337999984622 0.4538348803126526 0.43624816805080613
0.10615363599936245 0.4401563263312165 0.441133365901319
0.10639457599972957 0.42452369320957506 0.44406448461162684
0.10659159099941462 0.4137762579384465 0.45188080117244755
0.10678842099969188 0.4108451392281387 0.4479726428920372
0.10698865799986379 0.40693698094772834 0.45188080117244755
0.10718556199935847 0.4040058622374205 0.4528578407425501
0.10738252099963574 0.4049829018075233 0.45676599902296044
0.10758003599949006 0.40889106008793363 0.45676599902296044
0.10777638499985187 0.42159257449926724 0.46458231558378116
0.10797334400012915 0.4235466536394723 0.4606741573033708
0.10817008199956035 0.4323400097703958 0.4665363947239862
0.10836742999981652 0.441133365901319 0.467513434294089
0.10856505599986122 0.45188080117244755 0.467513434294089
0.10877214499942056 0.46458231558378116 0.467513434294089
0.10896841900012078 0.4851001465559355 0.4636052760136786
0.10916443399946729 0.48998534440644836 0.46262823644357587
0.10936054200010403 0.49682462139716654 0.45969711773326827
0.10955692700008512 0.5046409379579873 0.4557889594528579
0.10977207199994155 0.5065950170981925 0.45481191988275516
0.10997249399952125 0.5065950170981925 0.45676599902296044
0.11016993500015815 0.5075720566682951 0.45481191988275516
0.11036676499952591 0.5095261358085001 0.4557889594528579
0.11057190900010028 0.5065950170981925 0.4538348803126526
0.1107738499995321 0.5065950170981925 0.457743038593063
0.11097332800000004 0.5036638983878847 0.4557889594528579
0.11117267600002378 0.49682462139716654 0.4557889594528579
0.11136950599939155 0.48998534440644836 0.45481191988275516
0.1115679659997113 0.4811919882755251 0.4557889594528579
0.11177205500007403 0.4763067904250122 0.45188080117244755
0.1119702360001611 0.46262823644357587 0.4528578407425501
0.11216717699971923 0.4509037616023448 0.45481191988275516
0.11236389599980612 0.43722520762090866 0.4528578407425501
0.11256167000010464 0.42256961406936977 0.45188080117244755
0.11280931399960537 0.40205178309721545 0.4528578407425501
0.11300731099981931 0.38935026868588185 0.4538348803126526
0.11320567700022366 0.3756717147044455 0.45481191988275516
0.11340195199954906 0.3639472398632144 0.457743038593063
0.11360052199961501 0.3551538837322912 0.457743038593063
0.11379864799982897 0.3453834880312652 0.457743038593063
0.1139976630001911 0.3385442110405472 0.4557889594528579
0.11419458599993959 0.33463605276013686 0.45188080117244755
0.11439221199998428 0.3365901319003419 0.457743038593063
0.11458963399945787 0.3385442110405472 0.4538348803126526
0.11478581600022153 0.3434294088910601 0.45676599902296044
0.11498177599969495 0.348314606741573 0.4636052760136786
0.11517912399995112 0.3561309233023937 0.46946751343429405
0.11537523199967836 0.3629702002931119 0.47728382999511476
0.11557283899946924 0.3707865168539326 0.4802149487054226
0.11577002099966194 0.3854421104054715 0.48216902784562765
0.11596744300004502 0.39228138739618945 0.48216902784562765
0.11616440299985697 0.3981436248168051 0.4782608695652173
0.1163645099995847 0.4137762579384465 0.4782608695652173
0.1165622099997563 0.4284318514899854 0.46165119687347334
0.11677109599986579 0.4382022471910112 0.4557889594528579
0.11697581399948831 0.45188080117244755 0.4450415241817294
0.1171875509999154 0.46165119687347334 0.4460185637518319
0.11742843599949992 0.46946751343429405 0.43917928676111373
0.11764578400016035 0.4763067904250122 0.43917928676111373
0.1178628170000593 0.47923790913532005 0.4401563263312165
0.11809088700010761 0.48216902784562765 0.4479726428920372
0.11829818000023806 0.48412310698583294 0.4460185637518319
0.11851452799965045 0.48412310698583294 0.4430874450415241
0.11872865399982402 0.4880312652662433 0.44699560332193444
0.11898994500006665 0.4851001465559355 0.44894968246213973
0.11928180999984761 0.48216902784562765 0.44992672203224227
0.1195352129998355 0.47923790913532005 0.4528578407425501
0.11979385699942213 0.47728382999511476 0.4460185637518319
0.12017571999967913 0.47435271128480694 0.44406448461162684
0.12044643799981714 0.4782608695652173 0.4401563263312165
0.1208101539996278 0.4763067904250122 0.43624816805080613
0.12120147999939945 0.4782608695652173 0.43722520762090866
0.12154193700007454 0.48412310698583294 0.43722520762090866
0.1218002659998092 0.486077186126038 0.43624816805080613
0.12208561299939902 0.4929164631167562 0.43429408891060084
0.12232527499963908 0.49682462139716654 0.4333170493404983
0.12255514099979337 0.49975574010747437 0.4352711284807034
0.1227659890000723 0.4978016609672691 0.43624816805080613
0.12297854099961114 0.5007327796775769 0.43917928676111373
0.12319066700001713 0.5017098192476794 0.441133365901319
0.1234025149997251 0.5007327796775769 0.4460185637518319
0.12361967800006823 0.49877870053737183 0.4401563263312165
0.12381630399977439 0.4978016609672691 0.43917928676111373
0.12402611499965133 0.4938935026868587 0.43917928676111373
0.12422662999961176 0.4948705422569615 0.441133365901319
0.12442488599936041 0.4880312652662433 0.4430874450415241
0.124622900999384 0.4880312652662433 0.43624816805080613
0.12492811799984338 0.48900830483634583 0.43429408891060084
0.12512765100018441 0.48998534440644836 0.43722520762090866
0.12532531399938307 0.4938935026868587 0.43429408891060084
0.1255228479994912 0.4929164631167562 0.43722520762090866
0.1257211410002128 0.4938935026868587 0.43917928676111373
0.12591945199983456 0.4929164631167562 0.43624816805080613
0.12611702199956198 0.486077186126038 0.43917928676111373
0.12631340799998725 0.4802149487054226 0.4430874450415241
0.12651070099946082 0.4733756717147044 0.44211040547142155
0.12670927099952678 0.4665363947239862 0.44699560332193444
0.12691813799938245 0.46262823644357587 0.44211040547142155
0.12712287500016828 0.457743038593063 0.4450415241817294
0.12733318600021448 0.45188080117244755 0.44699560332193444
0.12754971899994416 0.44992672203224227 0.4479726428920372
0.12776067899994814 0.44894968246213973 0.44894968246213973
0.12796841599993058 0.4460185637518319 0.44894968246213973
0.12819406000016897 0.44406448461162684 0.45188080117244755
0.12843683299979602 0.44211040547142155 0.4557889594528579
0.1287172169995756 0.44699560332193444 0.45481191988275516
0.12894774999949732 0.44406448461162684 0.45481191988275516
0.1291642830001365 0.4479726428920372 0.4557889594528579
0.12937613099984446 0.44894968246213973 0.4587200781631655
0.1295905529996162 0.44992672203224227 0.46458231558378116
0.12980628999957844 0.44894968246213973 0.46165119687347334
0.13001369399989926 0.44992672203224227 0.4606741573033708
0.13022007899962773 0.44894968246213973 0.4606741573033708
0.1304329829999915 0.4479726428920372 0.4636052760136786
0.13063836799938144 0.4450415241817294 0.46458231558378116
0.13084706799963897 0.44406448461162684 0.4655593551538837
0.13107380499968713 0.441133365901319 0.4636052760136786
0.13129094899977645 0.4352711284807034 0.4665363947239862
0.13151359299990872 0.4333170493404983 0.4655593551538837
0.13184243900013826 0.42159257449926724 0.467513434294089
0.1321499159994346 0.41182217879824123 0.4704445530043966
0.13236981899990496 0.40693698094772834 0.46458231558378116
0.13258077799946477 0.40205178309721545 0.46458231558378116
0.13282307000008586 0.3961895456765998 0.46165119687347334
0.13304695499937225 0.3903273082559844 0.4636052760136786
0.13325565499962977 0.38641914997557403 0.45969711773326827
0.13345566999942093 0.3805569125549584 0.45969711773326827
0.13384368199967867 0.376648754274548 0.4587200781631655
0.13406086299983144 0.3737176355642404 0.4606741573033708
0.1342616559995804 0.3678553981436248 0.46165119687347334
0.1344595410000693 0.3659013190034197 0.4704445530043966
0.13465805600026215 0.3629702002931119 0.46262823644357587
0.13485921899973619 0.36199316072300936 0.46165119687347334
0.13505617899954814 0.36003908158280407 0.45969711773326827
0.13525354600005812 0.3610161211529066 0.4606741573033708
0.13545065299967973 0.3629702002931119 0.46262823644357587
0.13564796499940712 0.3678553981436248 0.45969711773326827
0.13584498000000167 0.37176355642403514 0.45676599902296044
0.1360432169994965 0.37469467513434296 0.4557889594528579
0.13624297299975296 0.38251099169516367 0.4509037616023448
0.13644500600003084 0.38935026868588185 0.4479726428920372
0.13667563199942379 0.3952125061064973 0.4450415241817294
0.13687946099980763 0.3961895456765998 0.4460185637518319
0.13707745800002158 0.4010747435271129 0.4460185637518319
0.13727452799957973 0.4010747435271129 0.4479726428920372
0.13747093199981464 0.40693698094772834 0.4460185637518319
0.13769398400017963 0.40693698094772834 0.44699560332193444
0.1379218869997203 0.412799218368344 0.44699560332193444
0.13817225299953861 0.42159257449926724 0.4460185637518319
0.13842787799967482 0.4303859306301905 0.44406448461162684
0.13867609599947173 0.44211040547142155 0.441133365901319
0.13894688799973665 0.44992672203224227 0.441133365901319
0.13923864200023672 0.4528578407425501 0.4401563263312165
0.1394998219993795 0.4587200781631655 0.4450415241817294
0.1397411509997255 0.46458231558378116 0.44406448461162684
0.14001155400001153 0.4665363947239862 0.44894968246213973
0.14030488200023683 0.47239863214460187 0.44406448461162684
0.1405693959995915 0.47923790913532005 0.44406448461162684
0.14090535299965268 0.4831460674157304 0.4450415241817294
0.14119484799994098 0.4909623839765511 0.44406448461162684
0.14147197199963557 0.495847581827064 0.4450415241817294
0.14174604199979512 0.5017098192476794 0.44211040547142155
0.14200803699986864 0.5046409379579873 0.4352711284807034
0.14227029199992103 0.5144113336590133 0.43722520762090866
0.1425401939995936 0.522227650219834 0.431362970200293
0.14281398599996464 0.5329750854909623 0.4323400097703958
0.1430735919993822 0.5446995603321934 0.4352711284807034
0.14331788399977086 0.5564240351734244 0.43624816805080613
0.1435546949996933 0.5642403517342451 0.43722520762090866
0.1437710430000152 0.5681485100146555 0.43722520762090866
0.1439814089999345 0.567171470444553 0.43917928676111373
0.1441931459994521 0.5593551538837322 0.43917928676111373
0.14440691999971023 0.5495847581827065 0.4401563263312165
0.1446335270002237 0.5319980459208598 0.43917928676111373
0.14501433599980373 0.5095261358085001 0.4382022471910112
0.14525492400025541 0.495847581827064 0.4401563263312165
0.14547369799947774 0.48900830483634583 0.4401563263312165
0.14567634200011526 0.48216902784562765 0.4382022471910112
0.14587530199969478 0.47435271128480694 0.4430874450415241
0.14607766900007846 0.4636052760136786 0.43917928676111373
0.14627509099955205 0.4557889594528579 0.44406448461162684
0.14647260599940637 0.44211040547142155 0.44699560332193444
0.14666976900025475 0.42940889106008795 0.4509037616023448
0.14686832099960156 0.42256961406936977 0.4538348803126526
0.14706476199989993 0.41963849535906195 0.45676599902296044
0.14726173999952152 0.41670737664875435 0.45969711773326827
0.14746023699990474 0.412799218368344 0.4606741573033708
0.1476573069994629 0.4108451392281387 0.45969711773326827
0.14785552600005758 0.41182217879824123 0.46458231558378116
0.148052651999933 0.4137762579384465 0.4606741573033708
0.14824914899963915 0.4235466536394723 0.4665363947239862
0.148448830000234 0.4157303370786516 0.46165119687347334
0.14867899299952114 0.4176844162188569 0.4557889594528579
0.148900969999886 0.42256961406936977 0.4538348803126526
0.14911446699989028 0.4284318514899854 0.45188080117244755
0.14933085199936613 0.43429408891060084 0.4450415241817294
0.1495547919994351 0.4401563263312165 0.441133365901319
0.14976525099973514 0.4460185637518319 0.4382022471910112
0.14997415499965427 0.4557889594528579 0.43917928676111373
0.15020065099997737 0.4636052760136786 0.43624816805080613
0.15039966599943 0.47435271128480694 0.441133365901319
0.1505974960000458 0.4733756717147044 0.44211040547142155
0.15079621399945609 0.47435271128480694 0.44699560332193444
0.15099684100005106 0.47435271128480694 0.44992672203224227
0.15119574399977864 0.4733756717147044 0.4538348803126526
0.15139305599950603 0.47239863214460187 0.457743038593063
0.1515910520001853 0.4704445530043966 0.4587200781631655
0.1517881039999338 0.4684904738641915 0.46262823644357587
0.15198448999944958 0.4655593551538837 0.4636052760136786
0.15218109699981142 0.46165119687347334 0.4665363947239862
0.15237763099958102 0.45188080117244755 0.467513434294089
0.15257944199947815 0.441133365901319 0.4684904738641915
0.15282982699955028 0.4284318514899854 0.4684904738641915
0.15306919300019217 0.4186614557889594 0.47435271128480694
0.15329255899996497 0.4079140205178309 0.47142159257449934
0.15349344399965048 0.39912066438690763 0.47142159257449934
0.1537180889999945 0.3913043478260869 0.4704445530043966
0.15394778799964115 0.38446507083536874 0.47239863214460187
0.15416628399998444 0.38446507083536874 0.47239863214460187
0.15439983599935658 0.3786028334147533 0.4704445530043966
0.1546184609996999 0.3786028334147533 0.47142159257449934
0.15486793899981421 0.37957987298485585 0.4763067904250122
0.1551091749997795 0.38446507083536874 0.47435271128480694
0.15532398599953012 0.38641914997557403 0.47142159257449934
0.15553894499953458 0.3913043478260869 0.47239863214460187
0.1557659230002173 0.39423546653639474 0.4684904738641915
0.15598225199937588 0.39716658524670256 0.4704445530043966
0.1562109149999742 0.4010747435271129 0.46458231558378116
0.15645220700025675 0.40693698094772834 0.46165119687347334
0.15670836899971619 0.42159257449926724 0.45188080117244755
0.1569435869996596 0.4303859306301905 0.4479726428920372
0.15714613899945107 0.4382022471910112 0.4460185637518319
0.1573521720001736 0.44406448461162684 0.44211040547142155
0.1575537799999438 0.44894968246213973 0.44211040547142155
0.1577545909995024 0.45676599902296044 0.44406448461162684
0.15796079099982308 0.45676599902296044 0.4401563263312165
0.15816330599955108 0.45676599902296044 0.44211040547142155
0.15836398800001916 0.45676599902296044 0.44406448461162684
0.1585653909996836 0.45676599902296044 0.4450415241817294
0.15876753599968652 0.4606741573033708 0.44894968246213973
0.15896940299990092 0.4587200781631655 0.44894968246213973
0.15917217700007313 0.46165119687347334 0.4538348803126526
0.1593730249996952 0.46165119687347334 0.4528578407425501
0.15957402200001525 0.4606741573033708 0.45481191988275516
0.15977594400010275 0.46458231558378116 0.45188080117244755
0.1599767919997248 0.467513434294089 0.45188080117244755
0.16017932599970663 0.4684904738641915 0.4509037616023448
0.160383432999879 0.46946751343429405 0.4479726428920372
0.16058709600019938 0.4753297508549097 0.44406448461162684
0.16086920199995802 0.47435271128480694 0.4401563263312165
0.16109821699956228 0.47728382999511476 0.43917928676111373
0.16131610199954594 0.4753297508549097 0.4382022471910112
0.16156135700020968 0.4811919882755251 0.4382022471910112
0.16176913100025558 0.48412310698583294 0.4382022471910112
0.1619793119998576 0.4880312652662433 0.43917928676111373
0.16219786399960867 0.48900830483634583 0.4401563263312165
0.16239671199946315 0.4948705422569615 0.43624816805080613
0.16259487600018474 0.49682462139716654 0.43429408891060084
0.16279437199955282 0.49682462139716654 0.4333170493404983
0.16299323899966112 0.4978016609672691 0.431362970200293
0.16319080899938854 0.4978016609672691 0.431362970200293
0.16338760199960234 0.49975574010747437 0.431362970200293
0.1635841729994354 0.5007327796775769 0.4323400097703958
0.16378165100013575 0.5026868588177822 0.4333170493404983
0.16397873999994772 0.49877870053737183 0.43722520762090866
0.16417681099937909 0.49975574010747437 0.43917928676111373
0.16437454799961415 0.49975574010747437 0.43917928676111373
0.1647808179995991 0.49975574010747437 0.441133365901319
0.16501685099956376 0.5007327796775769 0.43722520762090866
0.16524505100005626 0.5046409379579873 0.43624816805080613
0.16553647199998522 0.5036638983878847 0.4333170493404983
0.16579065199948673 0.5056179775280898 0.43429408891060084
0.16599629699976504 0.5007327796775769 0.43429408891060084
0.16619586700016953 0.4909623839765511 0.4352711284807034
0.16639356699943164 0.4763067904250122 0.44406448461162684
0.16659171199989942 0.46262823644357587 0.44699560332193444
0.16678968999985955 0.4509037616023448 0.4587200781631655
0.16698637199988298 0.43624816805080613 0.4587200781631655
0.16718338699956803 0.4255007327796776 0.46262823644357587
0.16738180899938016 0.41963849535906195 0.4655593551538837
0.1675793429994883 0.4176844162188569 0.4665363947239862
0.16777617299976555 0.41475329750854906 0.4684904738641915
0.16797272500025429 0.41475329750854906 0.467513434294089
0.1681702949999817 0.4176844162188569 0.4655593551538837
0.1683684949994131 0.4206155349291647 0.46262823644357587
0.16856532499969035 0.42256961406936977 0.46262823644357587
0.16881145099978312 0.4264777723497801 0.457743038593063
0.16903411299972504 0.43624816805080613 0.45188080117244755
0.16925386899947625 0.44211040547142155 0.44894968246213973
0.16949419799948373 0.44992672203224227 0.4460185637518319
0.16970471199965687 0.4587200781631655 0.4479726428920372
0.16991480100023182 0.4636052760136786 0.4460185637518319
0.17013018599936913 0.47142159257449934 0.4430874450415241
0.170332812000197 0.47239863214460187 0.4430874450415241
0.17058143800022663 0.4782608695652173 0.4430874450415241
0.1707844339998701 0.47923790913532005 0.441133365901319
0.1709823379997033 0.4753297508549097 0.4450415241817294
0.17118009400019218 0.46946751343429405 0.44406448461162684
0.17137820100015233 0.46165119687347334 0.44406448461162684
0.17157688299994334 0.45481191988275516 0.44699560332193444
0.1717787870002212 0.4450415241817294 0.44894968246213973
0.17197654299980059 0.43624816805080613 0.45676599902296044
0.17217478000020492 0.42940889106008795 0.457743038593063
0.17237607300012314 0.4206155349291647 0.457743038593063
0.1725736059997871 0.41182217879824123 0.45969711773326827
0.1727991950001524 0.403028822667318 0.4606741573033708
0.17299665399968944 0.39423546653639474 0.46262823644357587
0.1731956319999881 0.3834880312652662 0.4655593551538837
0.17339262899986352 0.3805569125549584 0.46946751343429405
0.17359006900005625 0.37274059599413767 0.47435271128480694
0.17378717700012203 0.3678553981436248 0.4782608695652173
0.17398478499944758 0.36199316072300936 0.4811919882755251
0.17418224399989413 0.358085002442599 0.4811919882755251
0.1743799260002561 0.3551538837322912 0.4811919882755251
0.17457908899996255 0.35417684416218864 0.4811919882755251
0.17477575199973217 0.3531998045920859 0.4831460674157304
0.17497356300009415 0.3531998045920859 0.48412310698583294
0.17517152300024463 0.3531998045920859 0.4831460674157304
0.17536927899982402 0.35222276502198335 0.4811919882755251
0.17556825700012268 0.3551538837322912 0.48216902784562765
0.17576628999995592 0.35710796287249624 0.47435271128480694
0.17596369399961986 0.3629702002931119 0.47239863214460187
0.17616022799938946 0.3688324377137273 0.4684904738641915
0.1763572979998571 0.3776257938446508 0.46165119687347334
0.1765533689995209 0.39228138739618945 0.45676599902296044
0.17677166100020258 0.4059599413776258 0.44894968246213973
0.1769967310001448 0.4206155349291647 0.4430874450415241
0.17720878299951437 0.4333170493404983 0.441133365901319
0.17742370499945537 0.44211040547142155 0.43917928676111373
0.1776669419996324 0.45481191988275516 0.43917928676111373
0.1778724380001222 0.4655593551538837 0.4352711284807034
0.1780791009996392 0.47142159257449934 0.4352711284807034
0.1782784859997264 0.4753297508549097 0.4352711284807034
0.17847614999936923 0.4811919882755251 0.43624816805080613
0.17867327600015415 0.48412310698583294 0.43429408891060084
0.1788707349996912 0.4851001465559355 0.43917928676111373
0.17907086099967273 0.47923790913532005 0.43624816805080613
0.17926772800001345 0.4811919882755251 0.43722520762090866
0.1794642799995927 0.4851001465559355 0.44894968246213973
0.1796617210002296 0.4811919882755251 0.44211040547142155
0.17985986599978787 0.486077186126038 0.4450415241817294
0.18005767700014985 0.4811919882755251 0.4450415241817294
0.18025580299945432 0.4802149487054226 0.4450415241817294
0.18045781799992255 0.4811919882755251 0.44406448461162684
0.18069314700005634 0.48216902784562765 0.4401563263312165
0.1808927179999955 0.4831460674157304 0.4382022471910112
0.1810892879993844 0.4831460674157304 0.4352711284807034
0.181286099999852 0.4851001465559355 0.43429408891060084
0.18148270700021385 0.48705422569614076 0.4352711284807034
0.18168107400015288 0.48998534440644836 0.43429408891060084
0.18187966299956315 0.4909623839765511 0.43624816805080613
0.1820770120002635 0.49877870053737183 0.43722520762090866
0.18227400799969473 0.5036638983878847 0.4352711284807034
0.1824709120000989 0.5036638983878847 0.4333170493404983
0.18266922299972066 0.5056179775280898 0.4323400097703958
0.18286542399982864 0.5095261358085001 0.431362970200293
0.18306286400002136 0.5134342940889105 0.431362970200293
0.18325937999998132 0.5095261358085001 0.431362970200293
0.18345741299981455 0.5095261358085001 0.4303859306301905
0.18365568699937285 0.5105031753786029 0.4323400097703958
0.18385292499988282 0.5085490962383976 0.431362970200293
0.18405067999992752 0.5085490962383976 0.431362970200293
0.1842475289995491 0.5095261358085001 0.431362970200293
0.18444389599972055 0.5085490962383976 0.431362970200293
0.18464072499955364 0.5085490962383976 0.4303859306301905
0.1848645359996226 0.5075720566682951 0.431362970200293
0.18509588399956556 0.5056179775280898 0.4382022471910112
0.18531125099980272 0.5095261358085001 0.4323400097703958
0.18552070999976422 0.5026868588177822 0.431362970200293
0.18574079799964238 0.5036638983878847 0.4303859306301905
0.1859631649995208 0.49975574010747437 0.431362970200293
0.18618053099999088 0.4948705422569615 0.4382022471910112
0.18639558299946657 0.48216902784562765 0.44406448461162684
0.1866065049998724 0.47728382999511476 0.44894968246213973
0.18681472400021448 0.4665363947239862 0.45481191988275516
0.1870299049996902 0.4587200781631655 0.46165119687347334
0.1872360130000743 0.4538348803126526 0.4636052760136786
0.18745204599963472 0.44894968246213973 0.4655593551538837
0.18765930100016703 0.4460185637518319 0.4665363947239862
0.18785683499936567 0.44406448461162684 0.4665363947239862
0.18805509100002382 0.4460185637518319 0.4684904738641915
0.1882531060000474 0.43429408891060084 0.4684904738641915
0.18852467499982595 0.4264777723497801 0.4684904738641915
0.18876605999957974 0.4255007327796776 0.46946751343429405
0.18896500099981495 0.42745481191988266 0.46946751343429405
0.18916184899990185 0.4255007327796776 0.4665363947239862
0.1893587340000522 0.4284318514899854 0.46458231558378116
0.1895556379995469 0.4284318514899854 0.4636052760136786
0.18975254199995106 0.4284318514899854 0.467513434294089
0.18994900199959375 0.4352711284807034 0.467513434294089
0.19014468299974396 0.43429408891060084 0.46458231558378116
0.19034186499993666 0.43429408891060084 0.46165119687347334
0.19053875000008702 0.43917928676111373 0.457743038593063
0.19073626499994134 0.4430874450415241 0.4538348803126526
0.19093331699968985 0.44699560332193444 0.4528578407425501
0.19113194399960776 0.4460185637518319 0.45188080117244755
0.19132871799956774 0.4479726428920372 0.45188080117244755
0.1915256029997181 0.44699560332193444 0.45188080117244755
0.19172250700012228 0.44211040547142155 0.4557889594528579
0.19192902199938544 0.43917928676111373 0.45676599902296044
0.19212555600006453 0.4323400097703958 0.4636052760136786
0.1923241449994748 0.42745481191988266 0.46946751343429405
0.19252317799964658 0.4206155349291647 0.467513434294089
0.192731823000031 0.41475329750854906 0.46458231558378116
0.1929295780000757 0.40889106008793363 0.46262823644357587
0.19312690799961274 0.4049829018075233 0.4587200781631655
0.19332410799961508 0.40009770395701016 0.45969711773326827
0.19369993500004057 0.38935026868588185 0.45676599902296044
0.19392626399985602 0.3883732291157791 0.45969711773326827
0.19412822399954166 0.3854421104054715 0.46165119687347334
0.19432618300015747 0.3834880312652662 0.4665363947239862
0.19452379099948303 0.38153395212506114 0.46946751343429405
0.1947217319993797 0.3805569125549584 0.46946751343429405
0.19491841299986845 0.37469467513434296 0.47239863214460187
0.19511720599984983 0.36687835857352225 0.47435271128480694
0.1953153320000638 0.3610161211529066 0.47728382999511476
0.19551255099941045 0.3531998045920859 0.47728382999511476
0.19571121399985714 0.3512457254518808 0.47923790913532005
0.1959086369997749 0.34440644846116264 0.4753297508549097
0.19610611499956576 0.3424523693209576 0.47435271128480694
0.19630316700022377 0.3424523693209576 0.47142159257449934
0.19649981099973957 0.3531998045920859 0.4636052760136786
0.1967045479996159 0.358085002442599 0.4587200781631655
0.19690415599961852 0.3688324377137273 0.4557889594528579
0.19710363400008646 0.38153395212506114 0.4538348803126526
0.19730053799958114 0.3913043478260869 0.4509037616023448
0.19749842300007003 0.4010747435271129 0.4528578407425501
0.19769682700007252 0.40986809965803617 0.4460185637518319
0.19789365699944028 0.4157303370786516 0.4430874450415241
0.19809009799973865 0.4235466536394723 0.43624816805080613
0.19828811299976223 0.4303859306301905 0.4333170493404983
0.19848673900014546 0.43624816805080613 0.4303859306301905
0.19868382799995743 0.4401563263312165 0.4303859306301905
0.1988819729995157 0.4450415241817294 0.431362970200293
0.19907928399970842 0.44699560332193444 0.4352711284807034
0.19927668799937237 0.44699560332193444 0.43624816805080613
0.1994736099995862 0.4460185637518319 0.4382022471910112
0.19967195899971557 0.4538348803126526 0.4401563263312165
0.19986977000007755 0.45188080117244755 0.441133365901319
0.20006784099950892 0.45481191988275516 0.4430874450415241
0.20029126299959898 0.45969711773326827 0.441133365901319
0.20051675899958354 0.4655593551538837 0.44406448461162684
0.20077338400005829 0.4753297508549097 0.4460185637518319
0.20099102799940738 0.48998534440644836 0.4460185637518319
0.20121163499970862 0.5056179775280898 0.44894968246213973
0.20144720499956748 0.5280898876404494 0.4479726428920372
0.20166633099961473 0.5476306790425012 0.44894968246213973
0.20189201199991658 0.5593551538837322 0.4460185637518319
0.2021135079994565 0.567171470444553 0.44699560332193444
0.20233187499979977 0.576941866145579 0.4430874450415241
0.20257849999961763 0.5603321934538348 0.4382022471910112
0.20282956899973215 0.5525158768930141 0.4352711284807034
0.2031208050002533 0.5398143624816805 0.4352711284807034
0.2034236889994645 0.5378602833414754 0.4333170493404983
0.2036835359995166 0.5368832437713726 0.42745481191988266
0.20392716100013786 0.5378602833414754 0.42745481191988266
0.20417847099997743 0.5398143624816805 0.4303859306301905
0.20438611600002332 0.5368832437713726 0.42745481191988266
0.20458485299968743 0.5359062042012701 0.4264777723497801
0.20482586700018146 0.533952125061065 0.431362970200293
0.20502654899974004 0.5378602833414754 0.43722520762090866
0.2052269529995101 0.540791402051783 0.43917928676111373
0.20542472699980863 0.5437225207620908 0.4401563263312165
0.20562255699951493 0.5446995603321934 0.44211040547142155
0.20581975699951727 0.5466536394723986 0.441133365901319
0.20601608699962526 0.5417684416218858 0.441133365901319
0.20621410199964885 0.5329750854909623 0.4450415241817294
0.20641276500009553 0.512457254518808 0.44406448461162684
0.20660970599965367 0.49877870053737183 0.44406448461162684
0.20680847999938123 0.4831460674157304 0.4450415241817294
0.20700608799961628 0.47239863214460187 0.4430874450415241
0.20720610299940745 0.46165119687347334 0.44211040547142155
0.2074047480000445 0.4528578407425501 0.44211040547142155
0.20760152200000448 0.4509037616023448 0.44211040547142155
0.20779911099998571 0.43917928676111373 0.4460185637518319
0.20799553300003026 0.4382022471910112 0.44894968246213973
0.20819314099935582 0.4382022471910112 0.4509037616023448
0.20838982299937925 0.4323400097703958 0.4538348803126526
0.2085882639994452 0.42940889106008795 0.45676599902296044
0.2088031859993862 0.42256961406936977 0.4557889594528579
0.20902044099966588 0.41963849535906195 0.4557889594528579
0.20925756699944031 0.42256961406936977 0.4557889594528579
0.20947634099957213 0.41475329750854906 0.4538348803126526
0.2096865590001471 0.412799218368344 0.45481191988275516
0.2098867220001921 0.41182217879824123 0.4557889594528579
0.21008742199956032 0.41182217879824123 0.4528578407425501
0.21028871499947854 0.412799218368344 0.45481191988275516
0.21048900799996773 0.41475329750854906 0.4587200781631655
0.21068933799961087 0.4186614557889594 0.45969711773326827
0.21089276000020618 0.42256961406936977 0.4636052760136786
0.21110479300023144 0.42256961406936977 0.46262823644357587
0.21130827100023453 0.4255007327796776 0.4655593551538837
0.21150917500017385 0.42256961406936977 0.46458231558378116
0.2117163189996063 0.42940889106008795 0.4665363947239862
0.21191718599948217 0.42452369320957506 0.4655593551538837
0.21211973800018313 0.42159257449926724 0.4684904738641915
0.21232317900012276 0.4186614557889594 0.46946751343429405
0.21252758299942798 0.41670737664875435 0.46946751343429405
0.21276448600019648 0.4157303370786516 0.4684904738641915
0.21302449999984674 0.412799218368344 0.46262823644357587
0.21322277399940504 0.41182217879824123 0.46262823644357587
0.21342080799968244 0.41475329750854906 0.45969711773326827
0.21361989700017148 0.40986809965803617 0.45481191988275516
0.2138174669998989 0.39912066438690763 0.4557889594528579
0.21401414899992233 0.39716658524670256 0.45969711773326827
0.2142121449996921 0.3932584269662922 0.46165119687347334
0.21441014199990605 0.3913043478260869 0.467513434294089
0.21460719399965456 0.3913043478260869 0.47142159257449934
0.21480389399948763 0.38935026868588185 0.47435271128480694
0.21500348300014593 0.39228138739618945 0.4782608695652173
0.2152009800001906 0.3903273082559844 0.4763067904250122
0.2153985869999815 0.3883732291157791 0.4753297508549097
0.21559580600023764 0.3883732291157791 0.4733756717147044
0.21579421000024013 0.3805569125549584 0.4753297508549097
0.21599335500013694 0.3805569125549584 0.4704445530043966
0.216190498999822 0.37957987298485585 0.47435271128480694
0.21638658800020494 0.3834880312652662 0.4606741573033708
0.21658710300016537 0.3903273082559844 0.4538348803126526
0.21680339599970466 0.40693698094772834 0.45481191988275516
0.21706239099967206 0.4176844162188569 0.4479726428920372
0.21727096199992957 0.4284318514899854 0.4450415241817294
0.21747682800014445 0.43624816805080613 0.4430874450415241
0.21769215799940866 0.44699560332193444 0.4430874450415241
0.21790443200006848 0.4528578407425501 0.4401563263312165
0.2181040209998173 0.45969711773326827 0.4401563263312165
0.21830266500001017 0.4636052760136786 0.4382022471910112
0.21850632899986522 0.4655593551538837 0.43624816805080613
0.21870406600010028 0.47728382999511476 0.4352711284807034
0.2189169879993642 0.48412310698583294 0.4352711284807034
0.21913707699968654 0.4851001465559355 0.4382022471910112
0.21935620200019912 0.48705422569614076 0.4450415241817294
0.21957340199969622 0.486077186126038 0.44894968246213973
0.21978443499938294 0.486077186126038 0.45188080117244755
0.21999689499989472 0.4851001465559355 0.4528578407425501
0.22020846499981417 0.48216902784562765 0.45481191988275516
0.22044288699999015 0.4811919882755251 0.45676599902296044
0.22070566000002145 0.47728382999511476 0.45188080117244755
0.22094872999969084 0.48412310698583294 0.4528578407425501
0.2211969849995512 0.486077186126038 0.4538348803126526
0.22143551699991804 0.48998534440644836 0.4557889594528579
0.2216937909997796 0.4909623839765511 0.4479726428920372
0.22197676699943258 0.49682462139716654 0.4430874450415241
0.2222249289998217 0.5056179775280898 0.43917928676111373
0.2224800169997252 0.49975574010747437 0.4323400097703958
0.2227610680001817 0.49975574010747437 0.4303859306301905
0.2230354699995587 0.4938935026868587 0.4323400097703958
0.2232907809993776 0.49193942354665365 0.4303859306301905
0.22375282800021523 0.4909623839765511 0.4284318514899854
0.22413978399981715 0.48998534440644836 0.4323400097703958
0.2243930200002069 0.4880312652662433 0.4303859306301905
0.22461633100010658 0.48998534440644836 0.4303859306301905
0.22484419800002797 0.4880312652662433 0.43429408891060084
0.22507732299982308 0.49193942354665365 0.4303859306301905
0.2252907639995101 0.49193942354665365 0.4323400097703958
0.22550248199968337 0.4938935026868587 0.43624816805080613
0.22571520099972986 0.49682462139716654 0.431362970200293
0.22595704800005478 0.49975574010747437 0.4352711284807034
0.22622019200025534 0.49193942354665365 0.43624816805080613
0.2264687609995235 0.486077186126038 0.4430874450415241
0.22669398000016372 0.4782608695652173 0.4509037616023448
0.22689901299963822 0.47239863214460187 0.4509037616023448
0.22710380599983182 0.46458231558378116 0.44894968246213973
0.22730295000019396 0.457743038593063 0.44992672203224227
0.22750194699983695 0.4509037616023448 0.4528578407425501
0.22770746199967107 0.4430874450415241 0.45676599902296044
0.2279217539999081 0.43722520762090866 0.457743038593063
0.22814032399946882 0.4333170493404983 0.457743038593063
0.22834980199968413 0.42940889106008795 0.457743038593063
0.2285579469998993 0.42745481191988266 0.45969711773326827
0.22880129399982252 0.431362970200293 0.46165119687347334
0.22902871599944774 0.43624816805080613 0.4538348803126526
0.22924021200014977 0.4430874450415241 0.4557889594528579
0.22944609699970897 0.4479726428920372 0.4538348803126526
0.22967044500001066 0.4538348803126526 0.4557889594528579
0.2299179589999767 0.4538348803126526 0.45676599902296044
0.2301617510001961 0.457743038593063 0.4587200781631655
0.23040722899986577 0.45188080117244755 0.45969711773326827
0.2306343909995121 0.45188080117244755 0.457743038593063
0.23085290600010921 0.44894968246213973 0.4606741573033708
0.23107747599988215 0.44699560332193444 0.45481191988275516
0.23130539799967664 0.44406448461162684 0.457743038593063
0.23151668999980757 0.44211040547142155 0.45481191988275516
0.23172913100006554 0.4323400097703958 0.45676599902296044
0.23194268299994292 0.42159257449926724 0.467513434294089
0.23216469699946174 0.40986809965803617 0.4684904738641915
0.23238530500020715 0.4010747435271129 0.4753297508549097
0.23259865299951343 0.3932584269662922 0.4763067904250122
0.2329015730001629 0.3834880312652662 0.47923790913532005
0.23330467699997826 0.3786028334147533 0.47728382999511476
0.2336194859999523 0.3776257938446508 0.47435271128480694
0.2338239459995748 0.3776257938446508 0.4753297508549097
0.2340214420000848 0.37957987298485585 0.47435271128480694
0.2342266979994747 0.37274059599413767 0.4763067904250122
0.23442417600017507 0.37469467513434296 0.4753297508549097
0.23462387600011425 0.3737176355642404 0.47435271128480694
0.23482091000005312 0.36980947728383007 0.46946751343429405
0.23507753499961836 0.37469467513434296 0.467513434294089
0.2352872159999606 0.37274059599413767 0.47142159257449934
0.2354873049998787 0.376648754274548 0.467513434294089
0.2356952829995862 0.37469467513434296 0.4655593551538837
0.235903445999611 0.3786028334147533 0.46458231558378116
0.23613262700018822 0.38641914997557403 0.4606741573033708
0.23636649299987766 0.3952125061064973 0.45188080117244755
0.2365800819998185 0.4059599413776258 0.4479726428920372
0.2368232259996148 0.4264777723497801 0.4430874450415241
0.2370251479997023 0.44211040547142155 0.4382022471910112
0.2372263480001493 0.44992672203224227 0.43722520762090866
0.2374298999993698 0.45676599902296044 0.43429408891060084
0.23763476699969033 0.46262823644357587 0.4352711284807034
0.23783561500022188 0.46165119687347334 0.4401563263312165
0.23803724099980172 0.4655593551538837 0.43917928676111373
0.23824647799938248 0.4684904738641915 0.4382022471910112
0.23844840099991416 0.4684904738641915 0.4401563263312165
0.23864947099991696 0.4704445530043966 0.43624816805080613
0.23885009700006776 0.47239863214460187 0.43624816805080613
0.23905118599941488 0.4704445530043966 0.43722520762090866
0.23925177499950223 0.4753297508549097 0.43917928676111373
0.23945164199994906 0.47142159257449934 0.44406448461162684
0.23965332399984618 0.47239863214460187 0.44992672203224227
0.23985346799963736 0.4753297508549097 0.44894968246213973
0.24005322399989382 0.4733756717147044 0.4509037616023448
0.24025327599974844 0.4763067904250122 0.44699560332193444
0.24045395800021652 0.4811919882755251 0.44699560332193444
0.24067399100022158 0.48412310698583294 0.44211040547142155
0.2408795800001826 0.48216902784562765 0.44406448461162684
0.24107976199957193 0.486077186126038 0.43429408891060084
0.24127975800001877 0.486077186126038 0.43624816805080613
0.24148132800019084 0.4851001465559355 0.43722520762090866
0.2416823249996014 0.4909623839765511 0.4352711284807034
0.2418827470000906 0.4938935026868587 0.43722520762090866
0.24211157699937758 0.49682462139716654 0.43624816805080613
0.24231518399938068 0.5036638983878847 0.43429408891060084
0.2425127179994888 0.5075720566682951 0.43624816805080613
0.24271110300014698 0.5105031753786029 0.43722520762090866
0.24290898799972638 0.5095261358085001 0.44211040547142155
0.243105800000194 0.5114802149487054 0.4401563263312165
0.2433026479993714 0.5105031753786029 0.4460185637518319
0.24350025599960645 0.5075720566682951 0.4460185637518319
0.243700510999588 0.5065950170981925 0.4460185637518319
0.24389839699961158 0.5046409379579873 0.44211040547142155
0.24409631900016393 0.5007327796775769 0.44406448461162684
0.2442938710000817 0.5026868588177822 0.4430874450415241
0.24449051600004168 0.5026868588177822 0.4401563263312165
0.24468982700000197 0.5095261358085001 0.44406448461162684
0.24488917500002572 0.5065950170981925 0.441133365901319
0.24508661599975312 0.5075720566682951 0.43917928676111373
0.24528344600003038 0.5075720566682951 0.4382022471910112
0.24548022099952505 0.5036638983878847 0.4333170493404983
0.24567706899961195 0.5036638983878847 0.431362970200293
0.2458738799996354 0.5036638983878847 0.4303859306301905
0.24607163600012427 0.5007327796775769 0.4303859306301905
0.2462683180001477 0.48998534440644836 0.431362970200293
0.24646507299985387 0.4831460674157304 0.431362970200293
0.24666145899936964 0.47923790913532005 0.43917928676111373
0.24685856599990075 0.47239863214460187 0.4430874450415241
0.24705658099992434 0.4636052760136786 0.45188080117244755
0.2472532259998843 0.4557889594528579 0.45481191988275516
0.24745233399971767 0.4528578407425501 0.45188080117244755
0.2476496640001642 0.44992672203224227 0.4538348803126526
0.2478461229993627 0.4450415241817294 0.4557889594528579
0.24804300799951307 0.43917928676111373 0.44894968246213973
0.2482494489995588 0.43624816805080613 0.4528578407425501
0.24846727899966936 0.4333170493404983 0.4509037616023448
0.24873745900003996 0.42940889106008795 0.4479726428920372
0.2490281390000746 0.4303859306301905 0.4509037616023448
0.2492298019997179 0.4333170493404983 0.4479726428920372
0.2494282799998473 0.4352711284807034 0.4479726428920372
0.24962497999968036 0.43429408891060084 0.44992672203224227
0.2498237549998521 0.42940889106008795 0.44894968246213973
0.25002084399966407 0.4264777723497801 0.4479726428920372
0.2502179140001317 0.42452369320957506 0.4460185637518319
0.2504155400001764 0.4206155349291647 0.4479726428920372
0.2506130000001576 0.4137762579384465 0.44894968246213973
0.2508094409995465 0.4049829018075233 0.45188080117244755
0.2510064739999507 0.40009770395701016 0.4538348803126526
0.25120767499993235 0.39423546653639474 0.44406448461162684
0.25140652299978683 0.3883732291157791 0.4509037616023448
0.2516029079997679 0.3883732291157791 0.45676599902296044
0.25185503299962875 0.3854421104054715 0.4606741573033708
0.2520609559996956 0.3834880312652662 0.46262823644357587
0.25226247099999455 0.3805569125549584 0.46262823644357587
0.2524590779994469 0.376648754274548 0.4684904738641915
0.25268957400021463 0.3786028334147533 0.47239863214460187
0.2528889220002384 0.38251099169516367 0.4782608695652173
0.25308615999983886 0.3786028334147533 0.47239863214460187
0.25328319300024305 0.3776257938446508 0.47142159257449934
0.2534812639996744 0.37957987298485585 0.47435271128480694
0.253908200999831 0.3834880312652662 0.47435271128480694
0.2541263450002589 0.38739618954567656 0.4704445530043966
0.25432680399990204 0.38739618954567656 0.4733756717147044
0.2545236899995871 0.39228138739618945 0.46946751343429405
0.25472013099988544 0.39716658524670256 0.4655593551538837
0.2549202009995497 0.40009770395701016 0.4665363947239862
0.2551174390000597 0.4079140205178309 0.467513434294089
0.25531450899961783 0.40986809965803617 0.46946751343429405
0.25551196899959905 0.40693698094772834 0.46946751343429405
0.25570879799943214 0.4040058622374205 0.4733756717147044
0.2559060909998152 0.4010747435271129 0.4733756717147044
0.2561027359997752 0.40009770395701016 0.4733756717147044
0.2562990289998197 0.4040058622374205 0.4704445530043966
0.25649620999956824 0.40986809965803617 0.4606741573033708
0.2566985220000788 0.42159257449926724 0.45676599902296044
0.256897499999468 0.42940889106008795 0.45188080117244755
0.25709399599963945 0.4430874450415241 0.4557889594528579
0.25729112199951487 0.457743038593063 0.4557889594528579
0.2574872850000247 0.4684904738641915 0.44992672203224227
0.25768502299979446 0.47142159257449934 0.4479726428920372
0.2578821119996064 0.4733756717147044 0.44699560332193444
0.2580793299994184 0.4831460674157304 0.44699560332193444
0.2582763270002033 0.48900830483634583 0.44992672203224227
0.25847243499993056 0.48705422569614076 0.44406448461162684
0.2586937449996185 0.48998534440644836 0.4479726428920372
0.25889811199976975 0.4938935026868587 0.44699560332193444
0.25909581199994136 0.49877870053737183 0.4479726428920372
0.2592926239994995 0.49682462139716654 0.44699560332193444
0.25948958299977676 0.495847581827064 0.44211040547142155
0.2596863199996733 0.486077186126038 0.44406448461162684
0.2598849469995912 0.47923790913532005 0.4382022471910112
0.26009223900018696 0.4704445530043966 0.43429408891060084
0.26029843899959815 0.45676599902296044 0.4264777723497801
0.26051017600002524 0.4557889594528579 0.4303859306301905
0.2607169499997326 0.4557889594528579 0.42940889106008795
0.2609168540002429 0.44894968246213973 0.43429408891060084
0.26111860999935743 0.44894968246213973 0.4352711284807034
0.2613244770000165 0.44894968246213973 0.441133365901319
0.26152097300018795 0.44992672203224227 0.4479726428920372
0.2617182659996615 0.4587200781631655 0.4450415241817294
0.2619196699997701 0.4636052760136786 0.44699560332193444
0.2621169439998994 0.47239863214460187 0.4430874450415241
0.26231325499975355 0.47923790913532005 0.4430874450415241
0.2625106779996713 0.49193942354665365 0.44406448461162684
0.2627087669998218 0.49877870053737183 0.4479726428920372
0.2629061890002049 0.5065950170981925 0.4401563263312165
0.2631036299999323 0.512457254518808 0.4401563263312165
0.263300404999427 0.5095261358085001 0.441133365901319
0.2634972529995139 0.5144113336590133 0.43917928676111373
0.263694360000045 0.5144113336590133 0.43917928676111373
0.26389183799983584 0.5144113336590133 0.4333170493404983
0.2640902419998383 0.5192965315095261 0.42940889106008795
0.2642911829998411 0.522227650219834 0.42745481191988266
0.2644885689996954 0.5290669272105519 0.4264777723497801
0.2647027689999959 0.5300439667806547 0.4284318514899854
0.2649052090000623 0.5359062042012701 0.42452369320957506
0.265102427999409 0.5261358085002443 0.4284318514899854
0.26529985100023623 0.5300439667806547 0.4255007327796776
0.2654973099997733 0.5290669272105519 0.4303859306301905
0.26569354699950054 0.533952125061065 0.4303859306301905
0.26589111799967213 0.5398143624816805 0.42256961406936977
0.26609050299975934 0.540791402051783 0.4264777723497801
0.2662880369998675 0.5310210063507572 0.4323400097703958
0.2664858849993834 0.522227650219834 0.4333170493404983
0.26668730700021115 0.5046409379579873 0.4401563263312165
0.2668848590001289 0.4948705422569615 0.44211040547142155
0.26708174499981396 0.4851001465559355 0.4479726428920372
0.2672784079995836 0.4733756717147044 0.4479726428920372
0.26747484899988194 0.46946751343429405 0.4460185637518319
0.2676718080001592 0.45481191988275516 0.45188080117244755
0.26786913799969625 0.44894968246213973 0.4509037616023448
0.26806580099946586 0.44699560332193444 0.4528578407425501
0.2682626679998066 0.44406448461162684 0.4557889594528579
0.2684595350001473 0.4450415241817294 0.4538348803126526
0.2686762719995386 0.441133365901319 0.4606741573033708
0.26892602699990675 0.4479726428920372 0.45969711773326827
0.2691302459998042 0.44699560332193444 0.45969711773326827
0.26933259399993403 0.4538348803126526 0.46262823644357587
0.26953010899978835 0.45481191988275516 0.4665363947239862
0.2697273089997907 0.4587200781631655 0.4684904738641915
0.2699241020000045 0.4587200781631655 0.47142159257449934
0.27012194999952044 0.4587200781631655 0.47142159257449934
0.2703185020000092 0.457743038593063 0.4733756717147044
0.2705149249995884 0.4509037616023448 0.4704445530043966
0.2707116989995484 0.4509037616023448 0.4704445530043966
0.2709082510000371 0.4430874450415241 0.4704445530043966
0.27110511799946835 0.441133365901319 0.46262823644357587
0.2713020219998725 0.43917928676111373 0.46262823644357587
0.27149857399945176 0.43429408891060084 0.457743038593063
0.2716960520001521 0.42745481191988266 0.4538348803126526
0.271892771000239 0.42159257449926724 0.4538348803126526
0.2720901189995857 0.41475329750854906 0.4557889594528579
0.2722973379995892 0.403028822667318 0.45676599902296044
0.2725061299997833 0.40205178309721545 0.45676599902296044
0.27271029299936345 0.39716658524670256 0.46458231558378116
0.27291045599940844 0.38935026868588185 0.4655593551538837
0.2731083230000877 0.38153395212506114 0.4684904738641915
0.27330580099987856 0.37469467513434296 0.4704445530043966
0.2735022420001769 0.3707865168539326 0.47435271128480694
0.27369910899960814 0.3678553981436248 0.4782608695652173
0.27389653099999123 0.35906204201270153 0.47728382999511476
0.2740933799996128 0.3531998045920859 0.47923790913532005
0.27429670999936206 0.348314606741573 0.4753297508549097
0.2745015949994922 0.3453834880312652 0.4763067904250122
0.2746985730000233 0.34440644846116264 0.47239863214460187
0.2748966620001738 0.3434294088910601 0.4704445530043966
0.2750933620000069 0.3414753297508548 0.4684904738641915
0.2752910809995228 0.3453834880312652 0.46946751343429405
0.2754893359997368 0.3453834880312652 0.4684904738641915
0.27568598099969677 0.3414753297508548 0.467513434294089
0.27588251499946637 0.3434294088910601 0.4655593551538837
0.27607930799968017 0.34440644846116264 0.46262823644357587
0.2762756370002535 0.34929164631167553 0.4587200781631655
0.27647228200021345 0.3629702002931119 0.44992672203224227
0.276683334000154 0.376648754274548 0.4460185637518319
0.27688053400015633 0.3932584269662922 0.44211040547142155
0.2770810679994611 0.41182217879824123 0.4401563263312165
0.27727847099959035 0.4206155349291647 0.43624816805080613
0.27747578300022724 0.4333170493404983 0.4333170493404983
0.2776727789996585 0.441133365901319 0.43917928676111373
0.2778710160000628 0.44992672203224227 0.43624816805080613
0.27806893900014984 0.4557889594528579 0.43722520762090866
0.2782666209996023 0.4606741573033708 0.43722520762090866
0.27846270999998524 0.45969711773326827 0.4352711284807034
0.2786593909995645 0.46165119687347334 0.4352711284807034
0.2788560179997148 0.4665363947239862 0.43917928676111373
0.2790525139998863 0.46946751343429405 0.4430874450415241
0.2792489920002481 0.4684904738641915 0.4460185637518319
0.27944591399955243 0.4684904738641915 0.44894968246213973
0.27964233700004115 0.4684904738641915 0.4528578407425501
0.27983925900025497 0.4684904738641915 0.4509037616023448
0.2800366080000458 0.4684904738641915 0.44894968246213973
0.2802328629995827 0.4733756717147044 0.4460185637518319
0.28042891599943687 0.4733756717147044 0.44211040547142155
0.28062567100005253 0.4851001465559355 0.4430874450415241
0.28083605600022565 0.48998534440644836 0.441133365901319
0.28103279399965686 0.495847581827064 0.441133365901319
0.28122949399948993 0.5036638983878847 0.441133365901319
0.2814266939994923 0.5114802149487054 0.4430874450415241
0.2816233200001079 0.5114802149487054 0.44699560332193444
0.2818202429998564 0.5192965315095261 0.44699560332193444
0.2822579389994644 0.5251587689301416 0.4479726428920372
0.2824847679994491 0.5310210063507572 0.4460185637518319
0.2826839499994094 0.5300439667806547 0.44992672203224227
0.2828809459997501 0.5261358085002443 0.4430874450415241
0.2830790910002179 0.5290669272105519 0.43429408891060084
0.28327669800000876 0.5261358085002443 0.4382022471910112
0.28347691699946154 0.5212506106497312 0.43722520762090866
0.28373659799945017 0.5192965315095261 0.4284318514899854
0.2839570199994341 0.5144113336590133 0.42940889106008795
0.28416799699971307 0.512457254518808 0.431362970200293
0.28437251200011815 0.5085490962383976 0.4333170493404983
0.28459693399963726 0.5134342940889105 0.43429408891060084
0.2848601890000282 0.5153883732291158 0.4333170493404983
0.2850691849998839 0.5144113336590133 0.43624816805080613
0.2852909590001218 0.5095261358085001 0.43624816805080613
0.28550063999955455 0.5105031753786029 0.4401563263312165
0.28572839600019506 0.5114802149487054 0.4382022471910112
0.2859723359997588 0.5095261358085001 0.43917928676111373
0.2862011839997649 0.5007327796775769 0.4401563263312165
0.286420308999368 0.48900830483634583 0.4450415241817294
0.2866344169997319 0.47923790913532005 0.44699560332193444
0.2868534310000541 0.47142159257449934 0.4460185637518319
0.28706955699999526 0.4606741573033708 0.4479726428920372
0.28728131299976667 0.4557889594528579 0.44894968246213973
0.28751878999992186 0.4509037616023448 0.44894968246213973
0.28773495299992646 0.44699560332193444 0.4460185637518319
0.2879512640001849 0.4401563263312165 0.4479726428920372
0.288165203999597 0.441133365901319 0.44699560332193444
0.28837997800019366 0.43917928676111373 0.4460185637518319
0.2885918820002189 0.43722520762090866 0.45188080117244755
0.2888415809993603 0.4382022471910112 0.4538348803126526
0.2890598180001689 0.44406448461162684 0.45676599902296044
0.2893104619997757 0.44992672203224227 0.4528578407425501
0.2895241989999704 0.45188080117244755 0.4557889594528579
0.28973095399942395 0.4460185637518319 0.4538348803126526
0.2899476359998516 0.4528578407425501 0.44894968246213973
0.2901661129999411 0.45188080117244755 0.44992672203224227
0.2903861650002 0.44894968246213973 0.4479726428920372
0.29062660499948834 0.44211040547142155 0.4479726428920372
0.29084737899938773 0.43917928676111373 0.44699560332193444
0.2910889300001145 0.4382022471910112 0.4460185637518319
0.29133374100001674 0.43429408891060084 0.45188080117244755
0.29157064399987576 0.431362970200293 0.44992672203224227
0.2917839550000281 0.4255007327796776 0.45481191988275516
0.2919898399995873 0.42256961406936977 0.45969711773326827
0.2921869659994627 0.4186614557889594 0.45969711773326827
0.29238731499935966 0.40986809965803617 0.4684904738641915
0.29258486700018693 0.403028822667318 0.467513434294089
0.29284556599941425 0.3981436248168051 0.4665363947239862
0.2930475989996921 0.3952125061064973 0.4753297508549097
0.2932465960002446 0.3883732291157791 0.4704445530043966
0.29344366599980276 0.3854421104054715 0.4704445530043966
0.29364786599944637 0.38446507083536874 0.47728382999511476
0.29384621499957575 0.376648754274548 0.4753297508549097
0.29404515599981096 0.37469467513434296 0.4704445530043966
0.29428315099994506 0.3707865168539326 0.467513434294089
0.29448533300001145 0.36980947728383007 0.4655593551538837
0.29468238499975996 0.3688324377137273 0.4684904738641915
0.2948802889995932 0.3678553981436248 0.4684904738641915
0.29507908199957456 0.3707865168539326 0.467513434294089
0.29527620799945 0.3639472398632144 0.4655593551538837
0.29547251900021365 0.36492427943331696 0.4655593551538837
0.29566997900019487 0.36492427943331696 0.4704445530043966
0.2958663079998587 0.3629702002931119 0.4684904738641915
0.2960664349993749 0.3629702002931119 0.46458231558378116
0.2962636160000329 0.3639472398632144 0.4655593551538837
0.29646027899980254 0.3737176355642404 0.4557889594528579
0.2966837009998926 0.38251099169516367 0.44992672203224227
0.29688271600025473 0.39423546653639474 0.44992672203224227
0.2970800829998552 0.4040058622374205 0.4479726428920372
0.2972774499994557 0.41475329750854906 0.45481191988275516
0.29747581699939474 0.4255007327796776 0.44992672203224227
0.2976731839999047 0.4333170493404983 0.44992672203224227
0.29787075399963214 0.441133365901319 0.4479726428920372
0.29806923199976154 0.44406448461162684 0.44699560332193444
0.29826708099972166 0.441133365901319 0.44699560332193444
0.2984662439994281 0.44406448461162684 0.44992672203224227
0.29866259200025524 0.44406448461162684 0.4450415241817294
0.29885931099943264 0.44211040547142155 0.4460185637518319
0.29905778899956204 0.4450415241817294 0.4450415241817294
0.2992539150000084 0.441133365901319 0.44894968246213973
0.2994505599999684 0.44211040547142155 0.44992672203224227
0.29964711199954763 0.4352711284807034 0.44992672203224227
0.29984384899944416 0.43917928676111373 0.45481191988275516
0.3000580119996812 0.4382022471910112 0.45481191988275516
0.30028871200011054 0.44211040547142155 0.457743038593063
0.30055137399995147 0.4460185637518319 0.45481191988275516
0.300908700999571 0.46165119687347334 0.44699560332193444
0.3012526020002042 0.47435271128480694 0.43429408891060084
0.3017220189994987 0.5095261358085001 0.42745481191988266
0.30210960499971407 0.5310210063507572 0.4255007327796776
0.3024842099994203 0.5495847581827065 0.4323400097703958
0.30285209199973906 0.5446995603321934 0.42940889106008795
0.303216436999719 0.5388373229115779 0.43917928676111373
0.30357422699944436 0.5280898876404494 0.44211040547142155
0.3039604240002518 0.5212506106497312 0.44211040547142155
0.30441436099954444 0.5202735710796287 0.44406448461162684
0.3049049069995817 0.5144113336590133 0.4479726428920372
0.30519838399959553 0.5065950170981925 0.44406448461162684
0.30547995300003095 0.4978016609672691 0.44406448461162684
0.3057789849999608 0.4880312652662433 0.43917928676111373
0.3060459059997811 0.4811919882755251 0.44699560332193444
0.306320974999835 0.46946751343429405 0.4450415241817294
0.30661587699978554 0.45676599902296044 0.44992672203224227
0.3068484659997921 0.44211040547142155 0.44992672203224227
0.30707018399971275 0.43917928676111373 0.4509037616023448
0.3073015129994019 0.4323400097703958 0.44992672203224227
0.30751856499955466 0.4264777723497801 0.4538348803126526
0.3077384500002154 0.4264777723497801 0.45481191988275516
0.30794192800021847 0.4255007327796776 0.4509037616023448
0.30813881299945933 0.42940889106008795 0.45676599902296044
0.3083371980001175 0.4333170493404983 0.4557889594528579
0.30853363899950637 0.4382022471910112 0.45676599902296044
0.308770708999873 0.4450415241817294 0.45481191988275516
0.3089686499997697 0.44992672203224227 0.4557889594528579
0.30916586900002585 0.45676599902296044 0.44894968246213973
0.30936517999998614 0.4606741573033708 0.44211040547142155
0.3095631950000097 0.467513434294089 0.4401563263312165
0.30976063599973713 0.47142159257449934 0.43624816805080613
0.3099585769996338 0.47142159257449934 0.4333170493404983
0.3101547219994245 0.4763067904250122 0.43722520762090866
0.31035251499997685 0.4753297508549097 0.44406448461162684
0.310549584999535 0.47923790913532005 0.4479726428920372
0.31074587799957953 0.4782608695652173 0.44992672203224227
0.3109429669993915 0.47923790913532005 0.4557889594528579
0.31113940799968987 0.47728382999511476 0.4587200781631655
0.31134125599965046 0.46946751343429405 0.4557889594528579
0.3115386789995682 0.4636052760136786 0.457743038593063
0.3117383600001631 0.45481191988275516 0.45481191988275516
0.3119354860000385 0.4450415241817294 0.4606741573033708
0.31213374199978716 0.43624816805080613 0.46262823644357587
0.312331090999578 0.42159257449926724 0.4704445530043966
0.3125281980001091 0.4157303370786516 0.46262823644357587
0.3127517499997339 0.41475329750854906 0.46946751343429405
0.3129540239997368 0.40889106008793363 0.467513434294089
0.3131549649997396 0.4040058622374205 0.467513434294089
0.3133550169995942 0.4049829018075233 0.47142159257449934
0.3135559390002527 0.4040058622374205 0.47239863214460187
0.3137559910001073 0.4040058622374205 0.47239863214460187
0.31395585799964465 0.40693698094772834 0.47435271128480694
0.31431998100015335 0.40693698094772834 0.4733756717147044
0.31454207000024326 0.40889106008793363 0.4753297508549097
0.31474495499969635 0.403028822667318 0.47435271128480694
0.31494558099984715 0.3981436248168051 0.4753297508549097
0.3151477259998501 0.3932584269662922 0.4733756717147044
0.3153480370001489 0.38641914997557403 0.46946751343429405
0.3155478299995593 0.38153395212506114 0.46946751343429405
0.3157480479994774 0.37469467513434296 0.4753297508549097
0.3159482860000935 0.37274059599413767 0.4753297508549097
0.3162007069995525 0.3688324377137273 0.4753297508549097
0.31640150000021094 0.37176355642403514 0.4704445530043966
0.31660212599945226 0.38251099169516367 0.45969711773326827
0.31683217699992383 0.3952125061064973 0.4538348803126526
0.31706085899986647 0.4059599413776258 0.4430874450415241
0.3172712989999127 0.4176844162188569 0.441133365901319
0.31747253599951364 0.4264777723497801 0.4382022471910112
0.31767544000013004 0.43722520762090866 0.4352711284807034
0.31787562199951935 0.44699560332193444 0.43722520762090866
0.3180782109993743 0.44406448461162684 0.4333170493404983
0.3182810589996734 0.4528578407425501 0.4333170493404983
0.3184805189994222 0.45676599902296044 0.4323400097703958
0.31868070000018633 0.4587200781631655 0.4323400097703958
0.31888114100001985 0.457743038593063 0.4333170493404983
0.3190932850002355 0.46165119687347334 0.4323400097703958
0.31929718899937143 0.45969711773326827 0.43429408891060084
0.3194980560001568 0.45676599902296044 0.43624816805080613
0.3196998120001808 0.457743038593063 0.43429408891060084
0.319900141999824 0.457743038593063 0.4401563263312165
0.32010008199995355 0.4509037616023448 0.441133365901319
0.32030339399989316 0.45188080117244755 0.44406448461162684
0.32050431599964213 0.4538348803126526 0.44211040547142155
0.3207077939996452 0.457743038593063 0.4479726428920372
0.3209110679999867 0.457743038593063 0.44699560332193444
0.3211118979997991 0.46458231558378116 0.4460185637518319
0.3213134130000981 0.467513434294089 0.4460185637518319
0.32151389099999506 0.46946751343429405 0.44894968246213973
0.32171423899944784 0.4763067904250122 0.4430874450415241
0.32191390200023307 0.48216902784562765 0.4430874450415241
0.3221163059997707 0.48998534440644836 0.4430874450415241
0.32231389499975194 0.5007327796775769 0.4382022471910112
0.3225138540001353 0.5036638983878847 0.4382022471910112
0.3227114249993974 0.5163654127992183 0.43624816805080613
0.32295451299978595 0.522227650219834 0.43624816805080613
0.3231539910002539 0.5271128480703469 0.43624816805080613
0.32335083999987546 0.5290669272105519 0.43917928676111373
0.32354892900002596 0.5251587689301416 0.4382022471910112
0.32374673999947845 0.5232046897899365 0.43624816805080613
0.3239439589997346 0.5192965315095261 0.43917928676111373
0.3241415109996524 0.5114802149487054 0.4401563263312165
0.32433846999992966 0.512457254518808 0.4450415241817294
0.32453754099969956 0.5017098192476794 0.441133365901319
0.32476124000004347 0.5026868588177822 0.44406448461162684
0.3249938660001135 0.5114802149487054 0.4401563263312165
0.32520102899979975 0.512457254518808 0.43722520762090866
0.3254108589999305 0.5144113336590133 0.43624816805080613
0.3256272809994698 0.512457254518808 0.431362970200293
0.3258340180000232 0.5163654127992183 0.43429408891060084
0.3260411249993922 0.5144113336590133 0.4352711284807034
0.3262521030001153 0.5065950170981925 0.44211040547142155
0.32645559899992804 0.4948705422569615 0.44894968246213973
0.32665798499965604 0.4880312652662433 0.4528578407425501
0.3268566289998489 0.47923790913532005 0.45969711773326827
0.32705384800010506 0.47142159257449934 0.46165119687347334
0.327251566999621 0.4636052760136786 0.467513434294089
0.32745617399996263 0.4557889594528579 0.47239863214460187
0.3276534110000284 0.44992672203224227 0.4733756717147044
0.3278506299993751 0.4450415241817294 0.4763067904250122
0.32804844099973707 0.4401563263312165 0.47728382999511476
0.3282463079995068 0.43722520762090866 0.4782608695652173
0.3284421009993821 0.43722520762090866 0.47728382999511476
0.32863861599980737 0.43429408891060084 0.47728382999511476
0.3288787789997514 0.43624816805080613 0.4684904738641915
0.3290750340001978 0.4401563263312165 0.467513434294089
0.32927110499986156 0.44211040547142155 0.4557889594528579
0.32946910099963134 0.4450415241817294 0.4460185637518319
0.3296665050002048 0.44699560332193444 0.43429408891060084
0.3298714459997427 0.4450415241817294 0.4284318514899854
0.33007059099963953 0.44894968246213973 0.4235466536394723
0.3302683279998746 0.4460185637518319 0.42256961406936977
0.33046536199981347 0.44211040547142155 0.4264777723497801
0.33066408000013325 0.43917928676111373 0.431362970200293
0.33086146599998756 0.43722520762090866 0.43624816805080613
0.33105916600015917 0.4303859306301905 0.441133365901319
0.33125573599954805 0.4264777723497801 0.44406448461162684
0.33145239999976184 0.42452369320957506 0.44894968246213973
0.331649304000166 0.4186614557889594 0.4528578407425501
0.33184798499951285 0.4157303370786516 0.4557889594528579
0.332045647999621 0.412799218368344 0.4557889594528579
0.3322436259995811 0.40889106008793363 0.457743038593063
0.33244121499956236 0.4040058622374205 0.46262823644357587
0.3326956179998888 0.39423546653639474 0.46458231558378116
0.3328977629998917 0.39228138739618945 0.4636052760136786
0.3330967040001269 0.37957987298485585 0.467513434294089
0.3332943850000447 0.3854421104054715 0.46946751343429405
0.3334978819993921 0.3776257938446508 0.4684904738641915
0.3336958230001983 0.3737176355642404 0.4655593551538837
0.3338931339994815 0.37176355642403514 0.4665363947239862
0.3340903159996742 0.3707865168539326 0.4684904738641915
0.33428725700014184 0.36980947728383007 0.467513434294089
0.3344839379997211 0.36980947728383007 0.467513434294089
0.3346816389994274 0.36687835857352225 0.4684904738641915
0.3348783569999796 0.3688324377137273 0.47142159257449934
0.3350755390001723 0.3688324377137273 0.47239863214460187
0.3352722019999419 0.3659013190034197 0.47142159257449934
0.3354689950001557 0.3629702002931119 0.467513434294089
0.3356655289999253 0.358085002442599 0.4704445530043966
0.3358625069995469 0.35417684416218864 0.4684904738641915
0.3360597439996127 0.35417684416218864 0.4704445530043966
0.3362588700001652 0.3531998045920859 0.4636052760136786
0.3364614399997663 0.35906204201270153 0.46458231558378116
0.33667002899983345 0.3737176355642404 0.45481191988275516
0.33687080399977276 0.38739618954567656 0.4528578407425501
0.33706868900026166 0.3981436248168051 0.44992672203224227
0.3372669999998834 0.4176844162188569 0.44894968246213973
0.3374643119996108 0.42159257449926724 0.44699560332193444
0.33766086400009954 0.43429408891060084 0.44699560332193444
0.3378582119994462 0.4460185637518319 0.44992672203224227
0.3380546709995542 0.4528578407425501 0.4460185637518319
0.3382534829997894 0.46165119687347334 0.4509037616023448
0.3384502569997494 0.46946751343429405 0.45481191988275516
0.33864690199970937 0.4831460674157304 0.4557889594528579
0.33884321299956355 0.4831460674157304 0.4528578407425501
0.3390398579995235 0.48900830483634583 0.44894968246213973
0.3392376689998855 0.4929164631167562 0.4528578407425501
0.33944568399965647 0.4948705422569615 0.4460185637518319
0.339645809999638 0.48998534440644836 0.44894968246213973
0.3398430659999576 0.48998534440644836 0.4460185637518319
0.3400401179997061 0.48705422569614076 0.4450415241817294
0.34023879899996246 0.4811919882755251 0.441133365901319
0.3404359249998379 0.4831460674157304 0.4382022471910112
0.34063381099986145 0.4782608695652173 0.4382022471910112
0.3408515659994009 0.48412310698583294 0.4382022471910112
0.34104882199972053 0.4909623839765511 0.43722520762090866
0.3412462810001671 0.4929164631167562 0.4401563263312165
0.3414434259993868 0.49877870053737183 0.43624816805080613
0.34164238599987584 0.5026868588177822 0.441133365901319
0.3418399189995398 0.5036638983878847 0.441133365901319
0.34203667499969015 0.5095261358085001 0.44211040547142155
0.34223468999971374 0.5114802149487054 0.4430874450415241
0.34243192699977953 0.5153883732291158 0.44211040547142155
0.3426284239994857 0.5134342940889105 0.44406448461162684
0.3431251739993968 0.5144113336590133 0.441133365901319
0.34334592899995187 0.5173424523693209 0.43917928676111373
0.34354753699972207 0.5153883732291158 0.43624816805080613
0.3437462370002322 0.5202735710796287 0.431362970200293
0.3439440669999385 0.5192965315095261 0.42940889106008795
0.34414173000004666 0.5183194919394236 0.4323400097703958
0.3443392640001548 0.524181729360039 0.431362970200293
0.34453633399971295 0.5212506106497312 0.42940889106008795
0.34475581199967564 0.5202735710796287 0.4323400097703958
0.34495332699952996 0.5232046897899365 0.4323400097703958
0.3451499530001456 0.522227650219834 0.4333170493404983
0.34534526399966126 0.5202735710796287 0.43429408891060084
0.3455424280000443 0.522227650219834 0.4333170493404983
0.34573851699951774 0.5192965315095261 0.43722520762090866
0.34593523500006995 0.5183194919394236 0.43917928676111373
0.34613228699981846 0.5114802149487054 0.44699560332193444
0.34632848799992644 0.49877870053737183 0.4479726428920372
0.3465262800000346 0.486077186126038 0.4538348803126526
0.3467232029997831 0.47142159257449934 0.45481191988275516
0.34692040299978544 0.45676599902296044 0.45481191988275516
0.34711778800010507 0.4382022471910112 0.457743038593063
0.34731378499964194 0.4284318514899854 0.45969711773326827
0.3475111329998981 0.4108451392281387 0.4606741573033708
0.34770866700000624 0.40889106008793363 0.457743038593063
0.347906848999628 0.3981436248168051 0.45969711773326827
0.34810308599935524 0.3952125061064973 0.45676599902296044
0.3483001009999498 0.3981436248168051 0.4587200781631655
0.34849667100024817 0.3961895456765998 0.45481191988275516
0.3486951119994046 0.3981436248168051 0.4557889594528579
0.3488923499999146 0.403028822667318 0.45676599902296044
0.3490888090000226 0.412799218368344 0.4509037616023448
0.3492860649994327 0.4157303370786516 0.4538348803126526
0.349484061000112 0.4206155349291647 0.45188080117244755
0.3496803359994374 0.42452369320957506 0.4538348803126526
0.3498765360000107 0.4303859306301905 0.45188080117244755
0.3500728839999283 0.43624816805080613 0.4538348803126526
0.3503106950001893 0.4382022471910112 0.4528578407425501
0.3505073770002127 0.4401563263312165 0.44894968246213973
0.35070370599987655 0.441133365901319 0.44699560332193444
0.3509006099993712 0.4479726428920372 0.44699560332193444
0.351098439999987 0.4460185637518319 0.4460185637518319
0.3512951399998201 0.4460185637518319 0.4450415241817294
0.35149134099992807 0.44406448461162684 0.44406448461162684
0.3516878929995073 0.44211040547142155 0.4450415241817294
0.3518840189999537 0.4401563263312165 0.45188080117244755
0.3520814409994273 0.43429408891060084 0.45188080117244755
0.35227790099997947 0.43429408891060084 0.4557889594528579
0.35247423100008746 0.43624816805080613 0.4606741573033708
0.35267328299960354 0.43722520762090866 0.45969711773326827
0.3528701489995001 0.4401563263312165 0.4655593551538837
0.35306622000007337 0.44406448461162684 0.47142159257449934
0.35326364199954696 0.4430874450415241 0.4704445530043966
0.3534702130000369 0.44211040547142155 0.47239863214460187
0.3536772830002519 0.4401563263312165 0.47142159257449934
0.35387453899966204 0.4333170493404983 0.4704445530043966
0.35407047999979113 0.4323400097703958 0.4753297508549097
0.35426642099992023 0.4235466536394723 0.4753297508549097
0.3544627880000917 0.41475329750854906 0.4753297508549097
0.35465961799945944 0.4049829018075233 0.4753297508549097
0.3548566879999271 0.39716658524670256 0.4763067904250122
0.3550532219996967 0.38935026868588185 0.47728382999511476
0.35525075499936065 0.376648754274548 0.47728382999511476
0.3554468629999974 0.3688324377137273 0.47435271128480694
0.35565311899972585 0.3659013190034197 0.46946751343429405
0.35585420799998246 0.3610161211529066 0.47142159257449934
0.3560516119996464 0.36199316072300936 0.46946751343429405
0.3562518859998818 0.3659013190034197 0.4684904738641915
0.356450233999567 0.36687835857352225 0.46458231558378116
0.35666265599957114 0.38153395212506114 0.46262823644357587
0.3568625970001449 0.40009770395701016 0.45969711773326827
0.35706044499966083 0.4137762579384465 0.45481191988275516
0.3572569609996208 0.42159257449926724 0.4509037616023448
0.3574531049998768 0.4333170493404983 0.44894968246213973
0.35765087900017534 0.441133365901319 0.4460185637518319
0.3578471350001564 0.4479726428920372 0.44406448461162684
0.3580432799999471 0.4557889594528579 0.4430874450415241
0.35824209099973814 0.45969711773326827 0.44699560332193444
0.35843960599959246 0.4587200781631655 0.44699560332193444
0.3586364729999332 0.46165119687347334 0.4460185637518319
0.35883265499978734 0.4606741573033708 0.44699560332193444
0.3590293359993666 0.46262823644357587 0.4460185637518319
0.3592260549994535 0.4665363947239862 0.4509037616023448
0.35942186699958256 0.4684904738641915 0.44894968246213973
0.3596178449997751 0.47142159257449934 0.4479726428920372
0.3598141000002215 0.4733756717147044 0.44406448461162684
0.3600101519996315 0.4733756717147044 0.43917928676111373
0.3602064269998664 0.4811919882755251 0.4382022471910112
0.3604033490000802 0.4831460674157304 0.4382022471910112
0.36059997499978635 0.48900830483634583 0.44211040547142155
0.36080158299955656 0.49193942354665365 0.44406448461162684
0.36099854199983383 0.49193942354665365 0.44406448461162684
0.36119528000017453 0.49193942354665365 0.4450415241817294
0.36139557200021954 0.48998534440644836 0.44406448461162684
0.361603309000202 0.4811919882755251 0.4382022471910112
0.36179986099978123 0.4851001465559355 0.4382022471910112
0.3619960429996354 0.48216902784562765 0.43429408891060084
0.36219279899978574 0.4811919882755251 0.4323400097703958
0.36239148099957674 0.47239863214460187 0.42745481191988266
0.362587996000002 0.47239863214460187 0.4255007327796776
0.3627845849996447 0.47142159257449934 0.42452369320957506
0.3629801369997949 0.46946751343429405 0.4206155349291647
0.36320952200003376 0.47142159257449934 0.4176844162188569
0.36341435099984665 0.4733756717147044 0.42256961406936977
0.36361434799982817 0.4811919882755251 0.4186614557889594
0.3638116779993652 0.4851001465559355 0.4284318514899854
0.3640083219997905 0.49193942354665365 0.431362970200293
0.36420476300008886 0.4938935026868587 0.44211040547142155
0.3644033889995626 0.49877870053737183 0.44699560332193444
0.3646016080001573 0.512457254518808 0.4538348803126526
0.36480830799973774 0.512457254518808 0.45481191988275516
0.3650087669993809 0.5202735710796287 0.4557889594528579
0.3652089679999335 0.5212506106497312 0.4538348803126526
0.36540850099936506 0.524181729360039 0.44894968246213973
0.36560918299983314 0.522227650219834 0.4460185637518319
0.36580864200004726 0.522227650219834 0.4450415241817294
0.3660079159999441 0.522227650219834 0.44406448461162684
0.3662075049996929 0.5153883732291158 0.4450415241817294
0.36640783500024554 0.5065950170981925 0.4460185637518319
0.36660820199995214 0.495847581827064 0.45188080117244755
0.36680851300025097 0.4909623839765511 0.44699560332193444
0.3670712490002188 0.48216902784562765 0.44894968246213973
0.3672889489998852 0.4763067904250122 0.4450415241817294
0.367499148999741 0.4753297508549097 0.4460185637518319
0.3677167380001265 0.46946751343429405 0.4450415241817294
0.3679303640001308 0.46262823644357587 0.4450415241817294
0.3681716189994404 0.45481191988275516 0.4450415241817294
0.36839113299993187 0.4538348803126526 0.4450415241817294
0.3686241109999173 0.4333170493404983 0.44894968246213973
0.3689200130002064 0.4352711284807034 0.4538348803126526
0.3691458240000429 0.441133365901319 0.45676599902296044
0.36936448699998436 0.44406448461162684 0.45481191988275516
0.36958589000005304 0.4382022471910112 0.4587200781631655
0.36980790500001604 0.44406448461162684 0.45969711773326827
0.3700459559995579 0.44406448461162684 0.45481191988275516
0.37034272799974133 0.4430874450415241 0.4606741573033708
0.37060474200006865 0.43917928676111373 0.4587200781631655
0.37083253499986313 0.44211040547142155 0.45481191988275516
0.3710643819995312 0.44699560332193444 0.45188080117244755
0.37127695300023333 0.44211040547142155 0.45188080117244755
0.3714911529996243 0.44406448461162684 0.44992672203224227
0.371981051000148 0.4401563263312165 0.45188080117244755
0.3722088439999425 0.4323400097703958 0.45188080117244755
0.3724250799996298 0.41670737664875435 0.4636052760136786
0.3726338919996124 0.40009770395701016 0.4665363947239862
0.3728914049997911 0.38935026868588185 0.4704445530043966
0.37309419800021715 0.37469467513434296 0.47728382999511476
0.37329593499998737 0.3688324377137273 0.4753297508549097
0.3734981540001172 0.3659013190034197 0.4733756717147044
0.3737017060002472 0.3610161211529066 0.47142159257449934
0.37390503599999647 0.3610161211529066 0.47142159257449934
0.3741056250000838 0.3610161211529066 0.467513434294089
0.3743055289996846 0.3610161211529066 0.47142159257449934
0.3745057659998565 0.3659013190034197 0.47142159257449934
0.37474013199971523 0.3629702002931119 0.46946751343429405
0.374937998999485 0.36492427943331696 0.46946751343429405
0.3751349209996988 0.3629702002931119 0.4684904738641915
0.375331825000103 0.3639472398632144 0.4655593551538837
0.37552885900004185 0.36492427943331696 0.46458231558378116
0.3757257999996 0.36687835857352225 0.46262823644357587
0.37595681399943714 0.3688324377137273 0.45969711773326827
0.37616843999967386 0.37274059599413767 0.4636052760136786
0.37636747299984563 0.3786028334147533 0.4587200781631655
0.3765654329999961 0.3913043478260869 0.4557889594528579
0.376774280999598 0.4040058622374205 0.4509037616023448
0.3769723149998754 0.41670737664875435 0.44699560332193444
0.3771694959996239 0.431362970200293 0.4479726428920372
0.37736638200021844 0.4352711284807034 0.441133365901319
0.37756330399952276 0.44894968246213973 0.43917928676111373
0.3777598010001384 0.44699560332193444 0.43917928676111373
0.37795661200016184 0.4538348803126526 0.4382022471910112
0.37815410799976235 0.46262823644357587 0.441133365901319
0.37835162299961667 0.4636052760136786 0.4401563263312165
0.3785487679997459 0.47239863214460187 0.441133365901319
0.378747060999558 0.48216902784562765 0.4401563263312165
0.37894498300011037 0.48705422569614076 0.44406448461162684
0.37932419899971137 0.48998534440644836 0.44406448461162684
0.3795230099995024 0.4909623839765511 0.4450415241817294
0.3797196919995258 0.4851001465559355 0.4450415241817294
0.3799164109996127 0.47923790913532005 0.44406448461162684
0.38011392599946703 0.4753297508549097 0.44211040547142155
0.38031338499968115 0.47142159257449934 0.43917928676111373
0.3805098069997257 0.467513434294089 0.43722520762090866
0.3807163589999618 0.4665363947239862 0.4401563263312165
0.38093879999996716 0.46262823644357587 0.4401563263312165
0.38115353699959087 0.46946751343429405 0.44406448461162684
0.38136134799970023 0.47142159257449934 0.4509037616023448
0.3815718810001272 0.4763067904250122 0.4528578407425501
0.38179848799973115 0.4733756717147044 0.4528578407425501
0.3820165769993764 0.4802149487054226 0.45188080117244755
0.3822195920001832 0.4909623839765511 0.4460185637518319
0.3824185140001646 0.4909623839765511 0.44406448461162684
0.3826178439994692 0.4978016609672691 0.4401563263312165
0.3828184149997469 0.5017098192476794 0.4382022471910112
0.3830162260001089 0.5065950170981925 0.43624816805080613
0.3832141299999421 0.512457254518808 0.4401563263312165
0.3834104779998597 0.5192965315095261 0.4430874450415241
0.3836228629998004 0.5173424523693209 0.441133365901319
0.3838208039996971 0.5144113336590133 0.4382022471910112
0.38401698599955125 0.5144113336590133 0.4401563263312165
0.3842152420002094 0.5134342940889105 0.441133365901319
0.38441121999949246 0.5085490962383976 0.4382022471910112
0.38460793800004467 0.5105031753786029 0.43722520762090866
0.3848070829999415 0.5085490962383976 0.43429408891060084
0.38500350499998603 0.5144113336590133 0.43722520762090866
0.38520305800011556 0.5163654127992183 0.4352711284807034
0.38540081300016027 0.5192965315095261 0.43917928676111373
0.38559849499961274 0.524181729360039 0.4352711284807034
0.38579482499972073 0.5280898876404494 0.43429408891060084
0.3859922840001673 0.5202735710796287 0.43429408891060084
0.3861975949994303 0.5192965315095261 0.4430874450415241
0.3863957769999615 0.5056179775280898 0.4352711284807034
0.38659168100002717 0.495847581827064 0.441133365901319
0.3867881779997333 0.48705422569614076 0.44406448461162684
0.3869870259995878 0.4753297508549097 0.4538348803126526
0.38718339299975923 0.46165119687347334 0.44992672203224227
0.3873797779997403 0.457743038593063 0.44992672203224227
0.3875792379994891 0.44992672203224227 0.45188080117244755
0.38777617899995676 0.4460185637518319 0.4557889594528579
0.38797243399949366 0.43917928676111373 0.4538348803126526
0.3881686160002573 0.43624816805080613 0.4509037616023448
0.38836535300015385 0.4333170493404983 0.45481191988275516
0.3885617199994158 0.4333170493404983 0.4528578407425501
0.3887729569996736 0.4284318514899854 0.4509037616023448
0.38898967600016476 0.4264777723497801 0.44894968246213973
0.3892055979995348 0.42940889106008795 0.44406448461162684
0.38941540899941174 0.4303859306301905 0.44699560332193444
0.3896248490000289 0.43429408891060084 0.45188080117244755
0.3898233270001583 0.42940889106008795 0.44406448461162684
0.39001974999973754 0.4264777723497801 0.44406448461162684
0.3902171720001206 0.4323400097703958 0.4479726428920372
0.3904134839995095 0.42940889106008795 0.45188080117244755
0.3906100359999982 0.4303859306301905 0.4509037616023448
0.39080894000016997 0.4284318514899854 0.45481191988275516
0.39100673199936864 0.42452369320957506 0.4528578407425501
0.3912035619996459 0.4255007327796776 0.45481191988275516
0.39140026199947897 0.4255007327796776 0.4587200781631655
0.3915989629995238 0.4284318514899854 0.45969711773326827
0.39179616299952613 0.4284318514899854 0.4587200781631655
0.3919920849994014 0.42452369320957506 0.45969711773326827
0.39218850799989013 0.4235466536394723 0.4636052760136786
0.3923846709994905 0.4235466536394723 0.46458231558378116
0.3925807409996196 0.412799218368344 0.4636052760136786
0.39280038600008993 0.41182217879824123 0.46946751343429405
0.3929982529998597 0.4079140205178309 0.4655593551538837
0.39319604499996785 0.4108451392281387 0.467513434294089
0.39339263399961055 0.40986809965803617 0.4684904738641915
0.3935898720001205 0.40986809965803617 0.4684904738641915
0.3937874049997845 0.4040058622374205 0.4665363947239862
0.3939848459995119 0.4010747435271129 0.46458231558378116
0.3941817129998526 0.4010747435271129 0.467513434294089
0.3943783209997491 0.39716658524670256 0.4684904738641915
0.3945752989993707 0.38935026868588185 0.4684904738641915
0.394771498999944 0.38153395212506114 0.467513434294089
0.3949684029994387 0.3786028334147533 0.47239863214460187
0.395164603000012 0.3776257938446508 0.47142159257449934
0.3953617289998874 0.37176355642403514 0.4684904738641915
0.39555854099944554 0.3737176355642404 0.4684904738641915
0.3957557409994479 0.3737176355642404 0.4704445530043966
0.3959523300000001 0.37274059599413767 0.4704445530043966
0.3961495859994102 0.37274059599413767 0.4665363947239862
0.39640204399984214 0.38153395212506114 0.467513434294089
0.39663459599978523 0.3903273082559844 0.4606741573033708
0.3968920719999005 0.4059599413776258 0.45969711773326827
0.3971112350000112 0.42452369320957506 0.4528578407425501
0.39732539800024824 0.4264777723497801 0.45188080117244755
0.39753415399991354 0.4382022471910112 0.45188080117244755
0.3977522979994319 0.44992672203224227 0.4557889594528579
0.3979638310001974 0.45676599902296044 0.4450415241817294
0.3982001599997602 0.4636052760136786 0.44699560332193444
0.3984824519993708 0.4655593551538837 0.43917928676111373
0.3987361879999298 0.4704445530043966 0.43917928676111373
0.3990417200002412 0.4763067904250122 0.4382022471910112
0.39927904900014255 0.4704445530043966 0.4401563263312165
0.3995200629997271 0.4684904738641915 0.4401563263312165
0.39977215099952446 0.45969711773326827 0.4430874450415241
0.400067775000025 0.45969711773326827 0.4450415241817294
0.40058647000023484 0.44992672203224227 0.44406448461162684
0.40095753700006753 0.4430874450415241 0.4460185637518319
0.40124736599955213 0.43917928676111373 0.4450415241817294
0.40151899000011326 0.4382022471910112 0.4460185637518319
0.40173274599965225 0.43624816805080613 0.4450415241817294
0.4021375909997005 0.4450415241817294 0.4430874450415241
0.40237123499991867 0.4509037616023448 0.43722520762090866
0.40257456400013325 0.45676599902296044 0.43624816805080613
0.4027719679997972 0.4655593551538837 0.4323400097703958
0.402968761000011 0.4665363947239862 0.4255007327796776
0.4031650169999921 0.4733756717147044 0.4255007327796776
0.40336282799944456 0.4802149487054226 0.4255007327796776
0.40356689899999765 0.48705422569614076 0.4264777723497801
0.4037885239995376 0.49193942354665365 0.431362970200293
0.4040174649999244 0.5007327796775769 0.42745481191988266
0.40425001599942334 0.512457254518808 0.4303859306301905
0.4044679199996608 0.5183194919394236 0.42940889106008795
0.4047376369999256 0.5202735710796287 0.431362970200293
0.40495044799990865 0.5232046897899365 0.42940889106008795
0.4052350909996676 0.5261358085002443 0.4323400097703958
0.405488456999592 0.5271128480703469 0.4333170493404983
0.4057728589996259 0.5300439667806547 0.43722520762090866
0.4060262619996138 0.5290669272105519 0.4382022471910112
0.4063119239999651 0.5319980459208598 0.44699560332193444
0.4065626789997623 0.522227650219834 0.44699560332193444
0.4067610269994475 0.5173424523693209 0.4509037616023448
0.40695967200008454 0.5144113336590133 0.45188080117244755
0.4071587609996641 0.5056179775280898 0.4528578407425501
0.4073566649994973 0.5017098192476794 0.45481191988275516
0.40755621700009215 0.495847581827064 0.46165119687347334
0.40775339799984067 0.4880312652662433 0.46458231558378116
0.4079528949996529 0.4831460674157304 0.46262823644357587
0.40815107599974 0.47435271128480694 0.46165119687347334
0.4083485359997212 0.4665363947239862 0.4606741573033708
0.4085465509997448 0.46458231558378116 0.457743038593063
0.4088450089993785 0.457743038593063 0.45188080117244755
0.4090467269998044 0.4557889594528579 0.4450415241817294
0.40924974199970166 0.45676599902296044 0.441133365901319
0.4094471649996194 0.4587200781631655 0.43917928676111373
0.40964379100023507 0.46262823644357587 0.44211040547142155
0.40984349100017425 0.4636052760136786 0.44406448461162684
0.41004091299964784 0.45969711773326827 0.4450415241817294
0.4102378540001155 0.45676599902296044 0.4460185637518319
0.4104355919998852 0.4528578407425501 0.457743038593063
0.4106327549998241 0.45188080117244755 0.4538348803126526
0.41083173300012277 0.44992672203224227 0.4538348803126526
0.41102941400004056 0.44406448461162684 0.45969711773326827
0.41122652200010634 0.4450415241817294 0.4636052760136786
0.4114238519996434 0.4401563263312165 0.46165119687347334
0.41162666299987904 0.4401563263312165 0.46262823644357587
0.4118311590000303 0.431362970200293 0.4655593551538837
0.41202804499971535 0.4264777723497801 0.46946751343429405
0.4122256339996966 0.4206155349291647 0.47142159257449934
0.41242344500005856 0.41182217879824123 0.4704445530043966
0.41262210799959576 0.4079140205178309 0.4684904738641915
0.41284008599996014 0.4059599413776258 0.46946751343429405
0.41303817500011064 0.3952125061064973 0.4733756717147044
0.4132370050001555 0.3883732291157791 0.46946751343429405
0.4134340009995867 0.38739618954567656 0.4753297508549097
0.4136320719999276 0.38153395212506114 0.4763067904250122
0.4138313650000782 0.376648754274548 0.4763067904250122
0.4140282130001651 0.3737176355642404 0.4753297508549097
0.414224338999702 0.37957987298485585 0.4753297508549097
0.41442135399938707 0.3737176355642404 0.4733756717147044
0.4146178319997489 0.3756717147044455 0.47142159257449934
0.41481532899979356 0.3786028334147533 0.467513434294089
0.41501182499996503 0.3786028334147533 0.467513434294089
0.41522430299937696 0.38641914997557403 0.4655593551538837
0.4154260400000567 0.38153395212506114 0.4684904738641915
0.41562827699999616 0.3805569125549584 0.47142159257449934
0.415826663000189 0.3786028334147533 0.4684904738641915
0.4160237149999375 0.3776257938446508 0.46262823644357587
0.41622065599949565 0.3786028334147533 0.46262823644357587
0.41641748500023823 0.3786028334147533 0.4606741573033708
0.41661466699952143 0.38446507083536874 0.4538348803126526
0.4168242369996733 0.3913043478260869 0.44992672203224227
0.4170318629994654 0.40693698094772834 0.4430874450415241
0.41723450799963757 0.41963849535906195 0.4430874450415241
0.4174326160000419 0.42745481191988266 0.43624816805080613
0.41763138999976945 0.43429408891060084 0.44406448461162684
0.41782953399979306 0.44211040547142155 0.43722520762090866
0.41803106799943635 0.4479726428920372 0.43429408891060084
0.4182292499999676 0.44992672203224227 0.43917928676111373
0.41842639399965265 0.45969711773326827 0.4401563263312165
0.4186233350001203 0.4636052760136786 0.43624816805080613
0.41882005400020716 0.46458231558378116 0.4352711284807034
0.419017531999998 0.4684904738641915 0.43917928676111373
0.41921467700012727 0.4684904738641915 0.4382022471910112
0.4194120060001296 0.4655593551538837 0.4382022471910112
0.4196124290001535 0.4665363947239862 0.44894968246213973
0.4198109069993734 0.46458231558378116 0.43917928676111373
0.4200084029998834 0.4636052760136786 0.43917928676111373
0.420205380999505 0.46262823644357587 0.4430874450415241
0.4204021929999726 0.4684904738641915 0.4430874450415241
0.42059911500018643 0.46946751343429405 0.4460185637518319
0.4207992780002314 0.4733756717147044 0.4450415241817294
0.4209959780000645 0.4733756717147044 0.44406448461162684
0.4211934189997919 0.4753297508549097 0.44894968246213973
0.42139043399947695 0.4753297508549097 0.44699560332193444
0.42158813399964856 0.4763067904250122 0.44406448461162684
0.4217859270002009 0.4782608695652173 0.44406448461162684
0.42203149699980713 0.4802149487054226 0.44211040547142155
0.422233715999937 0.4851001465559355 0.4430874450415241
0.4224303049995797 0.48216902784562765 0.44211040547142155
0.4226278010000897 0.4831460674157304 0.4430874450415241
0.4228254640001978 0.4851001465559355 0.44211040547142155
0.4230229419999887 0.4851001465559355 0.4450415241817294
0.4232264940001187 0.4831460674157304 0.4479726428920372
0.4234406939995097 0.48412310698583294 0.44992672203224227
0.4236513019995982 0.486077186126038 0.44992672203224227
0.42386261299998296 0.4880312652662433 0.4479726428920372
0.4240709240002616 0.48705422569614076 0.4430874450415241
0.42427790199963056 0.4948705422569615 0.441133365901319
0.42448395300016273 0.4978016609672691 0.43429408891060084
0.42470657899957587 0.49682462139716654 0.4333170493404983
0.42490400199949363 0.5046409379579873 0.431362970200293
0.42510136799955944 0.5036638983878847 0.4303859306301905
0.4253012540002601 0.5065950170981925 0.4284318514899854
0.42549976899954345 0.5056179775280898 0.43429408891060084
0.4256983949999267 0.5065950170981925 0.4333170493404983
0.4258964279997599 0.5046409379579873 0.43722520762090866
0.4260966659994665 0.5065950170981925 0.43917928676111373
0.4262938470001245 0.5007327796775769 0.44992672203224227
0.42649221400006354 0.48998534440644836 0.4606741573033708
0.42668926599981205 0.48216902784562765 0.4684904738641915
0.42688567000004696 0.47435271128480694 0.46946751343429405
0.4270827589998589 0.4665363947239862 0.4753297508549097
0.4272802559999036 0.45969711773326827 0.4782608695652173
0.427477381999779 0.45676599902296044 0.47728382999511476
0.4276746750001621 0.4557889594528579 0.4733756717147044
0.42787135599974135 0.45188080117244755 0.4684904738641915
0.4280685940002513 0.4557889594528579 0.46262823644357587
0.42826558999968256 0.4587200781631655 0.457743038593063
0.42846401299993886 0.45676599902296044 0.4538348803126526
0.42869347099986044 0.45676599902296044 0.44894968246213973
0.4288942829998632 0.45969711773326827 0.441133365901319
0.42909116800001357 0.4606741573033708 0.43917928676111373
0.42928749800012156 0.46165119687347334 0.4352711284807034
0.42948440199961624 0.4665363947239862 0.4303859306301905
0.4296813060000204 0.4655593551538837 0.4303859306301905
0.42987956199976907 0.46165119687347334 0.43429408891060084
0.4300767619997714 0.457743038593063 0.43624816805080613
0.4302734619996045 0.457743038593063 0.43429408891060084
0.43047080999986065 0.45676599902296044 0.4382022471910112
0.43066865899982076 0.45188080117244755 0.44406448461162684
0.4308656739995058 0.44992672203224227 0.4479726428920372
0.43133577600019635 0.43917928676111373 0.44894968246213973
0.4315584759997364 0.4401563263312165 0.4509037616023448
0.4317584539994641 0.4333170493404983 0.45676599902296044
0.4319558400002279 0.431362970200293 0.45481191988275516
0.43215340999995533 0.4206155349291647 0.45676599902296044
0.4324115539993727 0.4108451392281387 0.4655593551538837
0.4326089389996923 0.4040058622374205 0.46946751343429405
0.43280839799990645 0.4010747435271129 0.467513434294089
0.4330060249994858 0.39228138739618945 0.4684904738641915
0.43320276199938235 0.38935026868588185 0.4665363947239862
0.4333993689997442 0.38446507083536874 0.4684904738641915
0.4335961070000849 0.3805569125549584 0.4704445530043966
0.43379293699945265 0.37469467513434296 0.46946751343429405
0.4339896920000683 0.37469467513434296 0.4684904738641915
0.4341856149994783 0.37274059599413767 0.46946751343429405
0.4343837779997557 0.3639472398632144 0.467513434294089
0.43458042299971567 0.358085002442599 0.47142159257449934
0.4347793079996336 0.3531998045920859 0.4733756717147044
0.4349762669999109 0.3502686858817783 0.4753297508549097
0.4351727449993632 0.3502686858817783 0.47435271128480694
0.4353703349997886 0.34733756717147046 0.47435271128480694
0.4355699050001931 0.34929164631167553 0.486077186126038
0.4357767530000274 0.34929164631167553 0.4753297508549097
0.4359738980001566 0.3551538837322912 0.4733756717147044
0.43617161699967255 0.36199316072300936 0.4665363947239862
0.4363688909998018 0.3659013190034197 0.4636052760136786
0.4365677389996563 0.38153395212506114 0.4636052760136786
0.43677301299976534 0.3952125061064973 0.45481191988275516
0.4369717319996198 0.40986809965803617 0.4509037616023448
0.4371687289994952 0.4235466536394723 0.4479726428920372
0.43736603999968793 0.43722520762090866 0.4450415241817294
0.43756257299992285 0.44894968246213973 0.4401563263312165
0.43776795899975696 0.4538348803126526 0.43917928676111373
0.4379673809999076 0.46165119687347334 0.441133365901319
0.43816419199993106 0.4684904738641915 0.43917928676111373
0.4383610039994892 0.47435271128480694 0.44211040547142155
0.4385575930000414 0.47728382999511476 0.4430874450415241
0.4387543490001917 0.48216902784562765 0.4430874450415241
0.4389513819996864 0.4831460674157304 0.4450415241817294
0.43914826799937146 0.4851001465559355 0.4450415241817294
0.43934622699998727 0.48412310698583294 0.44211040547142155
0.4395460199993977 0.4811919882755251 0.44211040547142155
0.43974246099969605 0.47923790913532005 0.441133365901319
0.4399398460000157 0.47142159257449934 0.441133365901319
0.44013674999951036 0.4684904738641915 0.441133365901319
0.44033354299972416 0.46946751343429405 0.44406448461162684
0.4405302799996207 0.4704445530043966 0.44992672203224227
0.44073901699994167 0.4753297508549097 0.4509037616023448
0.4409366800000498 0.47435271128480694 0.45481191988275516
0.441133305999756 0.4782608695652173 0.4538348803126526
0.44133126599990646 0.4802149487054226 0.4587200781631655
0.4415286510002261 0.4802149487054226 0.45481191988275516
0.441728165999848 0.4851001465559355 0.4538348803126526
0.4419247549994907 0.49193942354665365 0.44992672203224227
0.4421222700002545 0.495847581827064 0.4450415241817294
0.44232024800021463 0.5007327796775769 0.441133365901319
0.4425169489995824 0.5075720566682951 0.441133365901319
0.4427135559999442 0.5085490962383976 0.4352711284807034
0.4429101269997773 0.5105031753786029 0.4333170493404983
0.4431094569999914 0.5173424523693209 0.431362970200293
0.4433059160000994 0.5163654127992183 0.4333170493404983
0.4435025239999959 0.5173424523693209 0.431362970200293
0.4436989280002308 0.5114802149487054 0.42745481191988266
0.4438954979996197 0.5153883732291158 0.42745481191988266
0.4440939019996222 0.5114802149487054 0.4255007327796776
0.4442924730001323 0.5105031753786029 0.42452369320957506
0.4444887839999865 0.5105031753786029 0.4255007327796776
0.4446889659993758 0.5075720566682951 0.42940889106008795
0.44488981399990735 0.5095261358085001 0.4323400097703958
0.44508842100003676 0.5144113336590133 0.43429408891060084
0.4453079360000629 0.5144113336590133 0.43429408891060084
0.44551250699987577 0.5114802149487054 0.4352711284807034
0.4457116510002379 0.5114802149487054 0.4323400097703958
0.4459099989999231 0.5114802149487054 0.43429408891060084
0.4461097550001796 0.5065950170981925 0.43429408891060084
0.44630867799969565 0.49975574010747437 0.44211040547142155
0.44651026700012153 0.4880312652662433 0.4430874450415241
0.4467087259999971 0.4802149487054226 0.4450415241817294
0.4469075189999785 0.46946751343429405 0.4528578407425501
0.4471064600002137 0.4655593551538837 0.45188080117244755
0.44730404900019494 0.45676599902296044 0.4557889594528579
0.4475034709994361 0.46165119687347334 0.457743038593063
0.447703578999608 0.44992672203224227 0.45676599902296044
0.4479022420000547 0.4460185637518319 0.45676599902296044
0.44810075700024754 0.44699560332193444 0.457743038593063
0.4483092350001243 0.44406448461162684 0.4587200781631655
0.44850830499945005 0.44406448461162684 0.45481191988275516
0.4487121349993686 0.44406448461162684 0.45481191988275516
0.4489107609997518 0.4450415241817294 0.45481191988275516
0.4491093689994159 0.44992672203224227 0.45188080117244755
0.4493076609996933 0.44894968246213973 0.44992672203224227
0.4495059359996958 0.4509037616023448 0.45188080117244755
0.4497044689996983 0.45188080117244755 0.44894968246213973
0.44990331799999694 0.44992672203224227 0.44992672203224227
0.4501015549994918 0.4509037616023448 0.44992672203224227
