0 0.47923790913532005 0.44992672203224227
0.0016213039998547174 0.486077186126038 0.44992672203224227
0.0019876309997926 0.4851001465559355 0.4460185637518319
0.0022740519998478703 0.4880312652662433 0.4460185637518319
0.00257908299954579 0.4948705422569615 0.44992672203224227
0.0028064869993613684 0.4978016609672691 0.44992672203224227
0.0030301119995783665 0.5075720566682951 0.4509037616023448
0.003252460000112478 0.5056179775280898 0.4528578407425501
0.003484881999611389 0.5036638983878847 0.45188080117244755
0.003735952000170073 0.5036638983878847 0.45188080117244755
0.003972798999711813 0.5046409379579873 0.44992672203224227
0.0042030730000988115 0.5046409379579873 0.44992672203224227
0.004425328000252193 0.5056179775280898 0.44699560332193444
0.004626694999387837 0.5046409379579873 0.4528578407425501
0.004825840000194148 0.5007327796775769 0.4538348803126526
0.005025669999668025 0.5017098192476794 0.4528578407425501
0.005256813999949372 0.5017098192476794 0.45481191988275516
0.005467253999995592 0.49682462139716654 0.45481191988275516
0.005667120999532926 0.495847581827064 0.45481191988275516
0.005865469000127632 0.5007327796775769 0.45676599902296044
0.006138038999779383 0.495847581827064 0.4538348803126526
0.0063449049994233064 0.4929164631167562 0.4509037616023448
0.006547160999616608 0.4811919882755251 0.45188080117244755
0.006747917000211601 0.4753297508549097 0.4509037616023448
0.006947208999918075 0.467513434294089 0.44894968246213973
0.00714702099958231 0.4636052760136786 0.44699560332193444
0.007353201999649173 0.45676599902296044 0.4430874450415241
0.007569346999844129 0.4538348803126526 0.4382022471910112
0.007786101999954553 0.4509037616023448 0.43917928676111373
0.007997857000191289 0.4460185637518319 0.43624816805080613
0.008224039000197081 0.4450415241817294 0.4323400097703958
0.008441941999990377 0.4430874450415241 0.4352711284807034
0.008662438000101247 0.441133365901319 0.43624816805080613
0.008898952999516041 0.44211040547142155 0.441133365901319
0.009111948999816377 0.44699560332193444 0.4401563263312165
0.00932772299984208 0.44992672203224227 0.4430874450415241
0.0095577370002502 0.4479726428920372 0.4450415241817294
0.00977602900002239 0.44992672203224227 0.44699560332193444
0.00999833999958355 0.4528578407425501 0.4450415241817294
0.010289982999893255 0.4460185637518319 0.4509037616023448
0.010512071999983164 0.4450415241817294 0.4557889594528579
0.010789214999931573 0.4401563263312165 0.45969711773326827
0.011035488999368681 0.4382022471910112 0.46165119687347334
0.011269910000009986 0.4382022471910112 0.46262823644357587
0.011533034999956726 0.4352711284807034 0.46262823644357587
0.011868677000165917 0.4255007327796776 0.4655593551538837
0.0122604849993877 0.41963849535906195 0.4606741573033708
0.012659959999837156 0.4108451392281387 0.45969711773326827
0.013090321999698062 0.40009770395701016 0.4557889594528579
0.013455278999572329 0.3961895456765998 0.45481191988275516
0.013750199999776669 0.3932584269662922 0.4538348803126526
0.013984546999381564 0.3952125061064973 0.457743038593063
0.014316503999907582 0.38641914997557403 0.457743038593063
0.01455761099987285 0.38446507083536874 0.45676599902296044
0.01477521800006798 0.3854421104054715 0.4557889594528579
0.0149859369994374 0.3854421104054715 0.45676599902296044
0.015196618000118178 0.38641914997557403 0.457743038593063
0.015403762999994797 0.38641914997557403 0.4557889594528579
0.015636239999366808 0.3854421104054715 0.45676599902296044
0.015877383999395533 0.3834880312652662 0.4538348803126526
0.016091880000203673 0.38251099169516367 0.4538348803126526
0.016301247000228614 0.38153395212506114 0.45481191988275516
0.01650755799983017 0.3883732291157791 0.45188080117244755
0.016725757999665802 0.3961895456765998 0.45188080117244755
0.016957975999503105 0.40889106008793363 0.4528578407425501
0.01719997100008186 0.4206155349291647 0.44699560332193444
0.017446541000026627 0.4323400097703958 0.44992672203224227
0.017678369999885035 0.4430874450415241 0.4528578407425501
0.01789703299982648 0.4509037616023448 0.4538348803126526
0.018191213000136486 0.4538348803126526 0.4528578407425501
0.01842693100024917 0.46262823644357587 0.45481191988275516
0.01864346399997885 0.46262823644357587 0.44894968246213973
0.018864404999476392 0.4704445530043966 0.44894968246213973
0.01907323399973393 0.46946751343429405 0.44992672203224227
0.019289007999759633 0.46946751343429405 0.4509037616023448
0.019506171000102768 0.4684904738641915 0.4450415241817294
0.01972407499943074 0.4684904738641915 0.4460185637518319
0.01995023699964804 0.4704445530043966 0.44894968246213973
0.020174825999674795 0.47142159257449934 0.4460185637518319
0.020409839999956603 0.4733756717147044 0.44894968246213973
0.020704223999928217 0.4753297508549097 0.4528578407425501
0.020948626999597764 0.4782608695652173 0.4528578407425501
0.021238602999801515 0.47728382999511476 0.4528578407425501
0.02151483899979212 0.4851001465559355 0.45188080117244755
0.021799907999593415 0.4851001465559355 0.44992672203224227
0.02207608800017624 0.48705422569614076 0.44406448461162684
0.02231726899935893 0.48998534440644836 0.441133365901319
0.022538858000189066 0.49193942354665365 0.43917928676111373
0.022780853999393003 0.495847581827064 0.4382022471910112
0.02299983099965175 0.49877870053737183 0.43722520762090866
0.0232231239997418 0.5026868588177822 0.43624816805080613
0.023434509000253456 0.49877870053737183 0.4352711284807034
0.02364002400008758 0.5026868588177822 0.4352711284807034
0.02385431599941512 0.5046409379579873 0.43429408891060084
0.024059368000052928 0.5017098192476794 0.4333170493404983
0.02426730899969698 0.5036638983878847 0.4333170493404983
0.024479100999997172 0.5026868588177822 0.4323400097703958
0.02469887499955803 0.5026868588177822 0.4333170493404983
0.024909796999963874 0.5026868588177822 0.4352711284807034
0.025129329999799666 0.5017098192476794 0.4401563263312165
0.025380177999977604 0.5017098192476794 0.4430874450415241
0.025671931999568187 0.5007327796775769 0.4450415241817294
0.025897964999785472 0.5007327796775769 0.441133365901319
0.026123793999431655 0.49975574010747437 0.4401563263312165
0.026343660999373242 0.495847581827064 0.43722520762090866
0.02656026800013933 0.4880312652662433 0.4382022471910112
0.026771357000143325 0.47923790913532005 0.4401563263312165
0.026999464000255102 0.4704445530043966 0.441133365901319
0.027275180999822624 0.4665363947239862 0.44699560332193444
0.027511583999512368 0.45676599902296044 0.45188080117244755
0.027783079999608162 0.45188080117244755 0.4528578407425501
0.02807055599987507 0.44699560332193444 0.4538348803126526
0.02842084599978989 0.44406448461162684 0.45188080117244755
0.02885946799960948 0.441133365901319 0.4538348803126526
0.029402643000139506 0.44992672203224227 0.45481191988275516
0.029846284000086598 0.44894968246213973 0.4509037616023448
0.030128796999633778 0.4509037616023448 0.45188080117244755
0.03035347799959709 0.4450415241817294 0.4509037616023448
0.030578289000004588 0.44406448461162684 0.45188080117244755
0.030796618999374914 0.441133365901319 0.45188080117244755
0.031014948000120057 0.4401563263312165 0.45676599902296044
0.03132434999952238 0.43722520762090866 0.4538348803126526
0.03155225299997255 0.431362970200293 0.4557889594528579
0.03179322999949363 0.4303859306301905 0.45676599902296044
0.0320842069995706 0.42256961406936977 0.4557889594528579
0.03231316599976708 0.4157303370786516 0.4587200781631655
0.032534199000110675 0.40693698094772834 0.4587200781631655
0.032761564999418624 0.4079140205178309 0.45969711773326827
0.03300585699980729 0.39912066438690763 0.4606741573033708
0.03323151999939 0.3961895456765998 0.4587200781631655
0.03346832999977778 0.38935026868588185 0.4587200781631655
0.03370243700010178 0.38739618954567656 0.4606741573033708
0.03391998899951432 0.38446507083536874 0.47142159257449934
0.03418589200009592 0.38153395212506114 0.4606741573033708
0.03441131299950939 0.3776257938446508 0.46165119687347334
0.0346336060001704 0.376648754274548 0.4606741573033708
0.03487769399998797 0.376648754274548 0.457743038593063
0.03521442900000693 0.3805569125549584 0.4606741573033708
0.03545766499973979 0.3776257938446508 0.45969711773326827
0.03617970799950854 0.38446507083536874 0.457743038593063
0.03669482799978141 0.3981436248168051 0.45481191988275516
0.03697495300002629 0.4157303370786516 0.45676599902296044
0.037213429999610526 0.4264777723497801 0.457743038593063
0.0374559820002105 0.43917928676111373 0.46165119687347334
0.037695070000154374 0.45188080117244755 0.46165119687347334
0.037928103000012925 0.45481191988275516 0.46165119687347334
0.038214430999687465 0.46262823644357587 0.4538348803126526
0.038442352999481955 0.4665363947239862 0.4509037616023448
0.038667626999995264 0.46946751343429405 0.4460185637518319
0.0388915490002546 0.4733756717147044 0.44211040547142155
0.03911715599952004 0.47142159257449934 0.44211040547142155
0.03933766999944055 0.4684904738641915 0.4460185637518319
0.03959188799944968 0.46458231558378116 0.44894968246213973
0.03982429099960427 0.46165119687347334 0.4509037616023448
0.040068360999612196 0.4636052760136786 0.4528578407425501
0.0403244299996004 0.46458231558378116 0.45481191988275516
0.04064546199970209 0.4665363947239862 0.45676599902296044
0.040965901000163285 0.47239863214460187 0.4557889594528579
0.04128039499937586 0.4733756717147044 0.45676599902296044
0.041618684999775724 0.48216902784562765 0.4509037616023448
0.04212367599939171 0.48412310698583294 0.4382022471910112
0.04299875299966516 0.4978016609672691 0.4323400097703958
0.04342650499984302 0.4978016609672691 0.42940889106008795
0.04377362800005358 0.5017098192476794 0.4284318514899854
0.044150806999823544 0.5026868588177822 0.42745481191988266
0.0446356319998813 0.5036638983878847 0.431362970200293
0.045059364999360696 0.5085490962383976 0.43429408891060084
0.04544674699991447 0.5075720566682951 0.43624816805080613
0.045871497999542044 0.5007327796775769 0.43722520762090866
0.046379137999792874 0.495847581827064 0.441133365901319
0.04680979699969612 0.4782608695652173 0.4479726428920372
0.04720288199951028 0.467513434294089 0.44992672203224227
0.04767157799960842 0.45676599902296044 0.4509037616023448
0.04812973600019177 0.44699560332193444 0.45676599902296044
0.048561227999925904 0.4450415241817294 0.4606741573033708
0.04898316500020883 0.4460185637518319 0.4587200781631655
0.04948006399990845 0.4509037616023448 0.4655593551538837
0.049899685999662324 0.44894968246213973 0.4606741573033708
0.05021906899946771 0.4479726428920372 0.46262823644357587
0.0504501759996856 0.44894968246213973 0.4606741573033708
0.05066626499956328 0.44699560332193444 0.46165119687347334
0.05088855699978012 0.4430874450415241 0.457743038593063
0.05111403499995504 0.44211040547142155 0.45676599902296044
0.05135043799964478 0.4382022471910112 0.4557889594528579
0.051615932999993674 0.4323400097703958 0.45481191988275516
0.05182570699980715 0.4303859306301905 0.457743038593063
0.05203066699959891 0.4264777723497801 0.4538348803126526
0.052234810999834735 0.42452369320957506 0.4528578407425501
0.05244304799998645 0.41670737664875435 0.4538348803126526
0.05265387799954624 0.40986809965803617 0.4557889594528579
0.052880428999742435 0.40693698094772834 0.457743038593063
0.05310027699943021 0.40009770395701016 0.45676599902296044
0.05331243999989965 0.3952125061064973 0.45676599902296044
0.05353386200022214 0.38935026868588185 0.4557889594528579
0.05376698799955193 0.38739618954567656 0.4557889594528579
0.053983187999619986 0.3834880312652662 0.45481191988275516
0.05424423800013756 0.3854421104054715 0.4557889594528579
0.05449523399965983 0.38153395212506114 0.4587200781631655
0.05477978399994754 0.37957987298485585 0.46262823644357587
0.05506068700015021 0.3776257938446508 0.46458231558378116
0.05533842299973912 0.3776257938446508 0.4655593551538837
0.0556116399993698 0.3776257938446508 0.467513434294089
0.0558889129997624 0.3786028334147533 0.46458231558378116
0.056171389000155614 0.3834880312652662 0.46458231558378116
0.05644677300006151 0.3854421104054715 0.46165119687347334
0.056733471999905305 0.3932584269662922 0.46262823644357587
0.057006799999726354 0.4079140205178309 0.45969711773326827
0.0572717589993772 0.4206155349291647 0.4557889594528579
0.05756838300021627 0.4323400097703958 0.45481191988275516
0.057830785999613 0.4479726428920372 0.45481191988275516
0.05823659299949213 0.4538348803126526 0.44992672203224227
0.05859679100012727 0.46262823644357587 0.44992672203224227
0.058890100000098755 0.47142159257449934 0.4479726428920372
0.05916239199996198 0.4684904738641915 0.44894968246213973
0.05944079399978364 0.46458231558378116 0.44992672203224227
0.059708288999900105 0.467513434294089 0.44894968246213973
0.05997534000016458 0.4684904738641915 0.44992672203224227
0.06024898299983761 0.467513434294089 0.44992672203224227
0.06053986699953384 0.47239863214460187 0.4528578407425501
0.060838157999569376 0.47728382999511476 0.44699560332193444
0.06114078199971118 0.47728382999511476 0.44894968246213973
0.06141572199976508 0.47923790913532005 0.4538348803126526
0.06169825399956608 0.47923790913532005 0.44894968246213973
0.061972341999535274 0.4811919882755251 0.4528578407425501
0.062257947999569296 0.48900830483634583 0.44699560332193444
0.06253516499964462 0.4938935026868587 0.4430874450415241
0.06284586299989314 0.4978016609672691 0.4352711284807034
0.0631168579993755 0.5026868588177822 0.43429408891060084
0.06338640899957682 0.5026868588177822 0.43429408891060084
0.06366458899992722 0.49877870053737183 0.4333170493404983
0.06395441799941182 0.5046409379579873 0.4382022471910112
0.06427031899966096 0.49975574010747437 0.4401563263312165
0.06455564799944113 0.49877870053737183 0.43917928676111373
0.06484371700025804 0.4978016609672691 0.441133365901319
0.06512015599946608 0.5007327796775769 0.44406448461162684
0.06547327899988886 0.49877870053737183 0.4430874450415241
0.06596130799971434 0.49877870053737183 0.441133365901319
0.06659440800012817 0.4831460674157304 0.44406448461162684
0.06713582399970619 0.4684904738641915 0.4509037616023448
0.06748094700014917 0.45676599902296044 0.457743038593063
0.0677432200000112 0.45481191988275516 0.457743038593063
0.06797816099970078 0.44699560332193444 0.45676599902296044
0.06824324900026113 0.4479726428920372 0.45676599902296044
0.06849313299971982 0.4479726428920372 0.4538348803126526
0.06875538799977221 0.4450415241817294 0.45188080117244755
0.06903640099972108 0.4479726428920372 0.44211040547142155
0.06936882099944341 0.45188080117244755 0.441133365901319
0.0697505549997004 0.44894968246213973 0.43624816805080613
0.07016843699966557 0.44992672203224227 0.441133365901319
0.0705182080000668 0.4460185637518319 0.4509037616023448
0.07087520200002473 0.4450415241817294 0.45676599902296044
0.07114519700007804 0.44211040547142155 0.457743038593063
0.07141045200023655 0.44406448461162684 0.4606741573033708
0.0716582989998642 0.4352711284807034 0.4606741573033708
0.07192751599995972 0.431362970200293 0.4636052760136786
0.07223871499991219 0.42256961406936977 0.46262823644357587
0.07252393199996732 0.4137762579384465 0.46458231558378116
0.07280025999989448 0.4079140205178309 0.46262823644357587
0.07305803300005209 0.403028822667318 0.46262823644357587
0.07330764000016643 0.3981436248168051 0.4636052760136786
0.07358426500013593 0.39716658524670256 0.45969711773326827
0.07386829699953523 0.38935026868588185 0.4587200781631655
0.07413880999956746 0.39423546653639474 0.45969711773326827
0.07441600899983314 0.3854421104054715 0.4587200781631655
0.07470329999978276 0.38641914997557403 0.457743038593063
0.07498116599981586 0.3854421104054715 0.4557889594528579
0.07524310600001627 0.38251099169516367 0.4587200781631655
0.07552628600024036 0.3834880312652662 0.4587200781631655
0.07608099800017953 0.3834880312652662 0.457743038593063
0.0764502319998428 0.3834880312652662 0.4557889594528579
0.07671167199987394 0.3961895456765998 0.45481191988275516
0.07701542599988898 0.412799218368344 0.44992672203224227
0.07741104799970344 0.4333170493404983 0.44211040547142155
0.07774098699974274 0.4460185637518319 0.43624816805080613
0.07798626000021613 0.44894968246213973 0.4333170493404983
0.07822292299988476 0.4557889594528579 0.4352711284807034
0.07843158600007882 0.45969711773326827 0.4303859306301905
0.07863998999982869 0.46165119687347334 0.43429408891060084
0.0790910369996709 0.46458231558378116 0.4401563263312165
0.07941895699968882 0.46165119687347334 0.44406448461162684
0.07964976799939905 0.4636052760136786 0.4479726428920372
0.07987400499951036 0.4665363947239862 0.44894968246213973
0.08010546399964369 0.4655593551538837 0.45188080117244755
0.08034240399956616 0.467513434294089 0.44992672203224227
0.08056701099940256 0.4684904738641915 0.45188080117244755
0.08078548799949203 0.46946751343429405 0.4538348803126526
0.08103155800017703 0.47142159257449934 0.45188080117244755
0.0812530359999073 0.4733756717147044 0.45188080117244755
0.0814691989999119 0.47239863214460187 0.45676599902296044
0.0816942689998541 0.4753297508549097 0.4509037616023448
0.08191963499939448 0.4753297508549097 0.4538348803126526
0.08218253799986996 0.4802149487054226 0.4538348803126526
0.08240021900019201 0.4831460674157304 0.4557889594528579
0.08261810400017566 0.48900830483634583 0.45188080117244755
0.08284443299999111 0.4929164631167562 0.44992672203224227
0.0830650030002289 0.4938935026868587 0.44699560332193444
0.0832961099995373 0.495847581827064 0.44699560332193444
0.08351027299977432 0.49975574010747437 0.44406448461162684
0.08373217699954694 0.49975574010747437 0.4430874450415241
0.0839505249996364 0.5017098192476794 0.44211040547142155
0.08417094699962036 0.5046409379579873 0.4430874450415241
0.0844101459997546 0.5056179775280898 0.4450415241817294
0.08467028999984905 0.5065950170981925 0.4450415241817294
0.08490722999977152 0.5085490962383976 0.44211040547142155
0.0851298739999038 0.5095261358085001 0.4430874450415241
0.08534901799976069 0.5105031753786029 0.44211040547142155
0.08557179199942766 0.512457254518808 0.44211040547142155
0.08580782499939232 0.5105031753786029 0.4401563263312165
0.0860207289997561 0.5105031753786029 0.4450415241817294
0.08626785399974324 0.5046409379579873 0.441133365901319
0.08654636699975526 0.495847581827064 0.4430874450415241
0.08680408500003978 0.47923790913532005 0.4460185637518319
0.08706796899969049 0.467513434294089 0.44699560332193444
0.08733098299944686 0.457743038593063 0.44699560332193444
0.08761503400000947 0.4538348803126526 0.4509037616023448
0.08797069399952306 0.44406448461162684 0.44894968246213973
0.08831268799985992 0.4430874450415241 0.4509037616023448
0.08861934899960033 0.44211040547142155 0.4606741573033708
0.08891945499999565 0.4450415241817294 0.45481191988275516
0.08924267099973804 0.45188080117244755 0.457743038593063
0.08950494399960007 0.4538348803126526 0.4587200781631655
0.08972779199939396 0.4509037616023448 0.457743038593063
0.0899618069997814 0.44992672203224227 0.457743038593063
0.09024620899981528 0.44894968246213973 0.4557889594528579
0.09052114899986918 0.4460185637518319 0.457743038593063
0.09077705100025923 0.4450415241817294 0.45676599902296044
0.09104193599978316 0.4460185637518319 0.4587200781631655
0.09133869000015693 0.441133365901319 0.45676599902296044
0.09162859200023377 0.4382022471910112 0.45481191988275516
0.09189058699939778 0.43429408891060084 0.4557889594528579
0.09210078700016311 0.4333170493404983 0.45481191988275516
0.09230411699991237 0.4264777723497801 0.45188080117244755
0.09250803899976745 0.42256961406936977 0.44992672203224227
0.09271151699977054 0.4186614557889594 0.44992672203224227
0.09291438399941399 0.41475329750854906 0.44992672203224227
0.09311763899950165 0.4079140205178309 0.44992672203224227
0.09332100600022386 0.4040058622374205 0.44992672203224227
0.09352665099959268 0.3981436248168051 0.45481191988275516
0.09373207299995556 0.39716658524670256 0.45676599902296044
0.0939524759996857 0.38935026868588185 0.4587200781631655
0.0942368420001003 0.3805569125549584 0.4587200781631655
0.09447298600025533 0.37957987298485585 0.4606741573033708
0.09468631500021729 0.38153395212506114 0.4587200781631655
0.09488951499952236 0.37469467513434296 0.45676599902296044
0.09509180799977912 0.376648754274548 0.4528578407425501
0.09529413800009934 0.37274059599413767 0.45188080117244755
0.09549667099963699 0.37469467513434296 0.44894968246213973
0.09569909399942844 0.37274059599413767 0.4479726428920372
0.09590060800019273 0.37469467513434296 0.44894968246213973
0.09610353100015345 0.38153395212506114 0.4538348803126526
0.09630474899950059 0.3834880312652662 0.45481191988275516
0.09650689399950352 0.3883732291157791 0.457743038593063
0.09671061300014117 0.39716658524670256 0.4557889594528579
0.09691199799999595 0.4079140205178309 0.45481191988275516
0.09711878999951296 0.42256961406936977 0.45481191988275516
0.09732097199957934 0.431362970200293 0.4509037616023448
0.09752578299958259 0.43722520762090866 0.44699560332193444
0.09772946500015678 0.44699560332193444 0.44992672203224227
0.09793136899952515 0.45188080117244755 0.4430874450415241
0.09815721599989047 0.45676599902296044 0.4479726428920372
0.09837432399945101 0.46165119687347334 0.44406448461162684
0.09860422699966875 0.4655593551538837 0.4450415241817294
0.09883207500024582 0.4684904738641915 0.4479726428920372
0.09905284900014522 0.47142159257449934 0.4538348803126526
0.09931441800017637 0.467513434294089 0.45481191988275516
0.0995747279994248 0.4636052760136786 0.45676599902296044
0.09979491000012786 0.46458231558378116 0.4587200781631655
0.10001283200017497 0.4636052760136786 0.4587200781631655
0.10022299499996734 0.46458231558378116 0.46165119687347334
0.10043382399999246 0.4665363947239862 0.45969711773326827
0.10065054200003942 0.4684904738641915 0.46165119687347334
0.10085487200012722 0.4704445530043966 0.45969711773326827
0.10105712799941102 0.47239863214460187 0.4606741573033708
0.10125892099949851 0.47435271128480694 0.4587200781631655
0.10146189799979766 0.47728382999511476 0.457743038593063
0.10166448699965258 0.4763067904250122 0.45676599902296044
0.10186603900001501 0.4802149487054226 0.4557889594528579
0.10210251699936634 0.48412310698583294 0.45188080117244755
0.1023065499994118 0.4851001465559355 0.4528578407425501
0.10250865800026077 0.4909623839765511 0.45188080117244755
0.10271265400024276 0.4909623839765511 0.45188080117244755
0.10291461299948423 0.4938935026868587 0.44894968246213973
0.10311911000007967 0.495847581827064 0.44992672203224227
0.10332123599982879 0.49877870053737183 0.4479726428920372
0.10352354699989519 0.5036638983878847 0.4460185637518319
0.10372545100017305 0.5017098192476794 0.4460185637518319
0.10393040999952063 0.5007327796775769 0.4450415241817294
0.10413620300005277 0.5036638983878847 0.4460185637518319
0.10433818099954806 0.5065950170981925 0.4450415241817294
0.10454178799955116 0.5056179775280898 0.4460185637518319
0.10474395099936373 0.5065950170981925 0.44894968246213973
0.10494698499951483 0.5046409379579873 0.4460185637518319
0.10514936999970814 0.5065950170981925 0.4450415241817294
0.10535116299979563 0.5065950170981925 0.4430874450415241
0.10555451099935453 0.5085490962383976 0.4460185637518319
0.10575609999978042 0.5046409379579873 0.44406448461162684
0.10595837399978336 0.5036638983878847 0.4430874450415241
0.10617270300008386 0.5026868588177822 0.44406448461162684
0.10637479199976951 0.495847581827064 0.4430874450415241
0.10657654799979355 0.48998534440644836 0.4430874450415241
0.10677787799977523 0.47923790913532005 0.4430874450415241
0.1069793930000742 0.47435271128480694 0.4450415241817294
0.10718051899948478 0.4665363947239862 0.4430874450415241
0.1073859039997842 0.4606741573033708 0.44406448461162684
0.10758840099970257 0.45481191988275516 0.4401563263312165
0.10779032299979008 0.44894968246213973 0.441133365901319
0.10799505999966641 0.44699560332193444 0.43917928676111373
0.108196907999627 0.4450415241817294 0.4382022471910112
0.10839923799994722 0.44211040547142155 0.43624816805080613
0.10860162300014053 0.441133365901319 0.4333170493404983
0.1088026749994242 0.441133365901319 0.4323400097703958
0.10900337499970192 0.4430874450415241 0.431362970200293
0.10920485299993743 0.4460185637518319 0.431362970200293
0.10940901599951758 0.4450415241817294 0.43429408891060084
0.10961158699956286 0.44699560332193444 0.44211040547142155
0.10981397199975618 0.44894968246213973 0.441133365901319
0.11001524599942059 0.4460185637518319 0.4430874450415241
0.11022814999978436 0.4460185637518319 0.44699560332193444
0.11075499199978367 0.4430874450415241 0.44894968246213973
0.11109291199954896 0.43624816805080613 0.44894968246213973
0.11131477900016762 0.4333170493404983 0.44992672203224227
0.11152510800002347 0.43722520762090866 0.44992672203224227
0.11173645599956217 0.431362970200293 0.44992672203224227
0.1119407489995865 0.42745481191988266 0.44992672203224227
0.11214418999952613 0.42256961406936977 0.4528578407425501
0.11234538999997312 0.4186614557889594 0.45481191988275516
0.11254875699978584 0.41475329750854906 0.4557889594528579
0.11275123499945039 0.40889106008793363 0.457743038593063
0.1129540089996226 0.4059599413776258 0.4606741573033708
0.11315774600006989 0.40009770395701016 0.46165119687347334
0.11336126100013644 0.40009770395701016 0.46262823644357587
0.11356305400022393 0.3961895456765998 0.4655593551538837
0.11376547599957121 0.39228138739618945 0.46458231558378116
0.11396826899999724 0.3883732291157791 0.4636052760136786
0.1141968009997072 0.38641914997557403 0.4655593551538837
0.11439881600017543 0.3854421104054715 0.4636052760136786
0.11460121999971307 0.38446507083536874 0.4655593551538837
0.11480355000003328 0.38251099169516367 0.4636052760136786
0.11500524999974004 0.38251099169516367 0.4636052760136786
0.11520626499986975 0.38153395212506114 0.46262823644357587
0.1154081499998938 0.3854421104054715 0.46262823644357587
0.11562272099945403 0.38251099169516367 0.46165119687347334
0.11582816099962656 0.38446507083536874 0.4636052760136786
0.11603002799984097 0.3834880312652662 0.4655593551538837
0.11623111700009758 0.3834880312652662 0.4636052760136786
0.11643194699991 0.38641914997557403 0.4665363947239862
0.11663207299989153 0.3932584269662922 0.46458231558378116
0.11683297699983086 0.4049829018075233 0.46946751343429405
0.11703406600008748 0.4108451392281387 0.46165119687347334
0.11723658099981549 0.42159257449926724 0.457743038593063
0.11745516900009534 0.431362970200293 0.457743038593063
0.11765759199988679 0.4382022471910112 0.45481191988275516
0.1178597179996359 0.44699560332193444 0.4528578407425501
0.11808414000006451 0.4538348803126526 0.44894968246213973
0.11832969099941693 0.45676599902296044 0.4509037616023448
0.11857181599953037 0.4587200781631655 0.45188080117244755
0.11880027499955759 0.467513434294089 0.4538348803126526
0.11902427099994384 0.46946751343429405 0.4538348803126526
0.1192632849997608 0.4655593551538837 0.45481191988275516
0.11963642699993216 0.46458231558378116 0.4557889594528579
0.11985420099972544 0.4655593551538837 0.4557889594528579
0.12006367899994075 0.4655593551538837 0.457743038593063
0.1202744709999024 0.4684904738641915 0.4509037616023448
0.12048833799963177 0.4704445530043966 0.4509037616023448
0.12071635199936281 0.47435271128480694 0.44992672203224227
0.1209362190002139 0.4763067904250122 0.4460185637518319
0.12117282599956525 0.47923790913532005 0.44699560332193444
0.12140648799959308 0.4811919882755251 0.44699560332193444
0.12162276199978805 0.4811919882755251 0.44699560332193444
0.12184329499996238 0.48705422569614076 0.4479726428920372
0.1221319569995103 0.48705422569614076 0.44699560332193444
0.12236771199968643 0.4929164631167562 0.44699560332193444
0.12259350400017865 0.4929164631167562 0.4460185637518319
0.12281424100001459 0.49682462139716654 0.441133365901319
0.12303144099951169 0.5026868588177822 0.4382022471910112
0.1232429179999599 0.5017098192476794 0.43624816805080613
0.12345637799990072 0.5036638983878847 0.4333170493404983
0.12366802199994709 0.5036638983878847 0.42940889106008795
0.12388985100005812 0.5036638983878847 0.4264777723497801
0.12411203299961926 0.5056179775280898 0.4264777723497801
0.12431958399974974 0.5065950170981925 0.42940889106008795
0.12454078399969148 0.5065950170981925 0.431362970200293
0.12477231699995173 0.5095261358085001 0.43624816805080613
0.12499134999961825 0.5056179775280898 0.4382022471910112
0.12520742000015161 0.5075720566682951 0.4401563263312165
0.1254210460001559 0.512457254518808 0.4430874450415241
0.1256360789993778 0.5065950170981925 0.4450415241817294
0.1258501869997417 0.5085490962383976 0.4460185637518319
0.12611451500015392 0.5065950170981925 0.44699560332193444
0.12633608599935542 0.49682462139716654 0.44992672203224227
0.1265533409996351 0.48900830483634583 0.45188080117244755
0.1267821699993874 0.47728382999511476 0.45676599902296044
0.12703573999988294 0.46946751343429405 0.45481191988275516
0.12726497599942377 0.4636052760136786 0.4528578407425501
0.1274837689998094 0.45481191988275516 0.45188080117244755
0.12769713499983482 0.45188080117244755 0.4528578407425501
0.12791018699954293 0.4460185637518319 0.4509037616023448
0.12812870200014004 0.4450415241817294 0.4538348803126526
0.12833317999957217 0.4450415241817294 0.45481191988275516
0.1285348609999346 0.44211040547142155 0.4538348803126526
0.1287373019995357 0.4401563263312165 0.45481191988275516
0.12893959499979246 0.44211040547142155 0.4528578407425501
0.1291424430000916 0.44406448461162684 0.4538348803126526
0.12934384700020018 0.4479726428920372 0.4538348803126526
0.1295445469995684 0.44699560332193444 0.45188080117244755
0.12974591399961355 0.4460185637518319 0.4509037616023448
0.12994920599976467 0.4450415241817294 0.4538348803126526
0.1301722019998124 0.4430874450415241 0.4557889594528579
0.13037734699992143 0.44406448461162684 0.4538348803126526
0.13057862099958584 0.44406448461162684 0.4509037616023448
0.13078524699994887 0.43917928676111373 0.45188080117244755
0.13099533599961433 0.43624816805080613 0.44992672203224227
0.13119870299942704 0.4333170493404983 0.44992672203224227
0.13140042099985294 0.43429408891060084 0.4528578407425501
0.13160378799966566 0.4352711284807034 0.4528578407425501
0.13180534000002808 0.4264777723497801 0.457743038593063
0.1320073360002425 0.42452369320957506 0.45676599902296044
0.1322114619997592 0.4206155349291647 0.45676599902296044
0.1324124960001427 0.41475329750854906 0.4636052760136786
0.13261401099953218 0.4079140205178309 0.457743038593063
0.13281610000012734 0.4049829018075233 0.45481191988275516
0.1330175409993899 0.4010747435271129 0.4538348803126526
0.13321911099956196 0.39716658524670256 0.45188080117244755
0.13342097799977637 0.39716658524670256 0.44894968246213973
0.13362245600001188 0.3903273082559844 0.4479726428920372
0.13382489699961297 0.38935026868588185 0.44699560332193444
0.1340277259996583 0.38739618954567656 0.44992672203224227
0.13424588899943046 0.3854421104054715 0.44992672203224227
0.13447668099979637 0.3854421104054715 0.4509037616023448
0.1346885109996947 0.3834880312652662 0.4509037616023448
0.13489800699971966 0.38251099169516367 0.4538348803126526
0.1351193919999787 0.37957987298485585 0.45481191988275516
0.13533937000011065 0.3805569125549584 0.4557889594528579
0.13556140299988328 0.3834880312652662 0.4557889594528579
0.13578221399984614 0.38935026868588185 0.45676599902296044
0.1360053019998304 0.38446507083536874 0.45481191988275516
0.13623733500025992 0.38739618954567656 0.45676599902296044
0.13646205399982136 0.38935026868588185 0.45676599902296044
0.1366899939994255 0.3981436248168051 0.4557889594528579
0.13690456399945106 0.40693698094772834 0.4528578407425501
0.13712676399973134 0.4206155349291647 0.4528578407425501
0.13735133399950428 0.431362970200293 0.4557889594528579
0.13761208899995836 0.4430874450415241 0.4557889594528579
0.1378794909996941 0.44894968246213973 0.45676599902296044
0.1382134670002415 0.46165119687347334 0.457743038593063
0.13849714699972537 0.4606741573033708 0.457743038593063
0.13885597399985272 0.4655593551538837 0.45676599902296044
0.1392903739997564 0.4636052760136786 0.45969711773326827
0.13968421800018405 0.46262823644357587 0.45969711773326827
0.14008039700001973 0.46458231558378116 0.457743038593063
0.1406182020000415 0.46946751343429405 0.4557889594528579
0.14111185999990994 0.47728382999511476 0.44992672203224227
0.14145516799999314 0.48216902784562765 0.44699560332193444
0.14176644100007252 0.486077186126038 0.4430874450415241
0.14202504700006102 0.486077186126038 0.44406448461162684
0.14229654199971264 0.4929164631167562 0.44406448461162684
0.14253644499967777 0.495847581827064 0.44211040547142155
0.14285318099973665 0.49975574010747437 0.441133365901319
0.14327050700012478 0.5007327796775769 0.441133365901319
0.14351042799989955 0.5017098192476794 0.4382022471910112
0.14372081300007267 0.5036638983878847 0.43722520762090866
0.1439470129998881 0.5046409379579873 0.4382022471910112
0.14420148999943194 0.5056179775280898 0.4382022471910112
0.14445467099994858 0.5026868588177822 0.43917928676111373
0.1447186099994724 0.5056179775280898 0.43722520762090866
0.14495342099962727 0.5017098192476794 0.4333170493404983
0.1451733059993785 0.5036638983878847 0.4333170493404983
0.14538344999982655 0.5036638983878847 0.4303859306301905
0.14561451999998098 0.5036638983878847 0.42940889106008795
0.14583910900000774 0.5026868588177822 0.4284318514899854
0.1461202519994913 0.5007327796775769 0.431362970200293
0.14647439399959694 0.48900830483634583 0.43917928676111373
0.14685184999962075 0.4753297508549097 0.44699560332193444
0.14715828899988992 0.46458231558378116 0.44992672203224227
0.1474021919993902 0.4587200781631655 0.4509037616023448
0.14762740999958623 0.4538348803126526 0.4528578407425501
0.1478463510002257 0.4528578407425501 0.4528578407425501
0.1480490699996153 0.44894968246213973 0.45481191988275516
0.14825099199970282 0.4479726428920372 0.4557889594528579
0.14845337699989614 0.44406448461162684 0.4538348803126526
0.14865485500013165 0.4430874450415241 0.45676599902296044
0.14885664800021914 0.44406448461162684 0.45481191988275516
0.14905827399979898 0.4430874450415241 0.4528578407425501
0.1492601959998865 0.4479726428920372 0.45481191988275516
0.14946221099944523 0.4479726428920372 0.457743038593063
0.1496632629996384 0.44699560332193444 0.457743038593063
0.14986496300025465 0.44894968246213973 0.45481191988275516
0.15009373700013384 0.44894968246213973 0.457743038593063
0.15030019599998923 0.44992672203224227 0.457743038593063
0.15050178499950562 0.44992672203224227 0.4557889594528579
0.1507045959997413 0.44894968246213973 0.45481191988275516
0.1509062229997653 0.44406448461162684 0.45188080117244755
0.1511102189997473 0.44211040547142155 0.4509037616023448
0.15132132599956094 0.43917928676111373 0.4538348803126526
0.15153735900003085 0.4352711284807034 0.45481191988275516
0.151756430000205 0.431362970200293 0.4587200781631655
0.1519754439996177 0.4264777723497801 0.46165119687347334
0.15223980999962805 0.4176844162188569 0.46262823644357587
0.15251258299940673 0.412799218368344 0.4665363947239862
0.15273570799945446 0.412799218368344 0.46458231558378116
0.15296735299943975 0.40009770395701016 0.46458231558378116
0.15323347699995793 0.39716658524670256 0.46458231558378116
0.15352793500005646 0.3952125061064973 0.4587200781631655
0.1538127080002596 0.38641914997557403 0.46165119687347334
0.15411712799959787 0.38446507083536874 0.46165119687347334
0.15433984699939174 0.38251099169516367 0.4606741573033708
0.15454721300011443 0.3834880312652662 0.45969711773326827
0.15474894999988464 0.3805569125549584 0.4606741573033708
0.15495242799988773 0.3805569125549584 0.46165119687347334
0.1551560170000812 0.38251099169516367 0.45969711773326827
0.15536780999991606 0.3805569125549584 0.45969711773326827
0.15559006500006944 0.3834880312652662 0.4606741573033708
0.15579400600017834 0.38153395212506114 0.45969711773326827
0.15600868699948478 0.38446507083536874 0.4587200781631655
0.1562098499998683 0.38641914997557403 0.45969711773326827
0.15641047600001912 0.38935026868588185 0.4557889594528579
0.15661126899976807 0.3913043478260869 0.4587200781631655
0.15681265399962285 0.40889106008793363 0.45481191988275516
0.15701790999992227 0.4157303370786516 0.4538348803126526
0.15721912899971358 0.42159257449926724 0.44992672203224227
0.15742390299965336 0.4323400097703958 0.4479726428920372
0.15762693599936028 0.4401563263312165 0.4460185637518319
0.15783665500021016 0.4479726428920372 0.44894968246213973
0.15803883599983237 0.4538348803126526 0.44699560332193444
0.15827103599986003 0.4587200781631655 0.44699560332193444
0.15847475499958819 0.4606741573033708 0.4479726428920372
0.15867717699984496 0.46458231558378116 0.4460185637518319
0.1588785439998901 0.4704445530043966 0.4430874450415241
0.15908398400006263 0.4655593551538837 0.441133365901319
0.159286480999981 0.4684904738641915 0.43917928676111373
0.15949206999994203 0.46946751343429405 0.4401563263312165
0.15969463999954314 0.46946751343429405 0.43722520762090866
0.1598984329993982 0.4733756717147044 0.43624816805080613
0.16010024400020484 0.47239863214460187 0.4382022471910112
0.1603105369995319 0.4733756717147044 0.43722520762090866
0.16051327399964066 0.4782608695652173 0.4382022471910112
0.16071725199981302 0.4782608695652173 0.44211040547142155
0.16091895199951978 0.47923790913532005 0.44699560332193444
0.16112085599979764 0.4802149487054226 0.4460185637518319
0.1613224259999697 0.4811919882755251 0.44992672203224227
0.16152488499938045 0.4851001465559355 0.44992672203224227
0.1617267339997852 0.48412310698583294 0.44992672203224227
0.16192821200002072 0.4851001465559355 0.44992672203224227
0.162132114999622 0.4880312652662433 0.44992672203224227
0.16233570399981545 0.48998534440644836 0.44992672203224227
0.16253840399986075 0.495847581827064 0.44699560332193444
0.16274053100005403 0.49682462139716654 0.4479726428920372
0.1629425450000781 0.5026868588177822 0.44699560332193444
0.16314405999946757 0.5017098192476794 0.44992672203224227
0.16334592699968198 0.5026868588177822 0.4479726428920372
0.16354840500025603 0.5046409379579873 0.44992672203224227
0.1637503089996244 0.5007327796775769 0.4479726428920372
0.16395169399947918 0.5007327796775769 0.44699560332193444
0.1641531719997147 0.5017098192476794 0.4479726428920372
0.16435448299944255 0.49682462139716654 0.45188080117244755
0.16455694300020696 0.5017098192476794 0.4460185637518319
0.16475897599957534 0.49877870053737183 0.4479726428920372
0.16496058400025504 0.5026868588177822 0.4450415241817294
0.1651615619994118 0.49975574010747437 0.44211040547142155
0.16536318799990113 0.49682462139716654 0.4401563263312165
0.16556523999952333 0.5007327796775769 0.4382022471910112
0.16576782899937825 0.4948705422569615 0.43722520762090866
0.16596921400014253 0.495847581827064 0.4401563263312165
0.16617889499957528 0.4938935026868587 0.4382022471910112
0.16638105799938785 0.4909623839765511 0.43917928676111373
0.166583146999983 0.48412310698583294 0.44406448461162684
0.16678621800019755 0.4782608695652173 0.44699560332193444
0.16698806600015814 0.4665363947239862 0.4509037616023448
0.1671895069994207 0.4636052760136786 0.4538348803126526
0.1673909109995293 0.4636052760136786 0.45481191988275516
0.16759181499946862 0.45481191988275516 0.4528578407425501
0.16779347800002142 0.45188080117244755 0.4509037616023448
0.16799493700000312 0.457743038593063 0.45188080117244755
0.16819702599968878 0.4509037616023448 0.44699560332193444
0.16839879999952245 0.4509037616023448 0.44699560332193444
0.16860022299988486 0.4509037616023448 0.44699560332193444
0.1688019040002473 0.4509037616023448 0.44992672203224227
0.16900378899936186 0.45188080117244755 0.45188080117244755
0.16920502699940698 0.4528578407425501 0.45188080117244755
0.16940763399998104 0.45676599902296044 0.45481191988275516
0.16960922299949743 0.4538348803126526 0.45676599902296044
0.16981038599988096 0.4509037616023448 0.45676599902296044
0.17001262299982045 0.4479726428920372 0.46262823644357587
0.17021515699980228 0.44699560332193444 0.4587200781631655
0.17041713500020705 0.4460185637518319 0.45969711773326827
0.17061885299972346 0.44406448461162684 0.457743038593063
0.17082118300004367 0.4401563263312165 0.45676599902296044
0.1710232539999197 0.4382022471910112 0.45481191988275516
0.1712240090000705 0.4382022471910112 0.45188080117244755
0.1714251349994811 0.4401563263312165 0.45188080117244755
0.1716261689998646 0.43624816805080613 0.4509037616023448
0.17182727599993086 0.4333170493404983 0.44992672203224227
0.1720294950000607 0.42745481191988266 0.44992672203224227
0.17223145400021167 0.4206155349291647 0.44894968246213973
0.17243328399945312 0.41182217879824123 0.4479726428920372
0.17263481699956174 0.403028822667318 0.4479726428920372
0.1728362579997338 0.40009770395701016 0.4479726428920372
0.17303771800015966 0.39716658524670256 0.4509037616023448
0.17340850700020383 0.3903273082559844 0.45188080117244755
0.1736258179998913 0.38739618954567656 0.46165119687347334
0.17382963000000018 0.38641914997557403 0.4557889594528579
0.1740327930001513 0.38446507083536874 0.457743038593063
0.174251806999564 0.3834880312652662 0.4587200781631655
0.1744528409999475 0.3805569125549584 0.457743038593063
0.17465354100022523 0.3805569125549584 0.46165119687347334
0.17485603699969943 0.3854421104054715 0.46262823644357587
0.1750578109995331 0.37957987298485585 0.46262823644357587
0.1752616779995151 0.37957987298485585 0.46165119687347334
0.1754673969999203 0.38251099169516367 0.46165119687347334
0.17567000399958488 0.37957987298485585 0.46165119687347334
0.17587125999943964 0.37957987298485585 0.4606741573033708
0.17607407099967531 0.37957987298485585 0.4606741573033708
0.17627502999948774 0.38251099169516367 0.4587200781631655
0.17647554499944818 0.38446507083536874 0.4587200781631655
0.17667739399985294 0.3932584269662922 0.45676599902296044
0.17687840899998264 0.4040058622374205 0.4538348803126526
0.17708033100007015 0.41475329750854906 0.4538348803126526
0.17728393800007325 0.4264777723497801 0.4528578407425501
0.1775078599994231 0.4333170493404983 0.44992672203224227
0.17770989400014514 0.4450415241817294 0.4509037616023448
0.17791144599959807 0.4509037616023448 0.44992672203224227
0.17811518300004536 0.4557889594528579 0.4479726428920372
0.17831910499990045 0.46165119687347334 0.44894968246213973
0.17852058300013596 0.4636052760136786 0.4450415241817294
0.1787221349995889 0.46946751343429405 0.44699560332193444
0.17892461300016294 0.4704445530043966 0.44992672203224227
0.17912583199995424 0.4733756717147044 0.4509037616023448
0.17932925399964006 0.47142159257449934 0.4509037616023448
0.17953047299943137 0.47435271128480694 0.44992672203224227
0.17973198700019566 0.4753297508549097 0.4479726428920372
0.17993709500024124 0.47435271128480694 0.4479726428920372
0.18013857299956726 0.4753297508549097 0.45188080117244755
0.18034062500009895 0.47435271128480694 0.4509037616023448
0.18054252899946732 0.4811919882755251 0.45188080117244755
0.18074367299959704 0.4831460674157304 0.4528578407425501
0.18094487300004403 0.4802149487054226 0.44992672203224227
0.18114668499947584 0.4811919882755251 0.4479726428920372
0.18136129199956486 0.4811919882755251 0.44699560332193444
0.18157132499982254 0.4851001465559355 0.4460185637518319
0.1817744509999102 0.48705422569614076 0.44211040547142155
0.18197628100006114 0.4909623839765511 0.4382022471910112
0.1821855179996419 0.4938935026868587 0.44406448461162684
0.1823877739998352 0.49877870053737183 0.44211040547142155
0.18259039999975357 0.5017098192476794 0.441133365901319
0.18279478499971447 0.5065950170981925 0.441133365901319
0.1829961519997596 0.5095261358085001 0.43917928676111373
0.18319764799980476 0.5065950170981925 0.441133365901319
0.18339912600004027 0.5105031753786029 0.44211040547142155
0.18360221500006446 0.5065950170981925 0.4460185637518319
0.1838039710000885 0.5056179775280898 0.4460185637518319
0.18400989299971116 0.5026868588177822 0.44992672203224227
0.18421181499979866 0.5007327796775769 0.45188080117244755
0.18441295999946306 0.5026868588177822 0.4460185637518319
0.18461491899961402 0.5007327796775769 0.44894968246213973
0.18481649000023026 0.5056179775280898 0.44699560332193444
0.18501794900021196 0.5007327796775769 0.44699560332193444
0.18521890800002438 0.5036638983878847 0.4460185637518319
0.18541983100021753 0.5017098192476794 0.4460185637518319
0.1856215309999243 0.5026868588177822 0.4460185637518319
0.18582239799980016 0.5026868588177822 0.44699560332193444
0.1860244680001415 0.5056179775280898 0.44699560332193444
0.18622738999965804 0.5036638983878847 0.44699560332193444
0.18643083099959767 0.495847581827064 0.44894968246213973
0.18663262399968517 0.486077186126038 0.45188080117244755
0.1868361199994979 0.47923790913532005 0.4509037616023448
0.18703852399994503 0.47239863214460187 0.4528578407425501
0.18724052099969413 0.4655593551538837 0.4538348803126526
0.18744153599982383 0.4636052760136786 0.4538348803126526
0.18764221699984773 0.45676599902296044 0.4528578407425501
0.1878437320001467 0.44992672203224227 0.4528578407425501
0.18804554300004384 0.4450415241817294 0.4528578407425501
0.18824689199936984 0.4460185637518319 0.44992672203224227
0.1884495180001977 0.44406448461162684 0.4528578407425501
0.18865068099967175 0.44406448461162684 0.4557889594528579
0.18885402900014014 0.4450415241817294 0.4538348803126526
0.18906187699940347 0.44406448461162684 0.45188080117244755
0.1892653180002526 0.4509037616023448 0.4538348803126526
0.18946668499938824 0.44992672203224227 0.4509037616023448
0.18966836599975068 0.4528578407425501 0.44992672203224227
0.18986976999985927 0.45188080117244755 0.4479726428920372
0.1900870629997371 0.45188080117244755 0.4460185637518319
0.19028952200005733 0.45188080117244755 0.44699560332193444
0.1904918149994046 0.44894968246213973 0.4430874450415241
0.19069338499957666 0.4460185637518319 0.4430874450415241
0.19089593699936813 0.4450415241817294 0.4401563263312165
0.19109839599968836 0.44211040547142155 0.4460185637518319
0.19131233699954464 0.4382022471910112 0.43917928676111373
0.19152409300022555 0.4352711284807034 0.44406448461162684
0.1917314960001022 0.4333170493404983 0.44211040547142155
0.19193325200012623 0.42745481191988266 0.4450415241817294
0.19213906299955852 0.42256961406936977 0.44699560332193444
0.19234270800006925 0.41475329750854906 0.4479726428920372
0.19254975900003046 0.40889106008793363 0.44992672203224227
0.19275551499958965 0.403028822667318 0.4538348803126526
0.19295810399944457 0.39912066438690763 0.4557889594528579
0.19316143400010333 0.3981436248168051 0.46165119687347334
0.1933639859998948 0.3913043478260869 0.4606741573033708
0.19356605600023613 0.3903273082559844 0.45969711773326827
0.1937667379997947 0.38446507083536874 0.46165119687347334
0.19396867900013604 0.3854421104054715 0.46458231558378116
0.19418787799986603 0.37957987298485585 0.4636052760136786
0.19438924499991117 0.3776257938446508 0.46458231558378116
0.19459440799982985 0.376648754274548 0.46165119687347334
0.19479547899936733 0.376648754274548 0.46262823644357587
0.1949966599995605 0.3776257938446508 0.45969711773326827
0.1951975459996902 0.376648754274548 0.45969711773326827
0.19539891200020065 0.3776257938446508 0.45969711773326827
0.19559985300020344 0.3786028334147533 0.4606741573033708
0.19580127599965635 0.3883732291157791 0.45676599902296044
0.1960023829997226 0.38446507083536874 0.4606741573033708
0.19620308300000033 0.38641914997557403 0.45969711773326827
0.19640439500017237 0.38739618954567656 0.4636052760136786
0.19660578000002715 0.39912066438690763 0.4636052760136786
0.19680733199948008 0.4040058622374205 0.45969711773326827
0.19701636499939923 0.4176844162188569 0.45676599902296044
0.19721889899938105 0.4255007327796776 0.457743038593063
0.19742061699980695 0.4352711284807034 0.457743038593063
0.19762285399974644 0.44406448461162684 0.4587200781631655
0.1978255359999821 0.44992672203224227 0.4557889594528579
0.19802734699987923 0.4557889594528579 0.4538348803126526
0.19823108399941702 0.45969711773326827 0.45481191988275516
0.19843295099963143 0.46165119687347334 0.4557889594528579
0.19863690999954997 0.4655593551538837 0.4538348803126526
0.1988395179996587 0.47142159257449934 0.4538348803126526
0.19904108799983078 0.4684904738641915 0.4528578407425501
0.19924352899943187 0.46946751343429405 0.45481191988275516
0.19944830299937166 0.4684904738641915 0.45188080117244755
0.19964991100005136 0.4684904738641915 0.44992672203224227
0.19985264800016012 0.4733756717147044 0.4509037616023448
0.20005447799940157 0.4704445530043966 0.44992672203224227
0.2002579190002507 0.4704445530043966 0.45188080117244755
0.2004592479997882 0.47142159257449934 0.4509037616023448
0.20066074499936803 0.47435271128480694 0.4509037616023448
0.2008623149995401 0.4704445530043966 0.4538348803126526
0.20106308999947942 0.46946751343429405 0.4557889594528579
0.20126417899973603 0.47239863214460187 0.45676599902296044
0.20146545299940044 0.47239863214460187 0.45481191988275516
0.20191196299947478 0.4753297508549097 0.4538348803126526
0.20215864399960992 0.47923790913532005 0.44992672203224227
0.20236610299980384 0.48216902784562765 0.4538348803126526
0.20256843300012406 0.486077186126038 0.4528578407425501
0.20276963299966155 0.4880312652662433 0.45481191988275516
0.20297261099949537 0.48998534440644836 0.4606741573033708
0.2031741629998578 0.4909623839765511 0.457743038593063
0.203377251999882 0.4948705422569615 0.4587200781631655
0.20357934099956765 0.495847581827064 0.45481191988275516
0.20378044900007808 0.49877870053737183 0.4538348803126526
0.20398168599967903 0.49877870053737183 0.44894968246213973
0.20418314499966073 0.5017098192476794 0.4460185637518319
0.20438414199998078 0.5007327796775769 0.441133365901319
0.2045863969997299 0.5056179775280898 0.43917928676111373
0.2047879309993732 0.5046409379579873 0.43624816805080613
0.20498994599984144 0.5075720566682951 0.4323400097703958
0.20519251599944255 0.5105031753786029 0.431362970200293
0.2053956419995302 0.5075720566682951 0.431362970200293
0.20559852699989278 0.5105031753786029 0.42940889106008795
0.20580094999968424 0.5095261358085001 0.4264777723497801
0.2060042049997719 0.5085490962383976 0.4284318514899854
0.20623575699937646 0.5065950170981925 0.4303859306301905
0.20645664199946623 0.4978016609672691 0.4323400097703958
0.20666995299961854 0.48900830483634583 0.43722520762090866
0.20689039299941214 0.4811919882755251 0.4430874450415241
0.2071132969995233 0.4733756717147044 0.4460185637518319
0.20732427399980224 0.4684904738641915 0.4528578407425501
0.2075436039995111 0.4606741573033708 0.45188080117244755
0.20775556299940945 0.4538348803126526 0.45481191988275516
0.2079715589998159 0.45188080117244755 0.457743038593063
0.20820590699986496 0.4450415241817294 0.457743038593063
0.20842388399978518 0.441133365901319 0.4587200781631655
0.20866069499970763 0.43917928676111373 0.4509037616023448
0.20891456099980132 0.43722520762090866 0.4460185637518319
0.20914677899963863 0.441133365901319 0.4430874450415241
0.20937429399964458 0.44406448461162684 0.44406448461162684
0.20961636299944075 0.4450415241817294 0.4382022471910112
0.20988415499959956 0.4460185637518319 0.4382022471910112
0.21026770400021633 0.44211040547142155 0.4352711284807034
0.2105296059999091 0.44406448461162684 0.4352711284807034
0.2107635840002331 0.4401563263312165 0.4323400097703958
0.21100137600024027 0.43722520762090866 0.431362970200293
0.21122201999969548 0.43722520762090866 0.431362970200293
0.21143821999976353 0.43624816805080613 0.43722520762090866
0.21166204899964214 0.4333170493404983 0.441133365901319
0.21187919299973146 0.4303859306301905 0.45188080117244755
0.21210105999944062 0.4255007327796776 0.45969711773326827
0.21232601900010195 0.4206155349291647 0.4606741573033708
0.21254573700025503 0.4157303370786516 0.4636052760136786
0.21277025200015487 0.40889106008793363 0.4655593551538837
0.2129747849994601 0.4049829018075233 0.4684904738641915
0.2131765779995476 0.40205178309721545 0.4684904738641915
0.21338359299988952 0.3961895456765998 0.4655593551538837
0.21358681099991372 0.3913043478260869 0.4655593551538837
0.2137889929999801 0.38935026868588185 0.4684904738641915
0.21399171099983505 0.3903273082559844 0.46458231558378116
0.21419739300017682 0.38641914997557403 0.46262823644357587
0.2143996300001163 0.3834880312652662 0.46165119687347334
0.21460112600016146 0.38251099169516367 0.4606741573033708
0.21480252999936056 0.38153395212506114 0.45969711773326827
0.2150055269994482 0.3805569125549584 0.457743038593063
0.2152078379995146 0.38153395212506114 0.4538348803126526
0.21540855700004613 0.37957987298485585 0.45676599902296044
0.21560975699958362 0.38153395212506114 0.4557889594528579
0.21581701200011594 0.3805569125549584 0.45481191988275516
0.21601902699967468 0.37957987298485585 0.4557889594528579
0.2162363010002082 0.38153395212506114 0.4557889594528579
0.21645962999991752 0.38446507083536874 0.45481191988275516
0.21669764499984012 0.39228138739618945 0.4538348803126526
0.21695963999991363 0.4059599413776258 0.45188080117244755
0.2172127100002399 0.4186614557889594 0.45188080117244755
0.21749235300012515 0.4323400097703958 0.4538348803126526
0.21779516199967475 0.4450415241817294 0.4509037616023448
0.21809602699977404 0.4509037616023448 0.45188080117244755
0.21842442900015158 0.46165119687347334 0.45481191988275516
0.2188048110001546 0.467513434294089 0.4528578407425501
0.2192654689997653 0.46458231558378116 0.45676599902296044
0.2197882929995103 0.46458231558378116 0.4528578407425501
0.2202789880002456 0.4704445530043966 0.45481191988275516
0.22067825900012394 0.4733756717147044 0.45481191988275516
0.22097192099954555 0.4782608695652173 0.4509037616023448
0.22117817599973932 0.4802149487054226 0.44992672203224227
0.2213829499996791 0.4782608695652173 0.45481191988275516
0.2215853359994071 0.4811919882755251 0.44992672203224227
0.22178712799995992 0.4802149487054226 0.4479726428920372
0.22198842099987814 0.4831460674157304 0.4450415241817294
0.2221981020002204 0.486077186126038 0.44406448461162684
0.22240000599958876 0.48705422569614076 0.44211040547142155
0.22260263199950714 0.4909623839765511 0.44211040547142155
0.2228101840000818 0.4929164631167562 0.441133365901319
0.2230120509993867 0.4938935026868587 0.43917928676111373
0.22321478799949546 0.49682462139716654 0.43917928676111373
0.2234203769994565 0.5046409379579873 0.43722520762090866
0.22362244699979783 0.49975574010747437 0.43722520762090866
0.2238242960002026 0.49975574010747437 0.4382022471910112
0.22402664399942296 0.5036638983878847 0.43917928676111373
0.22422880700014503 0.5017098192476794 0.4382022471910112
0.2244310999994923 0.5046409379579873 0.43722520762090866
0.22463291099938942 0.5046409379579873 0.4401563263312165
0.22483422200002678 0.5036638983878847 0.43722520762090866
0.22503612599939515 0.5036638983878847 0.43722520762090866
0.22523806699973647 0.5036638983878847 0.4352711284807034
0.22544067399940104 0.5046409379579873 0.43722520762090866
0.22564307799984817 0.5085490962383976 0.4401563263312165
0.22584640799959743 0.5056179775280898 0.4401563263312165
0.22609503300009237 0.5026868588177822 0.43624816805080613
0.22632197299935797 0.49682462139716654 0.43917928676111373
0.22654848799993488 0.4938935026868587 0.44211040547142155
0.22675939199962158 0.4831460674157304 0.44211040547142155
0.226961831999688 0.4733756717147044 0.44406448461162684
0.22716562499954307 0.467513434294089 0.44894968246213973
0.22736980699937703 0.4606741573033708 0.44894968246213973
0.227571765999528 0.45676599902296044 0.44894968246213973
0.2277747990001444 0.45188080117244755 0.45188080117244755
0.22797636999985116 0.4479726428920372 0.45188080117244755
0.22817768099957902 0.4450415241817294 0.4509037616023448
0.22837969600004726 0.441133365901319 0.4509037616023448
0.2285863409997546 0.441133365901319 0.45188080117244755
0.22878791099992668 0.4401563263312165 0.4557889594528579
0.22898975899988727 0.4450415241817294 0.45481191988275516
0.22919127400018624 0.4460185637518319 0.4509037616023448
0.2293929190000199 0.4460185637518319 0.457743038593063
0.22959428600006504 0.4479726428920372 0.4538348803126526
0.22979567099991982 0.44992672203224227 0.4557889594528579
0.22999768599947856 0.44699560332193444 0.45676599902296044
0.23020121899935475 0.4509037616023448 0.457743038593063
0.23040267899978062 0.4479726428920372 0.457743038593063
0.23060402699957194 0.4460185637518319 0.45676599902296044
0.230806505000146 0.4450415241817294 0.4557889594528579
0.2310096679993876 0.4430874450415241 0.45188080117244755
0.23121118299968657 0.4460185637518319 0.44992672203224227
0.23141304999990098 0.441133365901319 0.44894968246213973
0.23161448999962886 0.43917928676111373 0.44699560332193444
0.23181826499967428 0.43624816805080613 0.4479726428920372
0.23202222399959282 0.4333170493404983 0.45188080117244755
0.23222571999940556 0.4284318514899854 0.4528578407425501
0.23242745700008527 0.42159257449926724 0.4557889594528579
0.2326296760002151 0.41670737664875435 0.45676599902296044
0.23283252399960475 0.41182217879824123 0.45969711773326827
0.2330345579994173 0.40693698094772834 0.4636052760136786
0.23344790200007992 0.39716658524670256 0.46165119687347334
0.2336751020002339 0.3952125061064973 0.4606741573033708
0.23388259799958178 0.3913043478260869 0.4587200781631655
0.23408448400005 0.38935026868588185 0.46262823644357587
0.23429059099998994 0.3883732291157791 0.4587200781631655
0.23449480999988737 0.38446507083536874 0.457743038593063
0.23469638000005943 0.3854421104054715 0.4606741573033708
0.23489869100012584 0.3834880312652662 0.45676599902296044
0.23509983599979023 0.38446507083536874 0.4557889594528579
0.23530118399958155 0.3834880312652662 0.457743038593063
0.23550290299954213 0.3854421104054715 0.45969711773326827
0.23570417700011603 0.3854421104054715 0.45969711773326827
0.23590537699965353 0.3834880312652662 0.4606741573033708
0.23610698499942373 0.3834880312652662 0.46262823644357587
0.23631666599976597 0.38935026868588185 0.4587200781631655
0.23659112399946025 0.3913043478260869 0.4538348803126526
0.23686961899966263 0.403028822667318 0.4528578407425501
0.23707787500006816 0.4108451392281387 0.4450415241817294
0.2372801299998173 0.42159257449926724 0.44699560332193444
0.23752534799950809 0.4323400097703958 0.44406448461162684
0.2377303449993633 0.43917928676111373 0.4430874450415241
0.23793324799953552 0.4450415241817294 0.44406448461162684
0.2381744289996277 0.45188080117244755 0.4460185637518319
0.23837722200005373 0.45481191988275516 0.4450415241817294
0.2385799779995068 0.46165119687347334 0.4460185637518319
0.23878367799989064 0.4606741573033708 0.44699560332193444
0.238987062999513 0.4655593551538837 0.44699560332193444
0.23919128199941042 0.4636052760136786 0.44699560332193444
0.23939392600004794 0.4636052760136786 0.4509037616023448
0.23959536700022 0.4636052760136786 0.44894968246213973
0.23979606699958822 0.4665363947239862 0.4509037616023448
0.23999774899948534 0.46458231558378116 0.44992672203224227
0.240201597000123 0.4655593551538837 0.4528578407425501
0.24040601900014735 0.467513434294089 0.4528578407425501
0.24060760799966374 0.46946751343429405 0.4509037616023448
0.24081228999966697 0.47239863214460187 0.44992672203224227
0.24101432299994485 0.47142159257449934 0.45188080117244755
0.24121568999999 0.4733756717147044 0.4538348803126526
0.2414190569998027 0.4733756717147044 0.4509037616023448
0.24162023799999588 0.47435271128480694 0.44992672203224227
0.24182293800004118 0.4763067904250122 0.4479726428920372
0.24202900899945234 0.48412310698583294 0.4460185637518319
0.2422435789994779 0.4831460674157304 0.44406448461162684
0.242447650000031 0.486077186126038 0.44211040547142155
0.2426522939995266 0.4909623839765511 0.4382022471910112
0.24286236399984773 0.4929164631167562 0.43722520762090866
0.24306673099999898 0.49682462139716654 0.43429408891060084
0.24327126499974838 0.5007327796775769 0.4352711284807034
0.24347590900015348 0.5007327796775769 0.4323400097703958
0.24367744299979677 0.5036638983878847 0.43429408891060084
0.24387903200022265 0.5036638983878847 0.4401563263312165
0.24408049100020435 0.5046409379579873 0.43624816805080613
0.24428493199957302 0.5056179775280898 0.4401563263312165
0.24449005799942825 0.5085490962383976 0.441133365901319
0.24469192400010797 0.5056179775280898 0.44211040547142155
0.24489345799975126 0.5046409379579873 0.44211040547142155
0.24509513999964838 0.5065950170981925 0.4430874450415241
0.245296672999757 0.5036638983878847 0.44211040547142155
0.24550057699980243 0.5026868588177822 0.441133365901319
0.24570190699978411 0.5026868588177822 0.44406448461162684
0.2459035510000831 0.5017098192476794 0.4401563263312165
0.24610680699970544 0.5007327796775769 0.44211040547142155
0.24630900699958147 0.49682462139716654 0.4460185637518319
0.2465110220000497 0.48998534440644836 0.4430874450415241
0.24671823999960907 0.4831460674157304 0.4460185637518319
0.24692256999969686 0.4733756717147044 0.44992672203224227
0.24713345500003925 0.4655593551538837 0.45188080117244755
0.24733565499991528 0.45969711773326827 0.4528578407425501
0.24753835499996057 0.4538348803126526 0.45676599902296044
0.24774083299962513 0.4479726428920372 0.4557889594528579
0.247942293000051 0.44406448461162684 0.4606741573033708
0.24814319599954615 0.441133365901319 0.45676599902296044
0.2483445819998451 0.441133365901319 0.457743038593063
0.24855252199995448 0.4382022471910112 0.45676599902296044
0.24875587099995755 0.43917928676111373 0.457743038593063
0.24895884899979137 0.4382022471910112 0.457743038593063
0.2491640489997735 0.44406448461162684 0.4557889594528579
0.24936800799969205 0.44699560332193444 0.45481191988275516
0.24957174500013934 0.44699560332193444 0.4528578407425501
0.24977387099988846 0.4460185637518319 0.4528578407425501
0.24997542300025088 0.4460185637518319 0.4528578407425501
0.2501849009995567 0.44894968246213973 0.4538348803126526
0.25038660100017296 0.44699560332193444 0.4528578407425501
0.2505884120000701 0.45188080117244755 0.4538348803126526
0.25079133399958664 0.44699560332193444 0.45481191988275516
0.2509925899994414 0.4460185637518319 0.4557889594528579
0.25119390100007877 0.4479726428920372 0.4538348803126526
0.2513942870000392 0.4430874450415241 0.457743038593063
0.25159541299944976 0.441133365901319 0.45481191988275516
0.2517976869994527 0.441133365901319 0.4528578407425501
0.25199951699960366 0.43624816805080613 0.45481191988275516
0.25220134600021993 0.43624816805080613 0.4528578407425501
0.2524038430001383 0.4264777723497801 0.45481191988275516
0.2526060989994221 0.41963849535906195 0.4538348803126526
0.2528086499996789 0.41475329750854906 0.457743038593063
0.25301060999936453 0.40889106008793363 0.457743038593063
0.2532123099999808 0.403028822667318 0.457743038593063
0.2534129549994759 0.39716658524670256 0.45676599902296044
0.2536153029996058 0.39423546653639474 0.457743038593063
0.2538173729999471 0.3903273082559844 0.4606741573033708
0.2540193509994424 0.3883732291157791 0.4606741573033708
0.2542216069996357 0.38641914997557403 0.45969711773326827
0.254424621999533 0.3854421104054715 0.45676599902296044
0.2546261739998954 0.3834880312652662 0.45969711773326827
0.25482787399960216 0.37957987298485585 0.45676599902296044
0.2550292409996473 0.3786028334147533 0.4587200781631655
0.25523040400003083 0.3776257938446508 0.45676599902296044
0.2557095060001302 0.3776257938446508 0.45481191988275516
0.25592596499973297 0.3805569125549584 0.4557889594528579
0.2561308509993978 0.38446507083536874 0.45481191988275516
0.25633299499986606 0.38739618954567656 0.45188080117244755
0.25653543599946715 0.38935026868588185 0.4528578407425501
0.2567372469993643 0.40009770395701016 0.45188080117244755
0.25693974400019215 0.40986809965803617 0.44992672203224227
0.2571414249996451 0.4186614557889594 0.4479726428920372
0.25734242199996515 0.42940889106008795 0.44699560332193444
0.257561010000245 0.4382022471910112 0.44894968246213973
0.25776746999963507 0.4430874450415241 0.4479726428920372
0.25796905900006095 0.44894968246213973 0.45188080117244755
0.25819588800004567 0.4538348803126526 0.45188080117244755
0.25839784700019663 0.4587200781631655 0.45188080117244755
0.2585998249996919 0.4606741573033708 0.4538348803126526
0.25880241399954684 0.4655593551538837 0.45188080117244755
0.2590041140001631 0.4665363947239862 0.44992672203224227
0.2592153879995749 0.4655593551538837 0.4538348803126526
0.259417069999472 0.46262823644357587 0.45188080117244755
0.2596188440002152 0.4655593551538837 0.4528578407425501
0.259821378000197 0.4655593551538837 0.4538348803126526
0.26002468899969244 0.46458231558378116 0.4509037616023448
0.2602274069995474 0.467513434294089 0.44992672203224227
0.26042879299984634 0.4655593551538837 0.4509037616023448
0.26063032599995495 0.467513434294089 0.4538348803126526
0.26083200799985207 0.4684904738641915 0.4509037616023448
0.2610339299999396 0.46946751343429405 0.44992672203224227
0.26123655599985796 0.47239863214460187 0.44699560332193444
0.26143842300007236 0.47239863214460187 0.44992672203224227
0.2616403639995042 0.47728382999511476 0.45188080117244755
0.26184354499946494 0.4802149487054226 0.45188080117244755
0.26204594899991207 0.4851001465559355 0.44992672203224227
0.26226300100006483 0.48900830483634583 0.45188080117244755
0.26272471499942185 0.5046409379579873 0.44699560332193444
0.26295069200023136 0.5056179775280898 0.4479726428920372
0.2631560769996213 0.5056179775280898 0.4450415241817294
0.2633584630002588 0.5036638983878847 0.4479726428920372
0.2635597179996694 0.5085490962383976 0.4460185637518319
0.2637630109993552 0.5075720566682951 0.4450415241817294
0.26396530399961193 0.5075720566682951 0.4460185637518319
0.26416618900020694 0.5046409379579873 0.4450415241817294
0.26436740799999825 0.5065950170981925 0.4450415241817294
0.2645687189997261 0.5036638983878847 0.4450415241817294
0.2647690859994327 0.5026868588177822 0.44699560332193444
0.26497091599958367 0.5026868588177822 0.4450415241817294
0.265172392999375 0.5017098192476794 0.4450415241817294
0.26537388999986433 0.5007327796775769 0.4430874450415241
0.26557666400003654 0.4978016609672691 0.44211040547142155
0.2657781050002086 0.5017098192476794 0.441133365901319
0.26597908299936535 0.5017098192476794 0.44211040547142155
0.2661828379996223 0.49975574010747437 0.441133365901319
0.2663841309995405 0.495847581827064 0.4430874450415241
0.26658647899967036 0.4880312652662433 0.4382022471910112
0.26678808699944057 0.47728382999511476 0.44211040547142155
0.2669903799996973 0.46946751343429405 0.43917928676111373
0.26719161700020777 0.46458231558378116 0.43917928676111373
0.2673929649999991 0.457743038593063 0.4479726428920372
0.2675940909994097 0.4528578407425501 0.44211040547142155
0.2677949389999412 0.4538348803126526 0.4430874450415241
0.2679961209996691 0.4509037616023448 0.44894968246213973
0.2681970989997353 0.44894968246213973 0.4450415241817294
0.268398557999717 0.4450415241817294 0.4430874450415241
0.26859948099991016 0.44406448461162684 0.44406448461162684
0.26880080999944767 0.43917928676111373 0.44211040547142155
0.2690016589995139 0.441133365901319 0.4460185637518319
0.2692100619997291 0.44406448461162684 0.43917928676111373
0.26941224399979546 0.45188080117244755 0.441133365901319
0.26961349999965023 0.44992672203224227 0.4450415241817294
0.26981497799988574 0.4450415241817294 0.4479726428920372
0.2700164739999309 0.4479726428920372 0.4479726428920372
0.2702189699994051 0.4450415241817294 0.45188080117244755
0.27042067000002135 0.4430874450415241 0.45481191988275516
0.2706236109997917 0.44211040547142155 0.4606741573033708
0.2708267190000697 0.4401563263312165 0.4587200781631655
0.27102793699941685 0.4382022471910112 0.45969711773326827
0.27123084100003325 0.43722520762090866 0.4587200781631655
0.27143157799946493 0.43722520762090866 0.4606741573033708
0.27163196399942535 0.43429408891060084 0.46165119687347334
0.27183420099936484 0.42940889106008795 0.45481191988275516
0.2720350680001502 0.4264777723497801 0.4538348803126526
0.27223995299937087 0.4206155349291647 0.44699560332193444
0.2724408570002197 0.41670737664875435 0.4401563263312165
0.2726421119996303 0.4108451392281387 0.44406448461162684
0.27286801599984756 0.4059599413776258 0.43917928676111373
0.2730809559998306 0.4010747435271129 0.44211040547142155
0.27330052700017404 0.3961895456765998 0.44406448461162684
0.27352437499939697 0.3913043478260869 0.4430874450415241
0.27374761099963507 0.3834880312652662 0.44699560332193444
0.27396675599993614 0.3805569125549584 0.44992672203224227
0.27420423300009134 0.376648754274548 0.44992672203224227
0.2744133400001374 0.3776257938446508 0.4509037616023448
0.2746389289995932 0.3776257938446508 0.4528578407425501
0.27489946100013185 0.3737176355642404 0.4538348803126526
0.2751601969994226 0.37274059599413767 0.4509037616023448
0.2754592479996063 0.3688324377137273 0.4557889594528579
0.27583625900024344 0.37274059599413767 0.4557889594528579
0.2762114560000555 0.37469467513434296 0.457743038593063
0.27650243300013244 0.3805569125549584 0.457743038593063
0.2767415580001398 0.3913043478260869 0.457743038593063
0.27697214699946926 0.4040058622374205 0.45969711773326827
0.27720010499979253 0.4176844162188569 0.457743038593063
0.277445175000139 0.42940889106008795 0.4557889594528579
0.27767657799995504 0.4401563263312165 0.45676599902296044
0.27788201899966225 0.44406448461162684 0.4606741573033708
0.27810436700019636 0.45188080117244755 0.45188080117244755
0.27831471499939653 0.45969711773326827 0.4509037616023448
0.2785365629997614 0.4636052760136786 0.45188080117244755
0.278755206999449 0.46946751343429405 0.4509037616023448
0.278965536999749 0.4733756717147044 0.45188080117244755
0.27917242199964676 0.4733756717147044 0.4528578407425501
0.27937693700005184 0.4753297508549097 0.45188080117244755
0.2795805260002453 0.47239863214460187 0.4509037616023448
0.2797828369994022 0.4733756717147044 0.45188080117244755
0.2799890559999767 0.47239863214460187 0.45188080117244755
0.2801918859995567 0.4782608695652173 0.45188080117244755
0.280395752000004 0.47728382999511476 0.4509037616023448
0.28059804500026075 0.47728382999511476 0.44992672203224227
0.2808001530002002 0.4782608695652173 0.44699560332193444
0.2810038159996111 0.4782608695652173 0.4479726428920372
0.28120632999980444 0.47728382999511476 0.44894968246213973
0.28140803099995537 0.4811919882755251 0.44992672203224227
0.28162041599989607 0.4831460674157304 0.44894968246213973
0.28183674499996414 0.4851001465559355 0.4509037616023448
0.2820422419999886 0.48900830483634583 0.4460185637518319
0.28230607000023156 0.4948705422569615 0.4460185637518319
0.2825126219995582 0.495847581827064 0.4450415241817294
0.2827140999997937 0.4978016609672691 0.441133365901319
0.28291566999996576 0.49877870053737183 0.44894968246213973
0.28311811099956685 0.5017098192476794 0.44406448461162684
0.28332075599973905 0.49975574010747437 0.4450415241817294
0.2835223259999111 0.5007327796775769 0.441133365901319
0.2837245629998506 0.495847581827064 0.441133365901319
0.2839272080000228 0.49682462139716654 0.44211040547142155
0.2841283339994334 0.49682462139716654 0.44406448461162684
0.2843296270002611 0.4938935026868587 0.44406448461162684
0.2845324559993969 0.4978016609672691 0.4460185637518319
0.2847358600001826 0.5046409379579873 0.4460185637518319
0.28493750500001624 0.49877870053737183 0.4460185637518319
0.28514333400016767 0.49975574010747437 0.44894968246213973
0.28534512700025516 0.5007327796775769 0.4479726428920372
0.28554941999937 0.4978016609672691 0.44894968246213973
0.2857527679998384 0.5007327796775769 0.4460185637518319
0.28595545000007405 0.49877870053737183 0.4450415241817294
0.2861836490001224 0.49975574010747437 0.4460185637518319
0.2863863490001677 0.4948705422569615 0.44894968246213973
0.2865882349997264 0.48705422569614076 0.457743038593063
0.2867904529994121 0.47728382999511476 0.44699560332193444
0.28699295000023994 0.467513434294089 0.44894968246213973
0.28719570500015834 0.4636052760136786 0.4528578407425501
0.28739797999969596 0.4587200781631655 0.4538348803126526
0.28760021699963545 0.4528578407425501 0.45969711773326827
0.28780206499959604 0.45188080117244755 0.45676599902296044
0.2880043579998528 0.44894968246213973 0.45481191988275516
0.2882070389996443 0.4460185637518319 0.4528578407425501
0.2884095539993723 0.44406448461162684 0.45676599902296044
0.2886110509998616 0.44406448461162684 0.45676599902296044
0.2888129539996953 0.441133365901319 0.45481191988275516
0.28901470999971934 0.4430874450415241 0.4587200781631655
0.2892162990001452 0.44699560332193444 0.45969711773326827
0.28944242499983375 0.44699560332193444 0.457743038593063
0.28964375399937126 0.4509037616023448 0.457743038593063
0.28984673200011457 0.4557889594528579 0.45969711773326827
0.2900486729995464 0.45481191988275516 0.457743038593063
0.29026891000012256 0.4557889594528579 0.45481191988275516
0.2904717579995122 0.4538348803126526 0.45676599902296044
0.2906731809998746 0.4538348803126526 0.4538348803126526
0.29087514000002557 0.45188080117244755 0.457743038593063
0.29107659900000726 0.44699560332193444 0.4587200781631655
0.2912781509994602 0.44699560332193444 0.45481191988275516
0.2914804069996535 0.4430874450415241 0.45969711773326827
0.29168210699936026 0.43917928676111373 0.457743038593063
0.2918839369995112 0.43429408891060084 0.45481191988275516
0.29209089599953586 0.42940889106008795 0.45481191988275516
0.29246340800000326 0.4186614557889594 0.45969711773326827
0.2926821450000716 0.4108451392281387 0.4606741573033708
0.29288765999990574 0.40693698094772834 0.4636052760136786
0.29309061899948574 0.4010747435271129 0.46165119687347334
0.2932927269994252 0.3981436248168051 0.46165119687347334
0.2934965379999994 0.3961895456765998 0.4636052760136786
0.2936988860001293 0.38935026868588185 0.46262823644357587
0.2939019189998362 0.38935026868588185 0.4636052760136786
0.2941069159996914 0.3913043478260869 0.46165119687347334
0.29430813399994804 0.3854421104054715 0.46262823644357587
0.294509241999549 0.3805569125549584 0.45969711773326827
0.29471103499963647 0.38251099169516367 0.45676599902296044
0.2949124380002104 0.38153395212506114 0.45969711773326827
0.29511343499962095 0.38153395212506114 0.46262823644357587
0.29531502400004683 0.3786028334147533 0.4606741573033708
0.2955156309999438 0.38251099169516367 0.45969711773326827
0.2957169609999255 0.38153395212506114 0.46165119687347334
0.2959178279998014 0.3834880312652662 0.4587200781631655
0.2961428429998705 0.3854421104054715 0.4636052760136786
0.29637854199972935 0.38935026868588185 0.46165119687347334
0.2966758699994898 0.40205178309721545 0.4538348803126526
0.29699751299995114 0.4176844162188569 0.44894968246213973
0.2973919679998289 0.43917928676111373 0.4401563263312165
0.2978238499999861 0.4557889594528579 0.43624816805080613
0.29831248899972707 0.467513434294089 0.43429408891060084
0.2987278519995016 0.47142159257449934 0.4284318514899854
0.2990366799995172 0.4684904738641915 0.4264777723497801
0.29935226699944906 0.4636052760136786 0.4352711284807034
0.2996341879997999 0.4636052760136786 0.43917928676111373
0.2999689970001782 0.46165119687347334 0.4460185637518319
0.30031110199979594 0.46458231558378116 0.44992672203224227
0.30055613399963477 0.47142159257449934 0.4509037616023448
0.30079503799970553 0.47239863214460187 0.457743038593063
0.30104032899998856 0.4704445530043966 0.45676599902296044
0.30127145499955077 0.47239863214460187 0.4528578407425501
0.3015022469999167 0.47239863214460187 0.4528578407425501
0.3017294840001341 0.47923790913532005 0.4538348803126526
0.3019590719995904 0.4782608695652173 0.4509037616023448
0.30223912299970834 0.48900830483634583 0.45188080117244755
0.3024736369998209 0.486077186126038 0.44699560332193444
0.302702484999827 0.4909623839765511 0.4460185637518319
0.30293877700023586 0.4948705422569615 0.4528578407425501
0.30314525499943556 0.49193942354665365 0.4479726428920372
0.30334769599994615 0.49877870053737183 0.44406448461162684
0.30354954399990675 0.5007327796775769 0.44211040547142155
0.3037526699999944 0.5026868588177822 0.43917928676111373
0.3039558889995533 0.5046409379579873 0.44211040547142155
0.30416064400014875 0.5056179775280898 0.4401563263312165
0.3043625299997075 0.5085490962383976 0.4382022471910112
0.30456552600026043 0.5105031753786029 0.43917928676111373
0.30476720800015755 0.5114802149487054 0.441133365901319
0.304969759999949 0.5095261358085001 0.4460185637518319
0.3051723859998674 0.5085490962383976 0.4460185637518319
0.305376585999511 0.5075720566682951 0.4430874450415241
0.30557865599985234 0.5085490962383976 0.4430874450415241
0.3057812269998976 0.5075720566682951 0.44211040547142155
0.30598366699996404 0.5065950170981925 0.43917928676111373
0.3061897930001578 0.5075720566682951 0.43917928676111373
0.30639180799971655 0.5017098192476794 0.43917928676111373
0.30659404499965603 0.49682462139716654 0.44211040547142155
0.30679624599997624 0.486077186126038 0.4460185637518319
0.3069984829999157 0.4782608695652173 0.44894968246213973
0.3071997939996436 0.47142159257449934 0.45481191988275516
0.3074020309995831 0.46262823644357587 0.45188080117244755
0.30760413899952255 0.45969711773326827 0.4509037616023448
0.3078144679993784 0.457743038593063 0.44894968246213973
0.3080176309995295 0.4538348803126526 0.44894968246213973
0.3082191280000188 0.4538348803126526 0.4479726428920372
0.308420309000212 0.44992672203224227 0.44894968246213973
0.3086218429998553 0.4450415241817294 0.44699560332193444
0.30882374700013315 0.4450415241817294 0.44894968246213973
0.3090254469998399 0.44699560332193444 0.4509037616023448
0.30922835000001214 0.44699560332193444 0.4538348803126526
0.30945030899965786 0.44699560332193444 0.45676599902296044
0.30967636100012896 0.4479726428920372 0.4587200781631655
0.3099110980001569 0.44992672203224227 0.4557889594528579
0.31011814900011814 0.45188080117244755 0.4587200781631655
0.31032216399944446 0.45188080117244755 0.45481191988275516
0.3105239199994685 0.44894968246213973 0.4557889594528579
0.3107254529995771 0.44894968246213973 0.4587200781631655
0.3109276349996435 0.44699560332193444 0.457743038593063
0.3111300760001541 0.441133365901319 0.457743038593063
0.31133159099954355 0.43917928676111373 0.457743038593063
0.3115341430002445 0.4382022471910112 0.4557889594528579
0.3117354730002262 0.43624816805080613 0.45676599902296044
0.31194091299948923 0.4323400097703958 0.457743038593063
0.3121451500001058 0.42745481191988266 0.46165119687347334
0.31238016499992227 0.4206155349291647 0.46165119687347334
0.31258680900009495 0.41475329750854906 0.45481191988275516
0.31279232399992907 0.40693698094772834 0.4557889594528579
0.3129948019995936 0.40693698094772834 0.45969711773326827
0.31319822400018893 0.403028822667318 0.4587200781631655
0.3133992949997264 0.39716658524670256 0.4587200781631655
0.3136021059999621 0.39228138739618945 0.46165119687347334
0.3138041759993939 0.38935026868588185 0.45969711773326827
0.31400559899975633 0.38739618954567656 0.4636052760136786
0.3142102989995692 0.38739618954567656 0.4636052760136786
0.31441096199978347 0.3805569125549584 0.46262823644357587
0.3146126989995537 0.38153395212506114 0.467513434294089
0.31481362100021215 0.38153395212506114 0.46262823644357587
0.31501437699989765 0.37957987298485585 0.4655593551538837
0.3152160769996044 0.3805569125549584 0.4665363947239862
0.3154166849999456 0.3776257938446508 0.4636052760136786
0.31562062600005447 0.37957987298485585 0.4655593551538837
0.315821954999592 0.3834880312652662 0.4636052760136786
0.3160225999999966 0.3786028334147533 0.46165119687347334
0.3162237999995341 0.38641914997557403 0.46165119687347334
0.31642544499936776 0.38739618954567656 0.4636052760136786
0.3166278479993707 0.3903273082559844 0.45969711773326827
0.3168291969996062 0.403028822667318 0.4636052760136786
0.3170300820002012 0.412799218368344 0.4636052760136786
0.3172312819997387 0.42159257449926724 0.4587200781631655
0.3174331860000166 0.4333170493404983 0.46165119687347334
0.3176351269994484 0.441133365901319 0.45676599902296044
0.3178362529997685 0.44699560332193444 0.45676599902296044
0.31803867500002525 0.4528578407425501 0.4528578407425501
0.31826893000015843 0.45676599902296044 0.4509037616023448
0.3184722599999077 0.4636052760136786 0.4587200781631655
0.3186735899998894 0.46262823644357587 0.45481191988275516
0.3188878270002533 0.4704445530043966 0.4479726428920372
0.3191192670001328 0.4665363947239862 0.44211040547142155
0.3193568549995689 0.46458231558378116 0.44211040547142155
0.3195764259999123 0.46458231558378116 0.44211040547142155
0.31980501399993955 0.4665363947239862 0.4450415241817294
0.32001330699949904 0.47142159257449934 0.4450415241817294
0.320227672999863 0.46946751343429405 0.44699560332193444
0.32044322499950795 0.4763067904250122 0.45188080117244755
0.320656629000041 0.4733756717147044 0.4538348803126526
0.32092943899988313 0.47435271128480694 0.457743038593063
0.3211703420001868 0.4782608695652173 0.4538348803126526
0.32140363399958005 0.4802149487054226 0.44699560332193444
0.3216310190000513 0.4802149487054226 0.44699560332193444
0.3218480890000137 0.48412310698583294 0.44406448461162684
0.3221319730000687 0.4909623839765511 0.43429408891060084
0.3223699129994202 0.48900830483634583 0.4303859306301905
0.32259840899951087 0.4909623839765511 0.4264777723497801
0.3228354789998775 0.4929164631167562 0.42452369320957506
0.32309645599980286 0.49193942354665365 0.42256961406936977
0.32332893300008436 0.49193942354665365 0.4206155349291647
0.3235408179998558 0.495847581827064 0.41475329750854906
0.3237591289998818 0.4938935026868587 0.4176844162188569
0.3241631769997184 0.49877870053737183 0.4186614557889594
0.32439691399940784 0.49682462139716654 0.4206155349291647
0.324603594999644 0.49682462139716654 0.4186614557889594
0.32481825800005026 0.4938935026868587 0.41963849535906195
0.3250256619994616 0.49682462139716654 0.42256961406936977
0.32522860300014145 0.4978016609672691 0.4235466536394723
0.32543000700025004 0.49975574010747437 0.42745481191988266
0.3256324659996608 0.5007327796775769 0.42745481191988266
0.325838628999918 0.49975574010747437 0.42940889106008795
0.3260484769998584 0.5007327796775769 0.43624816805080613
0.3262776399997165 0.5017098192476794 0.44406448461162684
0.3264798210002482 0.4948705422569615 0.44406448461162684
0.3266827249999551 0.48412310698583294 0.44992672203224227
0.32688448099997913 0.47728382999511476 0.45969711773326827
0.32708718100002443 0.4733756717147044 0.45969711773326827
0.32728839999981574 0.4636052760136786 0.457743038593063
0.3274919890000092 0.45969711773326827 0.4655593551538837
0.327693817999716 0.45481191988275516 0.45969711773326827
0.32789742600016325 0.4479726428920372 0.45969711773326827
0.3281013109999549 0.4479726428920372 0.4606741573033708
0.32830339999964053 0.4450415241817294 0.45676599902296044
0.32850495200000296 0.45188080117244755 0.45676599902296044
0.3287124299995412 0.44406448461162684 0.46165119687347334
0.32891516699964995 0.44699560332193444 0.46262823644357587
0.32911862599939923 0.44992672203224227 0.4606741573033708
0.32932173399967724 0.4538348803126526 0.4636052760136786
0.32952345200010313 0.4557889594528579 0.46458231558378116
0.3297254669996619 0.4557889594528579 0.45969711773326827
0.3299266859994532 0.4528578407425501 0.45969711773326827
0.3301289969995196 0.4528578407425501 0.4587200781631655
0.3303307899996071 0.45481191988275516 0.4587200781631655
0.3305331749998004 0.457743038593063 0.45676599902296044
0.33073657899967657 0.4509037616023448 0.45676599902296044
0.33093902000018716 0.44699560332193444 0.45676599902296044
0.33114223800021136 0.4479726428920372 0.45676599902296044
0.33134499399966444 0.44699560332193444 0.457743038593063
0.33154684199962503 0.44992672203224227 0.457743038593063
0.33174885700009327 0.441133365901319 0.457743038593063
0.33195057600005384 0.43429408891060084 0.4557889594528579
0.33215231299982406 0.4303859306301905 0.4557889594528579
0.3323563459998695 0.4235466536394723 0.45481191988275516
0.33255862099940714 0.41963849535906195 0.45676599902296044
0.3327603759998965 0.412799218368344 0.4557889594528579
0.332961854000132 0.40693698094772834 0.4538348803126526
0.3331635909999022 0.40205178309721545 0.4528578407425501
0.3333659769996302 0.40009770395701016 0.4538348803126526
0.3335681399994428 0.3952125061064973 0.45481191988275516
0.3337719319997632 0.39228138739618945 0.44992672203224227
0.3339729469998929 0.3883732291157791 0.457743038593063
0.3341776099996423 0.3854421104054715 0.4509037616023448
0.3343782359997931 0.38153395212506114 0.4509037616023448
0.33458136199988076 0.3786028334147533 0.4528578407425501
0.3347868959999687 0.37176355642403514 0.4528578407425501
0.33498891099952743 0.37176355642403514 0.45676599902296044
0.3351909439998053 0.36980947728383007 0.4528578407425501
0.3353924220000408 0.36687835857352225 0.4528578407425501
0.3355976590000864 0.3659013190034197 0.4509037616023448
0.33579861899943353 0.36492427943331696 0.45481191988275516
0.33600092999949993 0.36687835857352225 0.4557889594528579
0.33620155599965074 0.36687835857352225 0.45481191988275516
0.33640316299988626 0.376648754274548 0.45481191988275516
0.3366042709994872 0.3786028334147533 0.45481191988275516
0.33680537799955346 0.3932584269662922 0.4538348803126526
0.3370071529998313 0.4040058622374205 0.44894968246213973
0.33721559300010995 0.4186614557889594 0.4479726428920372
0.33741692300009163 0.42940889106008795 0.44992672203224227
0.33762073399975634 0.4401563263312165 0.44699560332193444
0.33782319399961125 0.4460185637518319 0.4430874450415241
0.3380250789996353 0.45188080117244755 0.44894968246213973
0.33822848299951147 0.45676599902296044 0.44992672203224227
0.33843064600023354 0.45969711773326827 0.45188080117244755
0.33863204999943264 0.4636052760136786 0.4538348803126526
0.33883313899968925 0.467513434294089 0.4538348803126526
0.3390350979998402 0.46946751343429405 0.4509037616023448
0.33923807599967404 0.4665363947239862 0.44699560332193444
0.3394403129996135 0.4665363947239862 0.44894968246213973
0.3396461430002091 0.4684904738641915 0.4528578407425501
0.33984860199961986 0.47239863214460187 0.44992672203224227
0.3400508209997497 0.4753297508549097 0.4538348803126526
0.3402525390001756 0.4753297508549097 0.45188080117244755
0.3404536649995862 0.47728382999511476 0.4538348803126526
0.3406543659993986 0.47923790913532005 0.4509037616023448
0.3408564729998034 0.48216902784562765 0.4509037616023448
0.34106857999995555 0.48900830483634583 0.45188080117244755
0.34127355799955694 0.48216902784562765 0.4538348803126526
0.3414748690001943 0.48216902784562765 0.4528578407425501
0.34167577300013363 0.486077186126038 0.4509037616023448
0.3418776219996289 0.4851001465559355 0.44992672203224227
0.34208367300016107 0.4880312652662433 0.44992672203224227
0.3422861509998256 0.4909623839765511 0.44894968246213973
0.3424874069996804 0.49193942354665365 0.4528578407425501
0.34268879199953517 0.495847581827064 0.44699560332193444
0.3428926219994537 0.495847581827064 0.4460185637518319
0.34309528499943553 0.49682462139716654 0.44406448461162684
0.3432978370001365 0.5007327796775769 0.4460185637518319
0.3435004069997376 0.5017098192476794 0.44406448461162684
0.34370257099999435 0.5007327796775769 0.4460185637518319
0.3439036230001875 0.5026868588177822 0.4450415241817294
0.34410537799976737 0.5026868588177822 0.4450415241817294
0.3443069859995376 0.5046409379579873 0.44406448461162684
0.3445097599997098 0.5026868588177822 0.4401563263312165
0.34471108999969147 0.5017098192476794 0.43917928676111373
0.34491358600007516 0.5017098192476794 0.44406448461162684
0.34511499000018375 0.49975574010747437 0.43722520762090866
0.34531709699967905 0.49975574010747437 0.4401563263312165
0.3455180749997453 0.49877870053737183 0.441133365901319
0.3457191090001288 0.5026868588177822 0.44406448461162684
0.34592071599945484 0.5017098192476794 0.4460185637518319
0.34613317499952245 0.49975574010747437 0.44894968246213973
0.3463364499993986 0.49877870053737183 0.4528578407425501
0.3465384089995496 0.48412310698583294 0.4557889594528579
0.34674010900016583 0.4811919882755251 0.45676599902296044
0.3469413459997668 0.4733756717147044 0.4606741573033708
0.3471439349996217 0.4665363947239862 0.4587200781631655
0.34734550600023795 0.4587200781631655 0.4587200781631655
0.3475462609994793 0.46165119687347334 0.45969711773326827
0.3477485169996726 0.45188080117244755 0.45969711773326827
0.3479496800000561 0.4479726428920372 0.4587200781631655
0.3481520650002494 0.44699560332193444 0.45969711773326827
0.34835395099980815 0.4479726428920372 0.45676599902296044
0.3485683909993895 0.4401563263312165 0.4587200781631655
0.34877022099954047 0.44406448461162684 0.45481191988275516
0.3489723470001991 0.43917928676111373 0.457743038593063
0.3491747879998002 0.4450415241817294 0.4538348803126526
0.3493761549998453 0.4430874450415241 0.44992672203224227
0.3495827619999545 0.44894968246213973 0.44894968246213973
0.3497844809999151 0.4479726428920372 0.44894968246213973
0.3499852369996006 0.4450415241817294 0.45188080117244755
0.3502015849999225 0.4460185637518319 0.4479726428920372
0.35043352499997127 0.44211040547142155 0.4460185637518319
0.3506507619995318 0.43917928676111373 0.44992672203224227
0.35085342499951366 0.4401563263312165 0.4450415241817294
0.35105434700017213 0.4382022471910112 0.44894968246213973
0.35125641800004814 0.43917928676111373 0.44699560332193444
0.35145756200017786 0.43917928676111373 0.44894968246213973
0.35166189199935616 0.43429408891060084 0.4557889594528579
0.3518640550000782 0.4284318514899854 0.4509037616023448
0.3520660140002292 0.42452369320957506 0.4528578407425501
0.3522687889999361 0.41670737664875435 0.45481191988275516
0.35247211800015066 0.4079140205178309 0.4538348803126526
0.3528145749996838 0.403028822667318 0.45188080117244755
0.35303725599987956 0.39423546653639474 0.45188080117244755
0.35324358599973493 0.39228138739618945 0.44992672203224227
0.35344804499982274 0.38641914997557403 0.44699560332193444
0.35365452299993194 0.3854421104054715 0.45188080117244755
0.3538565569997445 0.3786028334147533 0.4509037616023448
0.3540786819994537 0.37957987298485585 0.4528578407425501
0.3542814559996259 0.3786028334147533 0.4509037616023448
0.3544833420000941 0.3776257938446508 0.4557889594528579
0.3546853199995894 0.3756717147044455 0.45676599902296044
0.35488655700009986 0.3776257938446508 0.4557889594528579
0.355087330999595 0.37957987298485585 0.45969711773326827
0.35528928999974596 0.3805569125549584 0.45481191988275516
0.35549041600006603 0.38739618954567656 0.4557889594528579
0.3556913020001957 0.38739618954567656 0.45676599902296044
0.3558924829994794 0.3854421104054715 0.45481191988275516
0.35609840599954623 0.38935026868588185 0.4557889594528579
0.35631591999936063 0.3932584269662922 0.4557889594528579
0.3565358420000848 0.39423546653639474 0.45481191988275516
0.3567521349996241 0.4049829018075233 0.45188080117244755
0.3569698530000096 0.41670737664875435 0.44992672203224227
0.35719366400007857 0.4264777723497801 0.44992672203224227
0.35742260400002124 0.4352711284807034 0.44894968246213973
0.3576477669994347 0.44406448461162684 0.44699560332193444
0.35787352199986344 0.4509037616023448 0.4528578407425501
0.3582324789995255 0.4557889594528579 0.4528578407425501
0.35852026999964437 0.46165119687347334 0.4557889594528579
0.35875032100011595 0.4684904738641915 0.457743038593063
0.35897337299957144 0.4665363947239862 0.457743038593063
0.35919833200023277 0.4655593551538837 0.45969711773326827
0.3594243279994771 0.4636052760136786 0.4587200781631655
0.35964311999941856 0.4636052760136786 0.45676599902296044
0.3598517089994857 0.46262823644357587 0.45676599902296044
0.36005677999946784 0.46458231558378116 0.4557889594528579
0.360258719999365 0.4655593551538837 0.4528578407425501
0.36046101299962174 0.4655593551538837 0.44894968246213973
0.3606627319995823 0.4665363947239862 0.44894968246213973
0.36086804299975483 0.4665363947239862 0.45188080117244755
0.3610719099997368 0.46946751343429405 0.4509037616023448
0.3612767579998035 0.4704445530043966 0.4557889594528579
0.36148480999963795 0.47239863214460187 0.4538348803126526
0.36168804699991597 0.4763067904250122 0.45481191988275516
0.36189157999979216 0.4782608695652173 0.4538348803126526
0.36211696499958634 0.48412310698583294 0.45188080117244755
0.3623206649999702 0.48412310698583294 0.44894968246213973
0.362521291000121 0.486077186126038 0.441133365901319
0.36272378800003935 0.4938935026868587 0.441133365901319
0.36292309899999964 0.49682462139716654 0.4401563263312165
0.36312231800002337 0.49682462139716654 0.4352711284807034
0.36332248100006836 0.5007327796775769 0.43429408891060084
0.36352264400011336 0.5017098192476794 0.43429408891060084
0.3637215849994391 0.5036638983878847 0.43624816805080613
0.363925654999548 0.5036638983878847 0.43624816805080613
0.3641245219996563 0.5046409379579873 0.4352711284807034
0.36432264799987024 0.5007327796775769 0.4352711284807034
0.3645211819994074 0.5046409379579873 0.44406448461162684
0.3647187149999809 0.5017098192476794 0.44211040547142155
0.3649172670002372 0.5046409379579873 0.4401563263312165
0.36511515300026076 0.5017098192476794 0.4401563263312165
0.36531433399977686 0.5046409379579873 0.441133365901319
0.36551351599973714 0.5065950170981925 0.4401563263312165
0.3657127529995705 0.5017098192476794 0.441133365901319
0.3659131009999328 0.5026868588177822 0.43917928676111373
0.3661362829998325 0.5056179775280898 0.43917928676111373
0.36634877899996354 0.4978016609672691 0.44894968246213973
0.3665514419999454 0.4948705422569615 0.4538348803126526
0.3667534939995676 0.4831460674157304 0.4587200781631655
0.36695537899959163 0.47435271128480694 0.45676599902296044
0.36716022699965833 0.4655593551538837 0.457743038593063
0.36736165000002075 0.45969711773326827 0.4636052760136786
0.3675637939995795 0.4538348803126526 0.45969711773326827
0.3677655310002592 0.4479726428920372 0.457743038593063
0.36796760200013523 0.4460185637518319 0.45481191988275516
0.36817056099971524 0.43917928676111373 0.4557889594528579
0.36837353899954906 0.43722520762090866 0.45676599902296044
0.36857592399974237 0.43722520762090866 0.457743038593063
0.3687820869999996 0.4382022471910112 0.45969711773326827
0.36898463899979106 0.4401563263312165 0.45676599902296044
0.36918813600004796 0.4382022471910112 0.4538348803126526
0.36939057699964906 0.441133365901319 0.4538348803126526
0.3695918879993769 0.441133365901319 0.45676599902296044
0.3697936620001201 0.4538348803126526 0.45676599902296044
0.36999769500016555 0.44211040547142155 0.4557889594528579
0.3702118209994296 0.43917928676111373 0.4538348803126526
0.3704403169995203 0.4401563263312165 0.4509037616023448
0.3706555170001593 0.4352711284807034 0.44992672203224227
0.37086610599999403 0.4382022471910112 0.44894968246213973
0.37107850899974437 0.4382022471910112 0.44406448461162684
0.37130220899962296 0.43624816805080613 0.4450415241817294
0.3715284829995653 0.4333170493404983 0.4430874450415241
0.3717309049998221 0.43429408891060084 0.4450415241817294
0.3719296419994862 0.42940889106008795 0.4479726428920372
0.37213291699936235 0.4235466536394723 0.4479726428920372
0.3723352649994922 0.4186614557889594 0.45188080117244755
0.3725345949997063 0.4137762579384465 0.4557889594528579
0.37275740599943674 0.40889106008793363 0.45676599902296044
0.37295671699939703 0.40205178309721545 0.4557889594528579
0.37315519499952643 0.39912066438690763 0.45676599902296044
0.3733541539995713 0.39228138739618945 0.45676599902296044
0.3735522429997218 0.3883732291157791 0.45188080117244755
0.37375038800018956 0.3883732291157791 0.44406448461162684
0.37394819899964205 0.38739618954567656 0.441133365901319
0.37418849099958607 0.38641914997557403 0.4401563263312165
0.37439396899935673 0.38251099169516367 0.44211040547142155
0.3746042060001855 0.3834880312652662 0.44406448461162684
0.37480679500004044 0.3834880312652662 0.44894968246213973
0.37500834699949337 0.38739618954567656 0.4528578407425501
0.3752099539997289 0.38446507083536874 0.4509037616023448
0.37541341399992234 0.3834880312652662 0.45676599902296044
0.37561729899971397 0.3854421104054715 0.4557889594528579
0.3758182769997802 0.3834880312652662 0.457743038593063
0.3760196069997619 0.38153395212506114 0.45676599902296044
0.37622808499963867 0.3854421104054715 0.4538348803126526
0.37646670999947673 0.38446507083536874 0.4509037616023448
0.37669589100005396 0.39716658524670256 0.44992672203224227
0.37691509100022813 0.4059599413776258 0.44894968246213973
0.3771423460002552 0.41475329750854906 0.44406448461162684
0.37739691600017977 0.4303859306301905 0.4430874450415241
0.37762417100020684 0.43722520762090866 0.43917928676111373
0.3778492040000856 0.44699560332193444 0.44211040547142155
0.3781024219997562 0.4538348803126526 0.4430874450415241
0.37837226899955567 0.4606741573033708 0.4450415241817294
0.3786547449999489 0.46458231558378116 0.44406448461162684
0.37892320299943094 0.47142159257449934 0.4460185637518319
0.3792011609994006 0.4665363947239862 0.4450415241817294
0.3794703049998134 0.4684904738641915 0.4460185637518319
0.37974561499959236 0.46946751343429405 0.4538348803126526
0.38000922099945456 0.46946751343429405 0.4528578407425501
0.3802802720001637 0.47435271128480694 0.4557889594528579
0.3805788589997974 0.47923790913532005 0.4509037616023448
0.3808985939995182 0.47728382999511476 0.4509037616023448
0.3811345340000116 0.47923790913532005 0.44894968246213973
0.3813393450000149 0.4880312652662433 0.4479726428920372
0.3815383789997213 0.4802149487054226 0.4479726428920372
0.3817384489993856 0.48412310698583294 0.44894968246213973
0.381944298000235 0.48412310698583294 0.4509037616023448
0.38219740400018054 0.4880312652662433 0.44894968246213973
0.3824011779997818 0.4929164631167562 0.4479726428920372
0.3826041559996156 0.4938935026868587 0.44699560332193444
0.3828069299997878 0.4938935026868587 0.4430874450415241
0.38315638699987176 0.49975574010747437 0.4401563263312165
0.38337793899972894 0.5017098192476794 0.4401563263312165
0.38358421300017653 0.5046409379579873 0.43722520762090866
0.3837880609999047 0.5017098192476794 0.4382022471910112
0.3839917979994425 0.5017098192476794 0.4352711284807034
0.38419336900005874 0.5036638983878847 0.43624816805080613
0.3843964210000195 0.5017098192476794 0.4382022471910112
0.3845980469995993 0.5007327796775769 0.4401563263312165
0.38480206199983513 0.5007327796775769 0.4401563263312165
0.38500542800011317 0.5036638983878847 0.441133365901319
0.3852078509999046 0.5036638983878847 0.44406448461162684
0.38541012499990757 0.5017098192476794 0.44211040547142155
0.3856121950002489 0.5017098192476794 0.44406448461162684
0.3858136179997018 0.5046409379579873 0.441133365901319
0.3860168920000433 0.5056179775280898 0.4450415241817294
0.38621890699960204 0.5017098192476794 0.44406448461162684
0.3864208850000068 0.49682462139716654 0.44406448461162684
0.38662295499943866 0.48900830483634583 0.44699560332193444
0.386828413999865 0.4811919882755251 0.44992672203224227
0.3870300779999525 0.47239863214460187 0.457743038593063
0.38723177799965924 0.4665363947239862 0.4538348803126526
0.3874330700000428 0.46262823644357587 0.45188080117244755
0.3876354559997708 0.45969711773326827 0.4528578407425501
0.3878365999999005 0.4557889594528579 0.45676599902296044
0.38803974500024196 0.44992672203224227 0.457743038593063
0.3882416119995469 0.4479726428920372 0.45969711773326827
0.38844331200016313 0.4450415241817294 0.4606741573033708
0.388644937999743 0.441133365901319 0.45481191988275516
0.38884598999993614 0.44406448461162684 0.46165119687347334
0.38904752300004475 0.4450415241817294 0.45676599902296044
0.3892487789998995 0.44699560332193444 0.4606741573033708
0.3894506830001774 0.44992672203224227 0.45969711773326827
0.3896529379999265 0.44699560332193444 0.4587200781631655
0.389854731000014 0.44894968246213973 0.4587200781631655
0.39007217200014566 0.44992672203224227 0.4557889594528579
0.39027598299981037 0.44894968246213973 0.4528578407425501
0.3904775900000459 0.44699560332193444 0.45188080117244755
0.39067897599943535 0.4430874450415241 0.44992672203224227
0.39088063899998815 0.44211040547142155 0.4479726428920372
0.3910825980001391 0.441133365901319 0.44992672203224227
0.39129403900005855 0.4352711284807034 0.44894968246213973
0.3915247750001072 0.43429408891060084 0.4479726428920372
0.3917716779997136 0.42745481191988266 0.44699560332193444
0.3920053410001856 0.42256961406936977 0.4509037616023448
0.3922155959999145 0.42256961406936977 0.4528578407425501
0.39242007400025614 0.40986809965803617 0.4509037616023448
0.39262505199985753 0.412799218368344 0.44894968246213973
0.392827288999797 0.4049829018075233 0.4528578407425501
0.3930291560000114 0.40009770395701016 0.4538348803126526
0.39323130100001435 0.39716658524670256 0.45481191988275516
0.393434277999404 0.39423546653639474 0.4606741573033708
0.3936365899999146 0.3883732291157791 0.4509037616023448
0.39384036399951583 0.3854421104054715 0.4557889594528579
0.3940432489998784 0.3854421104054715 0.45676599902296044
0.39427887500005454 0.38251099169516367 0.45676599902296044
0.39448027799971896 0.38153395212506114 0.45969711773326827
0.39468168199982756 0.38153395212506114 0.45969711773326827
0.394882196999788 0.37957987298485585 0.4587200781631655
0.3950831559996004 0.3805569125549584 0.4557889594528579
0.39528433800023777 0.37957987298485585 0.4557889594528579
0.39548587199988106 0.376648754274548 0.457743038593063
0.39568686799975694 0.3834880312652662 0.4606741573033708
0.39588767900022503 0.38251099169516367 0.45676599902296044
0.3960902499993608 0.3805569125549584 0.4587200781631655
0.3962955979995968 0.38641914997557403 0.4606741573033708
0.3964972610001496 0.38641914997557403 0.4636052760136786
0.39669849799975054 0.40009770395701016 0.46262823644357587
0.39690005000011297 0.4059599413776258 0.4557889594528579
0.3971006390002003 0.4157303370786516 0.4509037616023448
0.39730271000007633 0.42745481191988266 0.4538348803126526
0.3975060759994449 0.43624816805080613 0.44992672203224227
0.39770844299982855 0.4450415241817294 0.4557889594528579
0.3979109209994931 0.4479726428920372 0.45188080117244755
0.39811269500023627 0.4528578407425501 0.45188080117244755
0.39831524700002774 0.45676599902296044 0.4509037616023448
0.39851794700007304 0.4606741573033708 0.4509037616023448
0.3987321289996544 0.467513434294089 0.4528578407425501
0.39893521799967857 0.46946751343429405 0.4509037616023448
0.39913971399982984 0.4733756717147044 0.4538348803126526
0.39934098799949425 0.4684904738641915 0.4528578407425501
0.39954409599977225 0.4704445530043966 0.46165119687347334
0.39974659200015594 0.47142159257449934 0.46165119687347334
0.39994936599941866 0.46946751343429405 0.4538348803126526
0.4001502889996118 0.4753297508549097 0.4528578407425501
0.40035254399936093 0.47239863214460187 0.4528578407425501
0.40055500400012534 0.4811919882755251 0.45188080117244755
0.4007570369994937 0.4802149487054226 0.44699560332193444
0.40095877400017343 0.4831460674157304 0.45188080117244755
0.40116149299956305 0.486077186126038 0.44699560332193444
0.401363766999566 0.48900830483634583 0.44699560332193444
0.40156715200009785 0.48900830483634583 0.44894968246213973
0.4017689259999315 0.486077186126038 0.44992672203224227
0.4019759229995543 0.48705422569614076 0.4557889594528579
0.40222982599971147 0.4909623839765511 0.4509037616023448
0.4024969880001663 0.49193942354665365 0.45188080117244755
0.40270166899972537 0.4938935026868587 0.44992672203224227
0.40290170299977035 0.5036638983878847 0.45481191988275516
0.4031011810002383 0.49877870053737183 0.4460185637518319
0.4033014919996276 0.49682462139716654 0.4460185637518319
0.40349970999977813 0.49975574010747437 0.4460185637518319
0.4036992809997173 0.49877870053737183 0.44406448461162684
0.40390012900024885 0.49877870053737183 0.4430874450415241
0.40410062599949015 0.4978016609672691 0.43917928676111373
0.4042995299996619 0.49975574010747437 0.43917928676111373
0.4044992479994107 0.5007327796775769 0.44406448461162684
0.4046982449999632 0.5026868588177822 0.441133365901319
0.4048966489999657 0.49975574010747437 0.4401563263312165
0.4050948120002431 0.5026868588177822 0.43917928676111373
0.4052949560000343 0.5007327796775769 0.43917928676111373
0.40549341599944455 0.49975574010747437 0.4382022471910112
0.4056918010001027 0.5065950170981925 0.43624816805080613
0.4058914460001688 0.5017098192476794 0.43624816805080613
0.40614097799971205 0.5046409379579873 0.4333170493404983
0.40635323399965273 0.49975574010747437 0.4333170493404983
0.4065558599995711 0.48998534440644836 0.4401563263312165
0.4067575970002508 0.4851001465559355 0.441133365901319
0.4069603529997039 0.47728382999511476 0.441133365901319
0.40716373800023575 0.47239863214460187 0.4430874450415241
0.40736532699975214 0.46262823644357587 0.44699560332193444
0.40757556399967143 0.45969711773326827 0.4479726428920372
0.4077807639996536 0.45676599902296044 0.4479726428920372
0.40798444600022776 0.4538348803126526 0.44992672203224227
0.40818610899987107 0.4460185637518319 0.44992672203224227
0.4083876610002335 0.4450415241817294 0.4538348803126526
0.4085895090001941 0.4430874450415241 0.4538348803126526
0.4087944869997955 0.4430874450415241 0.4509037616023448
0.4089958349995868 0.4460185637518319 0.4528578407425501
0.4091972389996954 0.4479726428920372 0.45481191988275516
0.40940010600024834 0.44992672203224227 0.4538348803126526
0.40960097199968004 0.4460185637518319 0.4509037616023448
0.40980356099953497 0.44894968246213973 0.4557889594528579
0.4100051320001512 0.44894968246213973 0.4538348803126526
0.4102124239998375 0.4450415241817294 0.45188080117244755
0.41041434699945967 0.44211040547142155 0.45188080117244755
0.41061632499986445 0.4401563263312165 0.4587200781631655
0.41081856199980393 0.441133365901319 0.4509037616023448
0.4110215029995743 0.43624816805080613 0.45188080117244755
0.41122312900006364 0.4333170493404983 0.44894968246213973
0.41142538399981277 0.431362970200293 0.44992672203224227
0.4116270099993926 0.431362970200293 0.44992672203224227
0.41203778099952615 0.4264777723497801 0.45188080117244755
0.41226257299967983 0.42256961406936977 0.4509037616023448
0.4124660509996829 0.41670737664875435 0.44894968246213973
0.41266863999953785 0.4108451392281387 0.44992672203224227
0.4128712659994562 0.4079140205178309 0.45481191988275516
0.4130726510002205 0.40693698094772834 0.4557889594528579
0.41327357399950415 0.40009770395701016 0.4557889594528579
0.41347490299995115 0.39912066438690763 0.457743038593063
0.41367682599957334 0.39716658524670256 0.45969711773326827
0.41387869299978775 0.3932584269662922 0.45676599902296044
0.41408387399951607 0.3932584269662922 0.45676599902296044
0.4142858149998574 0.38935026868588185 0.4587200781631655
0.41448679299992364 0.3854421104054715 0.45481191988275516
0.41468827100015915 0.3834880312652662 0.45481191988275516
0.4148907299995699 0.3834880312652662 0.45969711773326827
0.4150916889993823 0.38251099169516367 0.45676599902296044
0.4152935379997871 0.3834880312652662 0.4538348803126526
0.41549399699943024 0.38739618954567656 0.45481191988275516
0.41569793799953914 0.38641914997557403 0.45481191988275516
0.4158992490001765 0.38446507083536874 0.457743038593063
0.4160999309997351 0.38739618954567656 0.45969711773326827
0.4163012230001186 0.3854421104054715 0.4606741573033708
0.41650179399948684 0.38739618954567656 0.46262823644357587
0.416702401999828 0.39423546653639474 0.46262823644357587
0.4169039910002539 0.4049829018075233 0.45969711773326827
0.41710530199998175 0.41475329750854906 0.45481191988275516
0.4173079089996463 0.41963849535906195 0.45188080117244755
0.4175169800000731 0.4323400097703958 0.4509037616023448
0.4177184390000548 0.441133365901319 0.4460185637518319
0.41791917599948647 0.4460185637518319 0.44211040547142155
0.4181218389994683 0.44894968246213973 0.4382022471910112
0.41832413199972507 0.45481191988275516 0.44406448461162684
0.4185290730001725 0.457743038593063 0.44406448461162684
0.4187309399994774 0.45969711773326827 0.44894968246213973
0.4189328430002206 0.46262823644357587 0.45188080117244755
0.4191350800001601 0.4636052760136786 0.45481191988275516
0.41933985499963455 0.4587200781631655 0.457743038593063
0.41954053599965846 0.4557889594528579 0.4606741573033708
0.41974160700010543 0.45969711773326827 0.4606741573033708
0.41994276999957947 0.46458231558378116 0.46458231558378116
0.4201498399997945 0.45969711773326827 0.45676599902296044
0.42035194799973397 0.46946751343429405 0.45969711773326827
0.4205555739999909 0.47142159257449934 0.4538348803126526
0.4207567180001206 0.4763067904250122 0.4587200781631655
0.420957862999785 0.4802149487054226 0.4528578407425501
0.4211584889999358 0.48216902784562765 0.44406448461162684
0.42136050399949454 0.4851001465559355 0.4460185637518319
0.42156151899962424 0.4851001465559355 0.43917928676111373
0.4217628489996059 0.48705422569614076 0.43917928676111373
0.42196484499982034 0.4851001465559355 0.44406448461162684
0.4221942849999323 0.48900830483634583 0.441133365901319
0.4223972629997661 0.49193942354665365 0.4430874450415241
0.422601518999727 0.4978016609672691 0.44406448461162684
0.42280336699968757 0.4978016609672691 0.44406448461162684
0.4230052889997751 0.5036638983878847 0.44699560332193444
0.4232070640000529 0.5056179775280898 0.4450415241817294
0.423408634000225 0.5065950170981925 0.441133365901319
0.42361035300018557 0.5036638983878847 0.43917928676111373
0.42381210799976543 0.5026868588177822 0.44211040547142155
0.4240136230000644 0.5036638983878847 0.43917928676111373
0.42421545300021535 0.5056179775280898 0.4382022471910112
0.42441706099998555 0.5046409379579873 0.4352711284807034
0.4246190759995443 0.5017098192476794 0.441133365901319
0.4248276270000133 0.5017098192476794 0.44211040547142155
0.42503556799965736 0.5017098192476794 0.441133365901319
0.425238249999893 0.5017098192476794 0.44211040547142155
0.425439615999494 0.5017098192476794 0.4460185637518319
0.42564050199962367 0.5026868588177822 0.44406448461162684
0.4258425910002188 0.5026868588177822 0.4479726428920372
0.4260434019997774 0.5036638983878847 0.4479726428920372
0.42626093499984563 0.49877870053737183 0.4479726428920372
0.42646269099986966 0.4948705422569615 0.4509037616023448
0.4266641869999148 0.48412310698583294 0.45188080117244755
0.42686679500002356 0.47728382999511476 0.4509037616023448
0.42706962499960355 0.4684904738641915 0.4509037616023448
0.4272713250002198 0.46946751343429405 0.4557889594528579
0.4274738949998209 0.46262823644357587 0.4538348803126526
0.42767792899940105 0.45676599902296044 0.45188080117244755
0.42788016600025003 0.45481191988275516 0.4538348803126526
0.42808195799989335 0.4538348803126526 0.4528578407425501
0.42828315799943084 0.45188080117244755 0.4528578407425501
0.4284846919999836 0.45481191988275516 0.44894968246213973
0.4286858919995211 0.45188080117244755 0.45481191988275516
0.42888718499943934 0.44699560332193444 0.4479726428920372
0.4290890699994634 0.44992672203224227 0.44992672203224227
0.4292956780000168 0.4509037616023448 0.4538348803126526
0.42949641499944846 0.45188080117244755 0.44894968246213973
0.4296980959998109 0.44894968246213973 0.4528578407425501
0.4299047779995817 0.45188080117244755 0.4479726428920372
0.43012123700009397 0.4538348803126526 0.4538348803126526
0.430363880999721 0.44699560332193444 0.457743038593063
0.4305767839996406 0.4450415241817294 0.4557889594528579
0.4307826140002362 0.4460185637518319 0.4557889594528579
0.4309857219996047 0.441133365901319 0.4528578407425501
0.4311872359994595 0.4430874450415241 0.4528578407425501
0.4313888249998854 0.43917928676111373 0.45481191988275516
0.4315902849994018 0.4382022471910112 0.4538348803126526
0.431792614999722 0.4352711284807034 0.4557889594528579
0.4319958329997462 0.42745481191988266 0.457743038593063
0.43219786699955876 0.4235466536394723 0.4587200781631655
0.43239888199968846 0.4176844162188569 0.45481191988275516
0.43260339599964936 0.4108451392281387 0.4557889594528579
0.43280757799948333 0.40889106008793363 0.45969711773326827
0.43301107400020555 0.40205178309721545 0.4528578407425501
0.43321294099951047 0.40009770395701016 0.4557889594528579
0.43341434499961906 0.3952125061064973 0.4538348803126526
0.433616489999622 0.3932584269662922 0.45969711773326827
0.433817819000069 0.38935026868588185 0.45676599902296044
0.43401972299943736 0.3932584269662922 0.45969711773326827
0.43422203399950376 0.38641914997557403 0.46165119687347334
0.43442467899967596 0.38446507083536874 0.45969711773326827
0.43462748999991163 0.38251099169516367 0.45969711773326827
0.4348281719994702 0.38153395212506114 0.45969711773326827
0.43502887199974793 0.37957987298485585 0.4587200781631655
0.43523047899998346 0.3834880312652662 0.45676599902296044
0.4354310680000708 0.38153395212506114 0.45676599902296044
0.4356329719994392 0.38641914997557403 0.45481191988275516
0.4358338570000342 0.3834880312652662 0.4538348803126526
0.43603557599999476 0.37957987298485585 0.4509037616023448
0.4362366839995957 0.38251099169516367 0.4509037616023448
0.43643747599981 0.38446507083536874 0.44992672203224227
0.436638194999432 0.3913043478260869 0.44699560332193444
0.4368393209997521 0.4040058622374205 0.44406448461162684
0.43704120599977614 0.4137762579384465 0.44406448461162684
0.4372425729998213 0.4284318514899854 0.44699560332193444
0.4374564029994872 0.4303859306301905 0.44894968246213973
0.43765978800001903 0.4430874450415241 0.45188080117244755
0.43786193300002196 0.4430874450415241 0.4509037616023448
0.4380792249994556 0.4509037616023448 0.45188080117244755
0.43828740600019955 0.4557889594528579 0.44894968246213973
0.43849525499990705 0.45676599902296044 0.44992672203224227
0.43869743599952926 0.467513434294089 0.44894968246213973
0.4389008769994689 0.46262823644357587 0.44894968246213973
0.43910250299995823 0.46458231558378116 0.4479726428920372
0.43931022200013103 0.4655593551538837 0.4509037616023448
0.4395582729994203 0.4606741573033708 0.44992672203224227
0.4397836210000605 0.46458231558378116 0.45188080117244755
0.4399936350000644 0.46458231558378116 0.4450415241817294
0.44021089099987876 0.4655593551538837 0.44406448461162684
0.4404272020001372 0.4655593551538837 0.4479726428920372
0.44093782199979614 0.4733756717147044 0.44211040547142155
0.4412550939996436 0.4753297508549097 0.4430874450415241
0.44149847900007444 0.47923790913532005 0.4460185637518319
0.4417362710000816 0.4782608695652173 0.44699560332193444
0.4419696559998556 0.47923790913532005 0.44894968246213973
0.4422232619999704 0.4831460674157304 0.44992672203224227
0.4424447399997007 0.48412310698583294 0.44992672203224227
0.44267264300015086 0.48705422569614076 0.4430874450415241
0.4429249719996733 0.4909623839765511 0.44406448461162684
0.44318402299995796 0.4929164631167562 0.44406448461162684
0.4434622219996527 0.4938935026868587 0.4450415241817294
0.4437143469995135 0.4938935026868587 0.44699560332193444
0.44397597199986194 0.49975574010747437 0.44992672203224227
0.44424117099970317 0.4978016609672691 0.4509037616023448
0.4445003700002417 0.49975574010747437 0.44894968246213973
0.4447774579994075 0.5017098192476794 0.44699560332193444
0.44502330500017706 0.5056179775280898 0.44992672203224227
0.4452493199996752 0.5075720566682951 0.4528578407425501
0.4454836859995339 0.5056179775280898 0.45188080117244755
0.4456891079998968 0.512457254518808 0.4509037616023448
0.4458950119997098 0.5144113336590133 0.45188080117244755
0.4461114340001586 0.5095261358085001 0.45188080117244755
0.4463158749995273 0.5046409379579873 0.45188080117244755
0.4465182789999744 0.4948705422569615 0.44894968246213973
0.446721923000041 0.4909623839765511 0.4528578407425501
0.44692551200023445 0.4811919882755251 0.44992672203224227
0.44712965700000495 0.47239863214460187 0.4509037616023448
0.4473318009995637 0.4665363947239862 0.45188080117244755
0.44753361199946085 0.4636052760136786 0.4557889594528579
0.4477373119998447 0.45481191988275516 0.4528578407425501
0.4479403089999323 0.4509037616023448 0.4538348803126526
0.448141767999914 0.4479726428920372 0.45969711773326827
0.44834893099960027 0.4450415241817294 0.4557889594528579
0.4485508529996878 0.44406448461162684 0.457743038593063
0.4487606279999454 0.441133365901319 0.457743038593063
0.4489809939996121 0.4460185637518319 0.45481191988275516
0.44918819399936183 0.4460185637518319 0.4538348803126526
0.44938948700018955 0.44699560332193444 0.4538348803126526
0.44959050199940975 0.44894968246213973 0.4557889594528579
0.44979253499968763 0.4509037616023448 0.4557889594528579
0.44999843899950065 0.4479726428920372 0.457743038593063
0.45021030499992776 0.4460185637518319 0.45481191988275516
0.4504140239996559 0.44699560332193444 0.4538348803126526
0.45061611300025106 0.4450415241817294 0.4509037616023448
0.4508202209999581 0.44211040547142155 0.44992672203224227
0.45102306900025724 0.4401563263312165 0.4450415241817294
0.45122980599990115 0.4382022471910112 0.44406448461162684
0.4514323579996926 0.43624816805080613 0.4430874450415241
0.4516339470001185 0.4333170493404983 0.441133365901319
0.45183536900003674 0.4323400097703958 0.4450415241817294
0.4520371990001877 0.42452369320957506 0.44894968246213973
0.45223910299955605 0.4206155349291647 0.44992672203224227
0.452442857999813 0.4157303370786516 0.4528578407425501
0.4526445949995832 0.4079140205178309 0.4538348803126526
0.45284614699994563 0.4040058622374205 0.4528578407425501
0.4530479220002235 0.40009770395701016 0.45188080117244755
0.4532497330001206 0.3961895456765998 0.44992672203224227
0.4534507849994043 0.39228138739618945 0.4430874450415241
0.45365196599959745 0.3903273082559844 0.44406448461162684
0.4538540550001926 0.3903273082559844 0.4430874450415241
0.4540764399998807 0.38446507083536874 0.4401563263312165
0.45428186299977824 0.3834880312652662 0.441133365901319
0.4544844889996966 0.3805569125549584 0.441133365901319
0.45468578100008017 0.3805569125549584 0.4460185637518319
0.4548898699995334 0.3805569125549584 0.4460185637518319
0.45509142199989583 0.37957987298485585 0.45188080117244755
0.4552926219994333 0.3805569125549584 0.45188080117244755
0.4554936189997534 0.38251099169516367 0.45188080117244755
0.4556953559995236 0.3834880312652662 0.45481191988275516
0.45589581500007625 0.38251099169516367 0.45481191988275516
0.45610055299948726 0.38153395212506114 0.4538348803126526
0.4563020300001881 0.38739618954567656 0.4528578407425501
0.45650313799978903 0.38935026868588185 0.4538348803126526
0.4567094120002366 0.40009770395701016 0.4509037616023448
0.45692616699943756 0.412799218368344 0.4460185637518319
0.45715397799995117 0.4255007327796776 0.44406448461162684
0.4574165659996652 0.43429408891060084 0.4450415241817294
0.45770402400012244 0.441133365901319 0.44406448461162684
0.4579750379998586 0.44894968246213973 0.44699560332193444
0.45867365499998414 0.45969711773326827 0.44699560332193444
0.4590918879994206 0.4636052760136786 0.4509037616023448
0.4593795869996029 0.4606741573033708 0.4538348803126526
0.4598126720002256 0.46165119687347334 0.4606741573033708
0.4601006109996888 0.4665363947239862 0.46165119687347334
0.46033908800018253 0.4665363947239862 0.46165119687347334
0.4605613249996168 0.47142159257449934 0.4636052760136786
0.4607905249995383 0.4704445530043966 0.46262823644357587
0.4610361679997368 0.4753297508549097 0.46262823644357587
0.4612790529999984 0.47728382999511476 0.457743038593063
0.46150371600015205 0.47923790913532005 0.457743038593063
0.46172208200005116 0.4811919882755251 0.45481191988275516
0.461937152000246 0.4909623839765511 0.4557889594528579
0.4622299619995829 0.48705422569614076 0.45188080117244755
0.46246117999999115 0.48705422569614076 0.45188080117244755
0.4627421750001304 0.495847581827064 0.4479726428920372
0.4630240959995717 0.49975574010747437 0.44406448461162684
0.4632424439996612 0.5007327796775769 0.441133365901319
