0 0.43722520762090866 0.45188080117244755
0.0014213189997462905 0.4235466536394723 0.45188080117244755
0.0016945719999057474 0.41963849535906195 0.4509037616023448
0.0019365099997230573 0.4176844162188569 0.4509037616023448
0.0023348529994109413 0.41963849535906195 0.44699560332193444
0.002574106999418291 0.42159257449926724 0.4430874450415241
0.00279813799988915 0.42256961406936977 0.4430874450415241
0.0030195959998309263 0.4255007327796776 0.4430874450415241
0.003255867999541806 0.4235466536394723 0.4479726428920372
0.0034894370000984054 0.4255007327796776 0.44699560332193444
0.003720357000020158 0.42256961406936977 0.44894968246213973
0.003942129999813915 0.42159257449926724 0.4509037616023448
0.004146717999901739 0.4206155349291647 0.45188080117244755
0.004346360999988974 0.4186614557889594 0.44894968246213973
0.004544245000033698 0.4137762579384465 0.45188080117244755
0.004743814999528695 0.41670737664875435 0.4538348803126526
0.004973901999619557 0.41475329750854906 0.4557889594528579
0.005181618999813509 0.412799218368344 0.457743038593063
0.00539202199979627 0.40986809965803617 0.45969711773326827
0.005604386999948474 0.4079140205178309 0.46165119687347334
0.005804141999760759 0.40693698094772834 0.4665363947239862
0.006013414999870292 0.3981436248168051 0.467513434294089
0.00626772399937181 0.39228138739618945 0.47142159257449934
0.006505347999336664 0.38739618954567656 0.4733756717147044
0.006719730999975582 0.3834880312652662 0.47728382999511476
0.006945410999833257 0.37957987298485585 0.4782608695652173
0.007179275999988022 0.376648754274548 0.48216902784562765
0.007389863999378576 0.37469467513434296 0.4811919882755251
0.007598321999466862 0.37176355642403514 0.47728382999511476
0.007809484000063094 0.3756717147044455 0.4763067904250122
0.008029349000025832 0.3756717147044455 0.4733756717147044
0.008244102999924507 0.3756717147044455 0.4733756717147044
0.008466487000077905 0.37957987298485585 0.4704445530043966
0.008736480000152369 0.3834880312652662 0.47142159257449934
0.008966567999777908 0.38739618954567656 0.4684904738641915
0.009189618000164046 0.39228138739618945 0.4704445530043966
0.009415000999979384 0.3961895456765998 0.46946751343429405
0.009626496999771916 0.4040058622374205 0.467513434294089
0.009837509999670146 0.41475329750854906 0.46458231558378116
0.01012352199995803 0.4284318514899854 0.4606741573033708
0.01032964699970762 0.44211040547142155 0.457743038593063
0.010582011000224156 0.46262823644357587 0.44992672203224227
0.01079145099993184 0.47239863214460187 0.4460185637518319
0.010991538999405748 0.4782608695652173 0.44406448461162684
0.011197070999514835 0.47923790913532005 0.44211040547142155
0.011399343999983103 0.4782608695652173 0.44211040547142155
0.011598412999774155 0.47435271128480694 0.4401563263312165
0.011798704999819165 0.4733756717147044 0.441133365901319
0.01199768199967366 0.4704445530043966 0.441133365901319
0.012195713999972213 0.4684904738641915 0.44406448461162684
0.012393819999488187 0.46458231558378116 0.44699560332193444
0.01259194500016747 0.46946751343429405 0.4479726428920372
0.012799217999599932 0.47239863214460187 0.45188080117244755
0.013006047000089893 0.4851001465559355 0.45481191988275516
0.013205987000219466 0.48998534440644836 0.44894968246213973
0.013404370999523962 0.5056179775280898 0.44894968246213973
0.01360319899958995 0.5173424523693209 0.4479726428920372
0.013800898999761557 0.5300439667806547 0.4479726428920372
0.0140039859998069 0.5349291646311676 0.44211040547142155
0.014207037000232958 0.5368832437713726 0.441133365901319
0.014406143999622145 0.540791402051783 0.4382022471910112
0.014609398000175133 0.540791402051783 0.4382022471910112
0.014808838000135438 0.5388373229115779 0.43917928676111373
0.015006722000180162 0.5378602833414754 0.441133365901319
0.015213531999506813 0.5359062042012701 0.4401563263312165
0.015420990000166057 0.5368832437713726 0.4401563263312165
0.015622447999703581 0.5329750854909623 0.44406448461162684
0.015820628999790642 0.5290669272105519 0.4401563263312165
0.016019975999370217 0.5280898876404494 0.4430874450415241
0.01621937900017656 0.5232046897899365 0.44406448461162684
0.016417207999438688 0.5212506106497312 0.441133365901319
0.016615609999462322 0.5134342940889105 0.441133365901319
0.016814253999655193 0.5036638983878847 0.4401563263312165
0.017012268000144104 0.4948705422569615 0.4382022471910112
0.017210207000061928 0.4831460674157304 0.44211040547142155
0.017409813999620383 0.4665363947239862 0.43917928676111373
0.01761029099998268 0.44894968246213973 0.4401563263312165
0.017812971000239486 0.43917928676111373 0.4352711284807034
0.01802231799956644 0.4303859306301905 0.4352711284807034
0.018225590999463748 0.431362970200293 0.4352711284807034
0.018426567999995314 0.43429408891060084 0.431362970200293
0.018628656000146293 0.4460185637518319 0.4264777723497801
0.018830725000043458 0.45481191988275516 0.4235466536394723
0.019032793999940623 0.4665363947239862 0.41963849535906195
0.019234511999457027 0.47435271128480694 0.4206155349291647
0.019437432999438897 0.47923790913532005 0.42256961406936977
0.019639299000118626 0.4831460674157304 0.42256961406936977
0.01984070099933888 0.48705422569614076 0.42452369320957506
0.020056362999639532 0.47923790913532005 0.4333170493404983
0.020260524999685003 0.4704445530043966 0.441133365901319
0.020461963999878208 0.4606741573033708 0.4460185637518319
0.02066268199996557 0.45188080117244755 0.45188080117244755
0.02086945500013826 0.4430874450415241 0.4538348803126526
0.02107182100007776 0.43917928676111373 0.457743038593063
0.02127288999963639 0.4303859306301905 0.46262823644357587
0.02147373699972377 0.42745481191988266 0.45969711773326827
0.021681416999854264 0.42452369320957506 0.4587200781631655
0.02190672699998686 0.4255007327796776 0.45676599902296044
0.02212573999986489 0.42256961406936977 0.45676599902296044
0.02234606799993344 0.42745481191988266 0.4557889594528579
0.022557933999451052 0.4303859306301905 0.45481191988275516
0.022761428999729105 0.42940889106008795 0.457743038593063
0.02296746100000746 0.4323400097703958 0.4538348803126526
0.02316841999981989 0.431362970200293 0.4528578407425501
0.02337072999944212 0.4352711284807034 0.4538348803126526
0.023587484000017866 0.4284318514899854 0.45188080117244755
0.023806127000170818 0.42745481191988266 0.45481191988275516
0.024022139999942738 0.42256961406936977 0.45481191988275516
0.024236801999904856 0.4186614557889594 0.45676599902296044
0.024460796999846934 0.4137762579384465 0.4557889594528579
0.024675736000062898 0.41182217879824123 0.46458231558378116
0.02489795299970865 0.40889106008793363 0.45676599902296044
0.025121113999375666 0.40693698094772834 0.45676599902296044
0.025342830999761645 0.4040058622374205 0.457743038593063
0.02556151199951273 0.4010747435271129 0.45676599902296044
0.02578080300008878 0.3952125061064973 0.45969711773326827
0.02600566799992521 0.3913043478260869 0.46165119687347334
0.02622797699950752 0.38935026868588185 0.46262823644357587
0.02644528699966031 0.3854421104054715 0.4655593551538837
0.026661504000003333 0.38251099169516367 0.4684904738641915
0.026881054999648768 0.38153395212506114 0.4733756717147044
0.027105086000119627 0.37957987298485585 0.467513434294089
0.02731856299942592 0.37957987298485585 0.4704445530043966
0.027528316999450908 0.37957987298485585 0.4704445530043966
0.027779256000030728 0.3756717147044455 0.4704445530043966
0.028011065000100643 0.3776257938446508 0.47239863214460187
0.028223745000104827 0.38251099169516367 0.4684904738641915
0.028432221999537433 0.3786028334147533 0.46946751343429405
0.028661160999945423 0.38446507083536874 0.4684904738641915
0.02887848899990786 0.3913043478260869 0.47239863214460187
0.029104946999723325 0.39716658524670256 0.467513434294089
0.029335645000173827 0.403028822667318 0.4665363947239862
0.029552269999840064 0.40986809965803617 0.46946751343429405
0.029759172000012768 0.4157303370786516 0.4684904738641915
0.03001386999949318 0.42452369320957506 0.467513434294089
0.030234734999794455 0.4264777723497801 0.46458231558378116
0.030449414999566216 0.441133365901319 0.4587200781631655
0.030686762000186718 0.44894968246213973 0.4557889594528579
0.03091862699966441 0.46165119687347334 0.4528578407425501
0.03161216599983163 0.48998534440644836 0.4450415241817294
0.03236961099992186 0.48705422569614076 0.44406448461162684
0.032611586999337305 0.48216902784562765 0.4450415241817294
0.03284026700021059 0.48216902784562765 0.44699560332193444
0.03305698399981338 0.4802149487054226 0.44992672203224227
0.03327958999943803 0.4802149487054226 0.44992672203224227
0.03349876999982371 0.4733756717147044 0.45188080117244755
0.033719652999934624 0.47239863214460187 0.44894968246213973
0.033933147999960056 0.4753297508549097 0.44894968246213973
0.03423521500008064 0.47923790913532005 0.44894968246213973
0.034458006999557256 0.4851001465559355 0.4528578407425501
0.03468839000015578 0.495847581827064 0.4450415241817294
0.03495318000022962 0.5075720566682951 0.44406448461162684
0.03528778300005797 0.5251587689301416 0.4460185637518319
0.03570703300010791 0.5349291646311676 0.4401563263312165
0.03601967399936257 0.5398143624816805 0.43917928676111373
0.03628212999956304 0.5427454811919883 0.441133365901319
0.036552161000145134 0.5427454811919883 0.4352711284807034
0.036805154999456136 0.5427454811919883 0.4352711284807034
0.03704618699975981 0.5388373229115779 0.4323400097703958
0.03729445799945097 0.5310210063507572 0.4323400097703958
0.03754458200000954 0.5134342940889105 0.4323400097703958
0.03778924299967912 0.5007327796775769 0.4352711284807034
0.03828336100013985 0.47728382999511476 0.4401563263312165
0.03873133199977019 0.4684904738641915 0.4401563263312165
0.0391872099999091 0.46458231558378116 0.44211040547142155
0.039497665999988385 0.4665363947239862 0.43917928676111373
0.03986063899992587 0.4684904738641915 0.44211040547142155
0.040226981999694544 0.4528578407425501 0.44894968246213973
0.04056315999969229 0.4401563263312165 0.44992672203224227
0.04088028200021654 0.4264777723497801 0.44699560332193444
0.041217514999516425 0.41670737664875435 0.4509037616023448
0.04166305999933684 0.41182217879824123 0.44992672203224227
0.042306118999476894 0.4264777723497801 0.44211040547142155
0.04267188799985888 0.42745481191988266 0.441133365901319
0.04301204700004746 0.4255007327796776 0.4460185637518319
0.04337366799973097 0.4157303370786516 0.4430874450415241
0.04375552900000912 0.40693698094772834 0.4460185637518319
0.04405531799966411 0.4040058622374205 0.44992672203224227
0.04433258999961254 0.40205178309721545 0.44992672203224227
0.0446054539997931 0.403028822667318 0.457743038593063
0.04492057599964028 0.4059599413776258 0.45969711773326827
0.045221346999824164 0.41182217879824123 0.4606741573033708
0.04568196499985788 0.4059599413776258 0.45969711773326827
0.046038790000238805 0.39716658524670256 0.46262823644357587
0.04634865299976809 0.3932584269662922 0.4665363947239862
0.046594943999480165 0.39423546653639474 0.4655593551538837
0.04682158699961292 0.3981436248168051 0.4684904738641915
0.047033451999595854 0.4010747435271129 0.4665363947239862
0.04725061399949482 0.403028822667318 0.467513434294089
0.04746575699937239 0.39716658524670256 0.46946751343429405
0.04774584299957496 0.39228138739618945 0.4704445530043966
0.04800218899981701 0.38935026868588185 0.4704445530043966
0.04823020200001338 0.38739618954567656 0.47142159257449934
0.04844858599972213 0.38641914997557403 0.47239863214460187
0.04866613600006531 0.3854421104054715 0.47435271128480694
0.04888738999943598 0.38641914997557403 0.47239863214460187
0.049101495999821054 0.38739618954567656 0.47435271128480694
0.0493591379999998 0.39228138739618945 0.47239863214460187
0.04962120599975606 0.39912066438690763 0.4733756717147044
0.049842978999549814 0.4049829018075233 0.46946751343429405
0.050136453000050096 0.4176844162188569 0.4655593551538837
0.050439206000191916 0.4382022471910112 0.4587200781631655
0.05076197600010346 0.467513434294089 0.4509037616023448
0.05121177999990323 0.4880312652662433 0.44699560332193444
0.05154414299977361 0.4978016609672691 0.441133365901319
0.05183256199961761 0.5007327796775769 0.44211040547142155
0.05213303599975916 0.4938935026868587 0.4450415241817294
0.052478249999694526 0.4831460674157304 0.44992672203224227
0.05276872499962337 0.4753297508549097 0.4538348803126526
0.05305270000008022 0.46946751343429405 0.45676599902296044
0.05334382299952267 0.467513434294089 0.4606741573033708
0.05361929799983045 0.47728382999511476 0.45481191988275516
0.05384868100009044 0.48412310698583294 0.44894968246213973
0.05420767299983709 0.5046409379579873 0.44699560332193444
0.05445011199935834 0.5163654127992183 0.44699560332193444
0.05469027300023299 0.5192965315095261 0.44406448461162684
0.05499000599957071 0.5232046897899365 0.44406448461162684
0.05526446299973031 0.5271128480703469 0.441133365901319
0.055582954999408685 0.5183194919394236 0.4401563263312165
0.0558340789993963 0.5163654127992183 0.441133365901319
0.05605901799935964 0.5134342940889105 0.43624816805080613
0.056276735000210465 0.5085490962383976 0.4352711284807034
0.056499303999771655 0.5085490962383976 0.4333170493404983
0.05678433499997482 0.5026868588177822 0.4333170493404983
0.057051347000196984 0.49877870053737183 0.43624816805080613
0.057324339999468066 0.5017098192476794 0.43722520762090866
0.057715887000085786 0.5007327796775769 0.43722520762090866
0.0580037869995067 0.5017098192476794 0.43624816805080613
0.058223948999511776 0.49877870053737183 0.4333170493404983
0.05843870299941045 0.5007327796775769 0.43429408891060084
0.05865490199994383 0.49877870053737183 0.431362970200293
0.058871803999863914 0.5007327796775769 0.431362970200293
0.05908531800014316 0.4948705422569615 0.4333170493404983
0.059317016000022704 0.4909623839765511 0.4352711284807034
0.05959980599982373 0.48705422569614076 0.43429408891060084
0.05989564999981667 0.4831460674157304 0.4352711284807034
0.06021688399960112 0.46946751343429405 0.44211040547142155
0.060522116999891296 0.45676599902296044 0.44699560332193444
0.0607601669998985 0.44406448461162684 0.44992672203224227
0.06099421699946106 0.43624816805080613 0.4538348803126526
0.06122539699936169 0.4303859306301905 0.457743038593063
0.061441261999789276 0.42256961406936977 0.4587200781631655
0.06165634999979375 0.4186614557889594 0.45969711773326827
0.061926620999656734 0.40889106008793363 0.4587200781631655
0.06218302300021605 0.4049829018075233 0.45676599902296044
0.062398535999818705 0.4040058622374205 0.45481191988275516
0.06260647599992808 0.403028822667318 0.45481191988275516
0.06281393399967783 0.40693698094772834 0.4528578407425501
0.06302579899966076 0.41670737664875435 0.44894968246213973
0.06324557199968694 0.4176844162188569 0.4479726428920372
0.06347165900024265 0.4235466536394723 0.45188080117244755
0.06368778399973962 0.431362970200293 0.45188080117244755
0.06390251899938448 0.4352711284807034 0.4509037616023448
0.0641262729996015 0.43624816805080613 0.4538348803126526
0.06436954499986314 0.43624816805080613 0.4538348803126526
0.06462857599944982 0.4333170493404983 0.4587200781631655
0.0648698119994151 0.42745481191988266 0.457743038593063
0.06510562099992967 0.4235466536394723 0.4557889594528579
0.06536002199936775 0.41963849535906195 0.4538348803126526
0.06564494099984586 0.4108451392281387 0.4557889594528579
0.06600459999935993 0.40009770395701016 0.45969711773326827
0.0663155550000738 0.3883732291157791 0.4606741573033708
0.06661545599945384 0.37957987298485585 0.46262823644357587
0.06686613500005478 0.37274059599413767 0.46165119687347334
0.06713073999981134 0.36492427943331696 0.4665363947239862
0.0674251219998041 0.35906204201270153 0.467513434294089
0.06771352299983846 0.35906204201270153 0.46946751343429405
0.06801362699934543 0.37176355642403514 0.4665363947239862
0.06829149099939968 0.3805569125549584 0.4665363947239862
0.06853246599985141 0.38935026868588185 0.4636052760136786
0.0687556829998357 0.3932584269662922 0.4636052760136786
0.0689954929994201 0.39423546653639474 0.4655593551538837
0.06923326499963878 0.39423546653639474 0.46165119687347334
0.06946411099943361 0.40009770395701016 0.46262823644357587
0.06969982800001162 0.4079140205178309 0.46165119687347334
0.06992467399959423 0.41475329750854906 0.46458231558378116
0.07028673999957391 0.42940889106008795 0.4636052760136786
0.07052277099955973 0.44406448461162684 0.45481191988275516
0.07107842499954131 0.4733756717147044 0.4509037616023448
0.07155439500002103 0.4831460674157304 0.44699560332193444
0.07178224200015393 0.4851001465559355 0.44699560332193444
0.07198875599988241 0.4851001465559355 0.4479726428920372
0.07219604700003401 0.48216902784562765 0.44894968246213973
0.07239843099978316 0.47728382999511476 0.45188080117244755
0.07260361199951149 0.4753297508549097 0.44894968246213973
0.07280644000002212 0.4733756717147044 0.44894968246213973
0.07300717599991913 0.47239863214460187 0.45188080117244755
0.073209059999499 0.4763067904250122 0.44992672203224227
0.07341107399952307 0.48412310698583294 0.45188080117244755
0.07362056900001335 0.4909623839765511 0.4509037616023448
0.0738227679994452 0.4929164631167562 0.44894968246213973
0.07404933699945104 0.5007327796775769 0.4528578407425501
0.07425273999979254 0.5065950170981925 0.4460185637518319
0.07445375299994339 0.5075720566682951 0.4460185637518319
0.07465511899954436 0.5075720566682951 0.44406448461162684
0.07485785500011843 0.5085490962383976 0.44211040547142155
0.0750603129999945 0.5075720566682951 0.4401563263312165
0.07526236400008202 0.512457254518808 0.43722520762090866
0.07546934099991631 0.512457254518808 0.4382022471910112
0.07567033599934803 0.5134342940889105 0.4352711284807034
0.0758716270001969 0.5114802149487054 0.4284318514899854
0.07607345599990367 0.5173424523693209 0.42745481191988266
0.07627735899950494 0.5163654127992183 0.4264777723497801
0.07647815000018454 0.5212506106497312 0.4255007327796776
0.07667940499959514 0.5251587689301416 0.4235466536394723
0.07688373299970408 0.5271128480703469 0.42452369320957506
0.07708424700012984 0.5280898876404494 0.4284318514899854
0.07728598299945588 0.5173424523693209 0.42940889106008795
0.0774880339995434 0.512457254518808 0.4323400097703958
0.07768869600022299 0.5056179775280898 0.4352711284807034
0.07789024700014124 0.4978016609672691 0.4352711284807034
0.0780922419999115 0.4929164631167562 0.43624816805080613
0.07828990399957547 0.48705422569614076 0.43624816805080613
0.07848810299947218 0.48705422569614076 0.43624816805080613
0.07868669099934777 0.4851001465559355 0.4382022471910112
0.07888494599956175 0.48705422569614076 0.43722520762090866
0.07908268199935264 0.4880312652662433 0.43429408891060084
0.07928025099954539 0.48705422569614076 0.4333170493404983
0.0794809319995693 0.48412310698583294 0.4333170493404983
0.07967979699969874 0.4802149487054226 0.4352711284807034
0.07987886699993396 0.4684904738641915 0.43624816805080613
0.08007734399961919 0.45481191988275516 0.44211040547142155
0.08027531999960047 0.441133365901319 0.44406448461162684
0.08047359400006826 0.4255007327796776 0.4509037616023448
0.08067197799937276 0.4206155349291647 0.4509037616023448
0.0808703989996502 0.412799218368344 0.45481191988275516
0.08106843099994876 0.40693698094772834 0.45969711773326827
0.0812669819997609 0.40205178309721545 0.45969711773326827
0.0814655149997634 0.39912066438690763 0.46165119687347334
0.08166649199938547 0.4010747435271129 0.46165119687347334
0.0818671719998747 0.39912066438690763 0.4587200781631655
0.08214333199975954 0.40205178309721545 0.4587200781631655
0.08234691999950883 0.41182217879824123 0.45481191988275516
0.08255109999936394 0.4157303370786516 0.45481191988275516
0.08275281799978984 0.42159257449926724 0.4538348803126526
0.08295394299966574 0.4264777723497801 0.45969711773326827
0.08315490099994349 0.4352711284807034 0.45481191988275516
0.08336215500003163 0.44211040547142155 0.4538348803126526
0.0835634659997595 0.4479726428920372 0.45188080117244755
0.08376483099982579 0.4450415241817294 0.45188080117244755
0.08396664100018825 0.44211040547142155 0.4528578407425501
0.08416926599966246 0.43429408891060084 0.4509037616023448
0.08437548399979278 0.42745481191988266 0.4509037616023448
0.08457734900002833 0.42159257449926724 0.4509037616023448
0.08477928899992548 0.41670737664875435 0.44894968246213973
0.08498065499952645 0.4137762579384465 0.44894968246213973
0.08518196499971964 0.41475329750854906 0.44992672203224227
0.0853825340000185 0.4137762579384465 0.44894968246213973
0.08558321399959823 0.412799218368344 0.4528578407425501
0.08578363600008743 0.41182217879824123 0.45481191988275516
0.085986815999604 0.40693698094772834 0.457743038593063
0.08619145899956493 0.40205178309721545 0.457743038593063
0.08640897299937933 0.39423546653639474 0.46262823644357587
0.08662285699938366 0.3913043478260869 0.46262823644357587
0.08683181499964121 0.38446507083536874 0.46946751343429405
0.087033772999348 0.3805569125549584 0.4684904738641915
0.0872346939995623 0.3786028334147533 0.4684904738641915
0.08743567100009386 0.3786028334147533 0.4733756717147044
0.08763672199984285 0.3776257938446508 0.4733756717147044
0.0878477539999949 0.3776257938446508 0.4753297508549097
0.08807058200000029 0.376648754274548 0.47239863214460187
0.08827629899951717 0.376648754274548 0.4763067904250122
0.0884783689998585 0.3776257938446508 0.4753297508549097
0.08867921599994588 0.37957987298485585 0.47435271128480694
0.08888006300003326 0.38153395212506114 0.47239863214460187
0.08908170599988807 0.3854421104054715 0.47239863214460187
0.08928568299961626 0.3913043478260869 0.47142159257449934
0.08948804899955576 0.39912066438690763 0.4704445530043966
0.08968908099996042 0.40889106008793363 0.46946751343429405
0.08989040999949793 0.4157303370786516 0.46458231558378116
0.09009875699939585 0.42256961406936977 0.46165119687347334
0.09030515899939928 0.43429408891060084 0.457743038593063
0.09050702500007901 0.4430874450415241 0.4528578407425501
0.09071233499980735 0.4538348803126526 0.44992672203224227
0.09092545899966353 0.4655593551538837 0.4479726428920372
0.09112782499960304 0.47239863214460187 0.4450415241817294
0.09132835699983843 0.48216902784562765 0.44406448461162684
0.09153188999971462 0.48705422569614076 0.4460185637518319
0.09173290399940015 0.4948705422569615 0.4430874450415241
0.091933472999699 0.495847581827064 0.4460185637518319
0.09213691300010396 0.4948705422569615 0.4460185637518319
0.09233938899978966 0.4880312652662433 0.4509037616023448
0.09254062499985594 0.48998534440644836 0.44992672203224227
0.09274410199941485 0.4880312652662433 0.44894968246213973
0.0929454489996715 0.48998534440644836 0.44699560332193444
0.0931474259996321 0.49193942354665365 0.4460185637518319
0.0933525689997623 0.495847581827064 0.44699560332193444
0.09355586099991342 0.49975574010747437 0.44406448461162684
0.09375759700014896 0.5046409379579873 0.4450415241817294
0.09400316499977635 0.5085490962383976 0.4450415241817294
0.0942082900000969 0.5114802149487054 0.4460185637518319
0.09440974799963442 0.5144113336590133 0.4450415241817294
0.09461024299980636 0.512457254518808 0.44406448461162684
0.09481162799966114 0.5114802149487054 0.4460185637518319
0.09501256699968508 0.5144113336590133 0.4479726428920372
0.0952139699993495 0.5144113336590133 0.44406448461162684
0.09541502100000798 0.512457254518808 0.44406448461162684
0.09561720100009552 0.5144113336590133 0.4401563263312165
0.0958180480001829 0.512457254518808 0.4401563263312165
0.0960187840000799 0.512457254518808 0.43917928676111373
0.09622061299978668 0.5095261358085001 0.43722520762090866
0.09642340499976854 0.5105031753786029 0.4333170493404983
0.09662626999943313 0.5056179775280898 0.43429408891060084
0.0968278949994783 0.5036638983878847 0.4333170493404983
0.09702868699969258 0.5007327796775769 0.43429408891060084
0.09723077499984356 0.49975574010747437 0.43722520762090866
0.0974371219999739 0.5007327796775769 0.431362970200293
0.09763872799976525 0.5017098192476794 0.431362970200293
0.09783985299964115 0.5026868588177822 0.4323400097703958
0.09805919999962498 0.5017098192476794 0.42940889106008795
0.09826076899935288 0.5017098192476794 0.42940889106008795
0.09846226399986335 0.49975574010747437 0.42940889106008795
0.09866379599952779 0.5017098192476794 0.4303859306301905
0.09886503199959407 0.49975574010747437 0.42940889106008795
0.09906654599944886 0.4978016609672691 0.4333170493404983
0.09926746699966316 0.495847581827064 0.4333170493404983
0.09946859199953906 0.4909623839765511 0.4333170493404983
0.09966955099935149 0.4909623839765511 0.43429408891060084
0.1001360209993436 0.46262823644357587 0.4450415241817294
0.10038379300021916 0.4528578407425501 0.45188080117244755
0.10058943599960912 0.431362970200293 0.45188080117244755
0.10079187599967554 0.4186614557889594 0.45676599902296044
0.10099505699963629 0.4059599413776258 0.4587200781631655
0.10119760699944891 0.40009770395701016 0.45676599902296044
0.10140086199953657 0.3913043478260869 0.4606741573033708
0.10160283899949718 0.38935026868588185 0.4684904738641915
0.10180537099950016 0.38935026868588185 0.4557889594528579
0.10200892200009548 0.3932584269662922 0.4538348803126526
0.10220986100011942 0.39423546653639474 0.4479726428920372
0.102411559999382 0.39912066438690763 0.44894968246213973
0.102613926000231 0.4040058622374205 0.44699560332193444
0.10281625500010705 0.4079140205178309 0.44699560332193444
0.1030176019994542 0.4108451392281387 0.44406448461162684
0.10321980099979555 0.412799218368344 0.44894968246213973
0.1034211480000522 0.41963849535906195 0.4460185637518319
0.1036273469999287 0.42452369320957506 0.4450415241817294
0.10383267499946669 0.42940889106008795 0.44406448461162684
0.10403470700020989 0.4333170493404983 0.44406448461162684
0.10423610999987432 0.4382022471910112 0.4460185637518319
0.1044378090000464 0.44406448461162684 0.44894968246213973
0.1046393229999012 0.4479726428920372 0.44894968246213973
0.10484003999954439 0.44406448461162684 0.45188080117244755
0.1050419619996319 0.44406448461162684 0.4509037616023448
0.1052429569999731 0.4401563263312165 0.45188080117244755
0.10544356299942592 0.4303859306301905 0.45188080117244755
0.10564452200014784 0.42159257449926724 0.45188080117244755
0.10584627600019303 0.4108451392281387 0.45481191988275516
0.10606067800017627 0.39912066438690763 0.45676599902296044
0.1062616919998618 0.3932584269662922 0.4606741573033708
0.10646324299978005 0.38739618954567656 0.46458231558378116
0.10666601599950809 0.38153395212506114 0.46946751343429405
0.10686765999980707 0.3805569125549584 0.4684904738641915
0.10707215499951417 0.38251099169516367 0.4684904738641915
0.10727496500021516 0.38446507083536874 0.4704445530043966
0.10747607099983725 0.38641914997557403 0.467513434294089
0.1076767149997977 0.3913043478260869 0.46946751343429405
0.10787828399952559 0.3952125061064973 0.47142159257449934
0.10808048299986694 0.39716658524670256 0.47142159257449934
0.10828494099951058 0.3932584269662922 0.4733756717147044
0.10848536199955561 0.39228138739618945 0.4733756717147044
0.10868639499949495 0.3903273082559844 0.4733756717147044
0.10888783399968816 0.3903273082559844 0.47435271128480694
0.10908881100021972 0.38641914997557403 0.47239863214460187
0.1092902509999476 0.3883732291157791 0.47239863214460187
0.10949202399933711 0.39228138739618945 0.4704445530043966
0.10969322299933992 0.3961895456765998 0.46946751343429405
0.10989645900008327 0.4040058622374205 0.4684904738641915
0.1101003240000864 0.4108451392281387 0.4665363947239862
0.1103045599993493 0.41963849535906195 0.46165119687347334
0.11050586999954248 0.4323400097703958 0.4557889594528579
0.11070834699967236 0.44699560332193444 0.4509037616023448
0.11090925000007701 0.4538348803126526 0.44699560332193444
0.11111291199995321 0.4636052760136786 0.44211040547142155
0.11131425900020986 0.4733756717147044 0.43917928676111373
0.11151497599985305 0.4802149487054226 0.43917928676111373
0.11171619400010968 0.48216902784562765 0.441133365901319
0.11191687399968941 0.4831460674157304 0.44211040547142155
0.11211766599990369 0.47923790913532005 0.4382022471910112
0.11231782799950452 0.47728382999511476 0.44406448461162684
0.11251987899959204 0.4753297508549097 0.4430874450415241
0.11272028099938325 0.4782608695652173 0.4450415241817294
0.11292094300006283 0.47923790913532005 0.4460185637518319
0.11312590199941042 0.48216902784562765 0.4450415241817294
0.11332784099977289 0.4831460674157304 0.44406448461162684
0.1135290399997757 0.48900830483634583 0.44406448461162684
0.11373023899977852 0.4938935026868587 0.4450415241817294
0.11393153100016207 0.49975574010747437 0.441133365901319
0.11415876599949115 0.5046409379579873 0.441133365901319
0.1143613539998114 0.5105031753786029 0.4430874450415241
0.11456236799949693 0.5114802149487054 0.44406448461162684
0.11476315900017653 0.5144113336590133 0.441133365901319
0.11496396999973513 0.5183194919394236 0.44406448461162684
0.11516485399988596 0.5202735710796287 0.4460185637518319
0.11536538600012136 0.5202735710796287 0.4509037616023448
0.11557332600023074 0.5183194919394236 0.4460185637518319
0.11577535800006444 0.5163654127992183 0.4450415241817294
0.1159766499995385 0.5183194919394236 0.4450415241817294
0.11617758899956243 0.5144113336590133 0.44406448461162684
0.11637891800000943 0.5114802149487054 0.441133365901319
0.11657996899975842 0.5085490962383976 0.4450415241817294
0.11678063099952851 0.5075720566682951 0.44211040547142155
0.11698244099989097 0.5075720566682951 0.4401563263312165
0.11718293600006291 0.5134342940889105 0.4382022471910112
0.11738378300015029 0.5056179775280898 0.4382022471910112
0.11758533400006854 0.5017098192476794 0.4352711284807034
0.11778660700019827 0.49975574010747437 0.4323400097703958
0.11798963899946102 0.49193942354665365 0.4303859306301905
0.1181990790000782 0.48900830483634583 0.4323400097703958
0.11842712899942853 0.48705422569614076 0.4264777723497801
0.11863619799987646 0.48412310698583294 0.4284318514899854
0.11886817399954452 0.48216902784562765 0.42940889106008795
0.11909837299936044 0.47728382999511476 0.4323400097703958
0.11933797799974855 0.47142159257449934 0.4352711284807034
0.11955550999937259 0.46946751343429405 0.43624816805080613
0.11977878299967415 0.46458231558378116 0.4401563263312165
0.11999479599944607 0.45969711773326827 0.44406448461162684
0.12021253199964121 0.45188080117244755 0.44699560332193444
0.12043463800000609 0.4509037616023448 0.4509037616023448
0.1206537620000745 0.4509037616023448 0.45481191988275516
0.12088786799995432 0.44992672203224227 0.45676599902296044
0.12117150899939588 0.44406448461162684 0.45676599902296044
0.12148046499987686 0.431362970200293 0.457743038593063
0.12177171700022882 0.4284318514899854 0.457743038593063
0.12212398700012272 0.4284318514899854 0.45676599902296044
0.12241025799994532 0.42940889106008795 0.44992672203224227
0.12268867700004193 0.42940889106008795 0.44894968246213973
0.12294415299948014 0.4284318514899854 0.4479726428920372
0.12318031399991014 0.4255007327796776 0.44699560332193444
0.12340153100012685 0.4235466536394723 0.44992672203224227
0.12362522900002659 0.42256961406936977 0.4509037616023448
0.12385196499963058 0.41670737664875435 0.4538348803126526
0.12407118200007972 0.41670737664875435 0.4538348803126526
0.12428797299980943 0.4157303370786516 0.45188080117244755
0.1244925789997069 0.4137762579384465 0.45188080117244755
0.12470238900004915 0.41475329750854906 0.45188080117244755
0.12490708799941785 0.4137762579384465 0.44992672203224227
0.12510793499950523 0.41475329750854906 0.45188080117244755
0.12531263399978343 0.412799218368344 0.4528578407425501
0.1255151659997864 0.40889106008793363 0.45676599902296044
0.12571710599968355 0.4079140205178309 0.45969711773326827
0.12591947199962306 0.40205178309721545 0.46458231558378116
0.12612359699960507 0.40205178309721545 0.46946751343429405
0.1263257029995657 0.3981436248168051 0.4733756717147044
0.1265272909995474 0.3952125061064973 0.47435271128480694
0.12672974899942346 0.3981436248168051 0.4782608695652173
0.12693163299991284 0.3903273082559844 0.47728382999511476
0.12713720299962006 0.3903273082559844 0.4753297508549097
0.1273389389998556 0.3913043478260869 0.4753297508549097
0.1275417489996471 0.3903273082559844 0.4753297508549097
0.1277426699998614 0.3932584269662922 0.47239863214460187
0.12794570200003363 0.39228138739618945 0.47435271128480694
0.12814743799935968 0.39423546653639474 0.4704445530043966
0.12834895200012397 0.39423546653639474 0.4704445530043966
0.1285502249993442 0.39423546653639474 0.4684904738641915
0.12875183100004506 0.3981436248168051 0.4684904738641915
0.1289536969998153 0.39912066438690763 0.4665363947239862
0.12915522899947973 0.39912066438690763 0.4665363947239862
0.12952407200009475 0.40205178309721545 0.467513434294089
0.1297498630001428 0.40205178309721545 0.46458231558378116
0.12997446899953502 0.40889106008793363 0.4636052760136786
0.130179501999919 0.41475329750854906 0.457743038593063
0.13038162599968928 0.42452369320957506 0.4528578407425501
0.13058495499990386 0.43722520762090866 0.45676599902296044
0.1307890429998224 0.4450415241817294 0.44406448461162684
0.1309909269994023 0.4587200781631655 0.44211040547142155
0.13120477399934316 0.4665363947239862 0.441133365901319
0.13143930499973067 0.4753297508549097 0.441133365901319
0.13170679899940296 0.4782608695652173 0.441133365901319
0.1319761449994985 0.4802149487054226 0.44406448461162684
0.13224015699961456 0.47923790913532005 0.44406448461162684
0.1325085759999638 0.4733756717147044 0.44992672203224227
0.13277701500010153 0.4753297508549097 0.44699560332193444
0.1330238789996656 0.4733756717147044 0.44894968246213973
0.13328470599935827 0.4753297508549097 0.45188080117244755
0.13356664399998408 0.4811919882755251 0.4509037616023448
0.1338812849999158 0.4938935026868587 0.4509037616023448
0.13418968499991024 0.5007327796775769 0.4509037616023448
0.13447427099981724 0.5017098192476794 0.4509037616023448
0.13473204299953068 0.5017098192476794 0.4479726428920372
0.13500853599998663 0.495847581827064 0.4479726428920372
0.13529095600006258 0.4948705422569615 0.4450415241817294
0.13557455999944068 0.495847581827064 0.44211040547142155
0.13585529400006635 0.5085490962383976 0.4382022471910112
0.13611854699956893 0.5192965315095261 0.43624816805080613
0.1363581340001474 0.5319980459208598 0.4323400097703958
0.13657790700017358 0.5427454811919883 0.43429408891060084
0.13680288300020038 0.5495847581827065 0.4323400097703958
0.13702848899993114 0.5534929164631168 0.4303859306301905
0.1372542799999792 0.5544699560332194 0.4255007327796776
0.1374807559996043 0.5476306790425012 0.42745481191988266
0.13771102899954712 0.540791402051783 0.4264777723497801
0.137977855999452 0.5202735710796287 0.42745481191988266
0.1382300719997147 0.4978016609672691 0.431362970200293
0.13845065900022746 0.47728382999511476 0.431362970200293
0.1386717099994712 0.457743038593063 0.4323400097703958
0.13888811200013151 0.441133365901319 0.4333170493404983
0.13910949599994638 0.4333170493404983 0.4333170493404983
0.13933180499952869 0.4284318514899854 0.43429408891060084
0.13960448399939196 0.431362970200293 0.43917928676111373
0.1398850149998907 0.42745481191988266 0.44211040547142155
0.14012321300015174 0.4284318514899854 0.4460185637518319
0.14044588999968255 0.4323400097703958 0.45481191988275516
0.14071267999952397 0.431362970200293 0.4606741573033708
0.14097510000010516 0.42452369320957506 0.45969711773326827
0.141232668000157 0.42159257449926724 0.46262823644357587
0.1414644030001 0.4176844162188569 0.4636052760136786
0.14169521299936605 0.4206155349291647 0.46262823644357587
0.14191400399977283 0.42256961406936977 0.45969711773326827
0.1421511839998857 0.4255007327796776 0.45676599902296044
0.14238823399955436 0.431362970200293 0.4587200781631655
0.14260683999964385 0.43624816805080613 0.4528578407425501
0.1428234639997754 0.4401563263312165 0.4509037616023448
0.14308264299961593 0.4382022471910112 0.44992672203224227
0.14335111799937295 0.43429408891060084 0.44992672203224227
0.14360963099989021 0.4284318514899854 0.44894968246213973
0.14387301399983699 0.42452369320957506 0.4528578407425501
0.1441349149999951 0.4235466536394723 0.4528578407425501
0.14439944599962473 0.4176844162188569 0.45188080117244755
0.1446715319998475 0.41670737664875435 0.44992672203224227
0.14494022899998527 0.41475329750854906 0.44894968246213973
0.1452084639995519 0.41182217879824123 0.44992672203224227
0.14549047599939513 0.40986809965803617 0.4509037616023448
0.14574120999986917 0.40693698094772834 0.4557889594528579
0.1459902050000892 0.4010747435271129 0.46262823644357587
0.14621988399994734 0.3981436248168051 0.45969711773326827
0.14644761999988987 0.39912066438690763 0.46165119687347334
0.1467024659996241 0.3952125061064973 0.46458231558378116
0.14691842399952293 0.3961895456765998 0.46458231558378116
0.14713601099992957 0.39228138739618945 0.4655593551538837
0.14737495000008494 0.3903273082559844 0.46946751343429405
0.14760668500002794 0.3883732291157791 0.467513434294089
0.1478282729995044 0.38641914997557403 0.4665363947239862
0.14805028599948855 0.38935026868588185 0.4665363947239862
0.14833235300011438 0.38446507083536874 0.4684904738641915
0.14865571599966643 0.38251099169516367 0.4665363947239862
0.14901409699996293 0.38251099169516367 0.467513434294089
0.14926688699961232 0.3854421104054715 0.47142159257449934
0.14947002999997494 0.3883732291157791 0.4704445530043966
0.14967213699947024 0.3932584269662922 0.4684904738641915
0.1498750579994521 0.39423546653639474 0.4704445530043966
0.15010512699973333 0.3981436248168051 0.46946751343429405
0.15030591799950344 0.40889106008793363 0.4636052760136786
0.1505094869999084 0.42159257449926724 0.46262823644357587
0.15071096399969974 0.4323400097703958 0.45969711773326827
0.15091351499995653 0.44406448461162684 0.45676599902296044
0.1511163619998115 0.4557889594528579 0.4528578407425501
0.1513226349998149 0.46458231558378116 0.44894968246213973
0.15152320400011376 0.47923790913532005 0.44699560332193444
0.1517248109994398 0.4831460674157304 0.4460185637518319
0.15192930600005639 0.486077186126038 0.4479726428920372
0.15213091199984774 0.48412310698583294 0.4528578407425501
0.15233233399976598 0.4851001465559355 0.4450415241817294
0.15253401399968425 0.4851001465559355 0.4430874450415241
0.1527355459993487 0.4831460674157304 0.4479726428920372
0.15293619000021863 0.48900830483634583 0.44699560332193444
0.15313888899981976 0.4851001465559355 0.44699560332193444
0.1533404949996111 0.48998534440644836 0.44699560332193444
0.15354195300005813 0.48705422569614076 0.44406448461162684
0.15374578199953248 0.49682462139716654 0.43624816805080613
0.1539700539997284 0.5026868588177822 0.4323400097703958
0.1541744939995624 0.512457254518808 0.4284318514899854
0.1543857669994395 0.5163654127992183 0.4284318514899854
0.15459381799973926 0.522227650219834 0.4303859306301905
0.15479596099976334 0.5212506106497312 0.4303859306301905
0.1549991969995972 0.5232046897899365 0.431362970200293
0.15520113699949434 0.5212506106497312 0.43917928676111373
0.1554023729995606 0.5192965315095261 0.43917928676111373
0.15560370099956344 0.5173424523693209 0.43917928676111373
0.15580582599977788 0.512457254518808 0.44211040547142155
0.1560074330000134 0.5085490962383976 0.4401563263312165
0.156210168999678 0.5095261358085001 0.441133365901319
0.15641296000012517 0.5065950170981925 0.4401563263312165
0.15661802900012844 0.5056179775280898 0.43917928676111373
0.15681961700011016 0.5046409379579873 0.4401563263312165
0.15702061299998604 0.5017098192476794 0.43917928676111373
0.15722236700003123 0.5007327796775769 0.4401563263312165
0.15742452899939963 0.49877870053737183 0.43917928676111373
0.15762695000012172 0.5017098192476794 0.4382022471910112
0.15782874199976504 0.5017098192476794 0.4401563263312165
0.15804753300017182 0.5056179775280898 0.43917928676111373
0.1582489539996459 0.5065950170981925 0.43722520762090866
0.15845043099943723 0.5065950170981925 0.43624816805080613
0.15865500000018073 0.5065950170981925 0.43722520762090866
0.15885697700014134 0.5026868588177822 0.4352711284807034
0.15905908300010196 0.49877870053737183 0.4401563263312165
0.15926276400023198 0.4978016609672691 0.4333170493404983
0.1594642029995157 0.49193942354665365 0.431362970200293
0.15966556900002615 0.4880312652662433 0.4323400097703958
0.1598671009996906 0.4782608695652173 0.4333170493404983
0.16007463299956726 0.4704445530043966 0.4382022471910112
0.16027727700020478 0.4606741573033708 0.4479726428920372
0.1604795129997001 0.4509037616023448 0.44406448461162684
0.1606809710001471 0.4460185637518319 0.44992672203224227
0.16088224399936735 0.43917928676111373 0.44992672203224227
0.16108344299937016 0.43429408891060084 0.45188080117244755
0.16128521599966916 0.4284318514899854 0.4557889594528579
0.16148697100015852 0.42452369320957506 0.4528578407425501
0.16189481299988984 0.4157303370786516 0.4528578407425501
0.16213973300000362 0.4157303370786516 0.4528578407425501
0.1623483759994997 0.4176844162188569 0.4509037616023448
0.16254913099965052 0.42452369320957506 0.4509037616023448
0.1627508299998226 0.42452369320957506 0.45188080117244755
0.1629541029997199 0.42452369320957506 0.44894968246213973
0.16315572799976508 0.42452369320957506 0.45188080117244755
0.16335694499957754 0.42256961406936977 0.4509037616023448
0.16355932900023618 0.4176844162188569 0.4538348803126526
0.16376037999998516 0.41475329750854906 0.4538348803126526
0.16396156100017834 0.41475329750854906 0.457743038593063
0.1641657780000969 0.40986809965803617 0.4528578407425501
0.16436699599944404 0.40986809965803617 0.4538348803126526
0.1645677500000602 0.4049829018075233 0.4557889594528579
0.16476865299955534 0.403028822667318 0.45481191988275516
0.1649698149994947 0.40009770395701016 0.4557889594528579
0.16517116199975135 0.39716658524670256 0.457743038593063
0.16537319399958506 0.3952125061064973 0.457743038593063
0.16557563399965147 0.3932584269662922 0.45969711773326827
0.16577770299954864 0.3883732291157791 0.46262823644357587
0.16598230999989028 0.38446507083536874 0.4636052760136786
0.16618534200006252 0.38251099169516367 0.4655593551538837
0.1663870960001077 0.3805569125549584 0.4665363947239862
0.1665887949993703 0.3786028334147533 0.467513434294089
0.166790975999902 0.3756717147044455 0.4684904738641915
0.16699243399943953 0.3737176355642404 0.46946751343429405
0.1671936699995058 0.37274059599413767 0.4753297508549097
0.1673960910002279 0.37469467513434296 0.47239863214460187
0.16759701299997687 0.3756717147044455 0.4733756717147044
0.16779780399974698 0.3776257938446508 0.4753297508549097
0.16799976199945377 0.3805569125549584 0.4782608695652173
0.16820068400011223 0.38935026868588185 0.47435271128480694
0.16840851199958706 0.39228138739618945 0.4733756717147044
0.16861669199988683 0.39716658524670256 0.4733756717147044
0.16881868800010125 0.4040058622374205 0.4782608695652173
0.16901947899987135 0.40986809965803617 0.47239863214460187
0.16922099299972615 0.412799218368344 0.46946751343429405
0.1694228030000886 0.4108451392281387 0.4704445530043966
0.16962365000017599 0.4176844162188569 0.4684904738641915
0.16982512699996732 0.4206155349291647 0.4684904738641915
0.17004382499999338 0.42452369320957506 0.467513434294089
0.17024546899938287 0.43429408891060084 0.46165119687347334
0.17044638999959716 0.44699560332193444 0.45969711773326827
0.1706519589997697 0.45969711773326827 0.4528578407425501
0.1708549730001323 0.4665363947239862 0.4509037616023448
0.1710583019994374 0.4763067904250122 0.44894968246213973
0.17125861200020154 0.4831460674157304 0.4479726428920372
0.17146020000018325 0.48900830483634583 0.4479726428920372
0.17185893099940586 0.49682462139716654 0.4450415241817294
0.17209279599956062 0.4948705422569615 0.4450415241817294
0.1722972170000503 0.4929164631167562 0.4479726428920372
0.1725007489994823 0.4978016609672691 0.4450415241817294
0.17270809599995118 0.5007327796775769 0.4479726428920372
0.1729113689998485 0.49877870053737183 0.4450415241817294
0.17311325299942837 0.49682462139716654 0.44406448461162684
0.1733174709997911 0.5007327796775769 0.44211040547142155
0.17352029899939225 0.49975574010747437 0.44406448461162684
0.17372181300015654 0.5007327796775769 0.44406448461162684
0.17392391999965184 0.5007327796775769 0.441133365901319
0.17415813600018737 0.5017098192476794 0.4430874450415241
0.17435944599947106 0.5056179775280898 0.44211040547142155
0.1745619049997913 0.5095261358085001 0.4460185637518319
0.17476326999985758 0.5134342940889105 0.44406448461162684
0.17496663600013562 0.5144113336590133 0.44406448461162684
0.17517646399937803 0.5114802149487054 0.441133365901319
0.17537879300016357 0.5144113336590133 0.44211040547142155
0.1755800659993838 0.5144113336590133 0.4401563263312165
0.17578178299936553 0.5163654127992183 0.4401563263312165
0.17598290800015093 0.5153883732291158 0.43722520762090866
0.17618514399964624 0.5163654127992183 0.43429408891060084
0.17638782499943773 0.5114802149487054 0.4323400097703958
0.176589783000054 0.5144113336590133 0.4333170493404983
0.17679146299997228 0.5114802149487054 0.42940889106008795
0.17699329199967906 0.5065950170981925 0.43624816805080613
0.17719467599999916 0.5026868588177822 0.4303859306301905
0.17739854199953697 0.4978016609672691 0.42940889106008795
0.17760479600019607 0.49193942354665365 0.4323400097703958
0.1778064029995221 0.48900830483634583 0.431362970200293
0.1780087500001173 0.48216902784562765 0.4323400097703958
0.1782131889995071 0.4763067904250122 0.43429408891060084
0.1784146479994888 0.4733756717147044 0.43429408891060084
0.1786157540000204 0.4733756717147044 0.4352711284807034
0.17881645299985394 0.4753297508549097 0.43722520762090866
0.1790180779998991 0.4753297508549097 0.4333170493404983
0.17921942500015575 0.4733756717147044 0.43429408891060084
0.17942079099975672 0.47435271128480694 0.4333170493404983
0.17962172999978065 0.47435271128480694 0.43429408891060084
0.1798251700001856 0.4733756717147044 0.43624816805080613
0.1800260359996173 0.47239863214460187 0.44211040547142155
0.18022821599970484 0.4665363947239862 0.44699560332193444
0.18042934099958075 0.46458231558378116 0.4509037616023448
0.18063113300013356 0.46262823644357587 0.4557889594528579
0.18083497999941756 0.4557889594528579 0.45969711773326827
0.18103621599948383 0.44992672203224227 0.4606741573033708
0.18123723000007885 0.43917928676111373 0.46165119687347334
0.18143822499951057 0.42940889106008795 0.45676599902296044
0.1816416459996617 0.4206155349291647 0.4538348803126526
0.18184236399974907 0.4157303370786516 0.4509037616023448
0.18205608100015525 0.4137762579384465 0.4538348803126526
0.18225801999960822 0.4137762579384465 0.4479726428920372
0.18245934900005523 0.41475329750854906 0.44992672203224227
0.18266082599984657 0.4157303370786516 0.4528578407425501
0.1828616359998705 0.4176844162188569 0.4557889594528579
0.18306300199947145 0.4176844162188569 0.4557889594528579
0.18326470099964354 0.4206155349291647 0.45969711773326827
0.18346678799935034 0.4186614557889594 0.45969711773326827
0.1836683390001781 0.4137762579384465 0.45969711773326827
0.18386957500024437 0.4157303370786516 0.46262823644357587
0.18407114499950694 0.41182217879824123 0.45676599902296044
0.18427232500016544 0.412799218368344 0.4587200781631655
0.1844747280001684 0.4079140205178309 0.45676599902296044
0.18467625999983284 0.40986809965803617 0.45188080117244755
0.1848771630002375 0.40693698094772834 0.44992672203224227
0.18508058399947913 0.4059599413776258 0.4538348803126526
0.18528204199992615 0.40889106008793363 0.4479726428920372
0.18548448199999257 0.40693698094772834 0.45188080117244755
0.18568623600003775 0.3981436248168051 0.45481191988275516
0.1858874539993849 0.39423546653639474 0.45969711773326827
0.18608850500004337 0.3913043478260869 0.4606741573033708
0.18628949999947508 0.3903273082559844 0.467513434294089
0.18649166199975298 0.38739618954567656 0.467513434294089
0.1866929899997558 0.38446507083536874 0.4684904738641915
0.1868934670001181 0.3854421104054715 0.47142159257449934
0.1870951109995076 0.3854421104054715 0.47239863214460187
0.18729671700020845 0.38446507083536874 0.47239863214460187
0.18749923099949228 0.38446507083536874 0.47435271128480694
0.18770005900023534 0.38446507083536874 0.4733756717147044
0.18791040599990083 0.38446507083536874 0.47239863214460187
0.188115734999883 0.38446507083536874 0.4704445530043966
0.18831717499961087 0.3854421104054715 0.47239863214460187
0.18851833699955023 0.38251099169516367 0.4665363947239862
0.18872094299968012 0.3854421104054715 0.4684904738641915
0.18892201200014824 0.38739618954567656 0.4704445530043966
0.1891236370001934 0.38739618954567656 0.46946751343429405
0.1893250769999213 0.3883732291157791 0.4704445530043966
0.18952623899986065 0.3903273082559844 0.4704445530043966
0.18972786399990582 0.39228138739618945 0.4665363947239862
0.18992945199988753 0.40205178309721545 0.46262823644357587
0.19015224299982947 0.4108451392281387 0.45969711773326827
0.19035464499938826 0.42940889106008795 0.45188080117244755
0.19069963699985237 0.4636052760136786 0.4460185637518319
0.1909297610000067 0.48412310698583294 0.44211040547142155
0.19113677499990445 0.5007327796775769 0.43917928676111373
0.1913395669998863 0.5163654127992183 0.43917928676111373
0.1915417840000373 0.5280898876404494 0.43722520762090866
0.19174444599957496 0.5319980459208598 0.43722520762090866
0.19194690399945102 0.5280898876404494 0.43624816805080613
0.19214875099987694 0.5202735710796287 0.43917928676111373
0.1923519319998377 0.5134342940889105 0.441133365901319
0.19255485299981956 0.5046409379579873 0.4460185637518319
0.19275566299984348 0.495847581827064 0.4479726428920372
0.19295617699935974 0.4909623839765511 0.44992672203224227
0.19315737599936256 0.48998534440644836 0.4528578407425501
0.19335840799976722 0.4802149487054226 0.45481191988275516
0.1935597179999604 0.47728382999511476 0.45676599902296044
0.1937612319998152 0.47239863214460187 0.45969711773326827
0.19398139399982028 0.46946751343429405 0.457743038593063
0.19418450000011944 0.46946751343429405 0.457743038593063
0.19438608800010115 0.47142159257449934 0.45481191988275516
0.1945867869999347 0.47435271128480694 0.45188080117244755
0.19478974499998003 0.4811919882755251 0.4479726428920372
0.19499081399953866 0.4811919882755251 0.44406448461162684
0.1951914579994991 0.48216902784562765 0.4430874450415241
0.1953919159996076 0.4909623839765511 0.4401563263312165
0.1955924670000968 0.4948705422569615 0.43624816805080613
0.19579412900020543 0.5007327796775769 0.4323400097703958
0.19599480899978516 0.5046409379579873 0.4303859306301905
0.19619532300021092 0.5134342940889105 0.4303859306301905
0.1963963549997061 0.5163654127992183 0.4264777723497801
0.19659694299934927 0.5144113336590133 0.4264777723497801
0.19679753099990194 0.5153883732291158 0.42745481191988266
0.19700034099969344 0.5163654127992183 0.4264777723497801
0.19720229899940023 0.5144113336590133 0.42940889106008795
0.19740370199997415 0.5085490962383976 0.4323400097703958
0.19760514199970203 0.5046409379579873 0.4323400097703958
0.1978055259996836 0.4929164631167562 0.4352711284807034
0.198008280999602 0.4851001465559355 0.43624816805080613
0.19821007199971064 0.4733756717147044 0.43624816805080613
0.19841249299952324 0.46458231558378116 0.43722520762090866
0.1986132109996106 0.46165119687347334 0.4401563263312165
0.1988177060002272 0.4636052760136786 0.4401563263312165
0.19901881199984928 0.4733756717147044 0.4401563263312165
0.19922058500014828 0.47923790913532005 0.4401563263312165
0.1994211549999818 0.4880312652662433 0.4352711284807034
0.19963287199971091 0.4948705422569615 0.4333170493404983
0.19983279299958667 0.495847581827064 0.43624816805080613
0.20003293699937785 0.48900830483634583 0.4401563263312165
0.20023452499935956 0.4802149487054226 0.4430874450415241
0.20043518700003915 0.4684904738641915 0.4460185637518319
0.2006369229993652 0.46165119687347334 0.44992672203224227
0.20083880699985457 0.4538348803126526 0.4479726428920372
0.20103985799960356 0.4479726428920372 0.4460185637518319
0.2012445749996914 0.4401563263312165 0.44992672203224227
0.20150590199955332 0.431362970200293 0.4479726428920372
0.20172034200004418 0.4235466536394723 0.44699560332193444
0.20193194799958292 0.4206155349291647 0.44406448461162684
0.20220432999940385 0.4176844162188569 0.4430874450415241
0.2024263619996418 0.4157303370786516 0.4430874450415241
0.20264546799990057 0.4137762579384465 0.44406448461162684
0.2028550559998621 0.4137762579384465 0.44894968246213973
0.20306980999976076 0.4137762579384465 0.4460185637518319
0.2032918229997449 0.41670737664875435 0.44699560332193444
0.2035154479999619 0.41670737664875435 0.4538348803126526
0.20372466499975417 0.41475329750854906 0.44894968246213973
0.2039709179998681 0.4157303370786516 0.45188080117244755
0.204233153000132 0.41475329750854906 0.45188080117244755
0.20451294299982692 0.4157303370786516 0.45481191988275516
0.2047561589997713 0.4186614557889594 0.45481191988275516
0.20502485699944373 0.4157303370786516 0.46262823644357587
0.2052904430001945 0.412799218368344 0.4606741573033708
0.2055615660001422 0.4079140205178309 0.4606741573033708
0.205835689000196 0.39912066438690763 0.4655593551538837
0.2061512929994933 0.3913043478260869 0.467513434294089
0.206369714000175 0.38446507083536874 0.4665363947239862
0.20658754199939722 0.3805569125549584 0.46946751343429405
0.20680987000014284 0.3786028334147533 0.4733756717147044
0.207028920999619 0.37274059599413767 0.4733756717147044
0.207253877999392 0.3707865168539326 0.47239863214460187
0.20747748399935517 0.3678553981436248 0.4733756717147044
0.20769977500003733 0.3688324377137273 0.4782608695652173
0.20790623299944855 0.36980947728383007 0.4763067904250122
0.20810802500000136 0.3737176355642404 0.4782608695652173
0.20830920600019454 0.3776257938446508 0.4753297508549097
0.20851209000011295 0.3834880312652662 0.4782608695652173
0.20871312199960812 0.3913043478260869 0.4763067904250122
0.2089146910002455 0.39716658524670256 0.47435271128480694
0.20911611300016375 0.40205178309721545 0.47239863214460187
0.20931971899972268 0.40986809965803617 0.47239863214460187
0.20952088099966204 0.4206155349291647 0.47239863214460187
0.20972474599966517 0.431362970200293 0.46946751343429405
0.209926538000218 0.44699560332193444 0.467513434294089
0.21015807000003406 0.45969711773326827 0.46262823644357587
0.21037375000014435 0.47239863214460187 0.45969711773326827
0.210578207999788 0.4811919882755251 0.45676599902296044
0.21077883299949463 0.48705422569614076 0.4557889594528579
0.21097997600008966 0.48900830483634583 0.45188080117244755
0.2111816380001983 0.4909623839765511 0.44894968246213973
0.21138287399935507 0.4909623839765511 0.4479726428920372
0.21158392500001355 0.48900830483634583 0.44699560332193444
0.21178532799967797 0.48705422569614076 0.44699560332193444
0.2119859340000403 0.4811919882755251 0.4460185637518319
0.21218698499978927 0.47142159257449934 0.4460185637518319
0.21241547999943577 0.4636052760136786 0.4430874450415241
0.21267430699936085 0.4509037616023448 0.4430874450415241
0.2129865589995461 0.44406448461162684 0.4430874450415241
0.21331708799971238 0.4460185637518319 0.44211040547142155
0.21365187599985802 0.4557889594528579 0.44211040547142155
0.21410408799965808 0.4802149487054226 0.441133365901319
0.21460822399967583 0.4978016609672691 0.43722520762090866
0.21506702799979394 0.5026868588177822 0.43624816805080613
0.21549849999973958 0.5065950170981925 0.43429408891060084
0.21581832599986228 0.5065950170981925 0.4303859306301905
0.21612739200008946 0.5085490962383976 0.42745481191988266
0.21640294200005883 0.5085490962383976 0.42940889106008795
0.21666869499949826 0.5085490962383976 0.4303859306301905
0.21692550299940194 0.5065950170981925 0.4323400097703958
0.21718631200019445 0.5017098192476794 0.4352711284807034
0.21760894999988523 0.4978016609672691 0.43722520762090866
0.21792755400019814 0.5017098192476794 0.43624816805080613
0.21823341700019228 0.4909623839765511 0.43624816805080613
0.21847624499969243 0.48216902784562765 0.43722520762090866
0.2187078319993816 0.4753297508549097 0.42940889106008795
0.21898282500023925 0.47728382999511476 0.4303859306301905
0.21928022599968244 0.4831460674157304 0.42940889106008795
0.21958034799990855 0.4831460674157304 0.43722520762090866
0.2198494349995599 0.4782608695652173 0.44211040547142155
0.22013020599933952 0.47142159257449934 0.4528578407425501
0.22040316299990081 0.46165119687347334 0.4557889594528579
0.2206776559996797 0.45188080117244755 0.46458231558378116
0.22094550200017693 0.4430874450415241 0.4684904738641915
0.2212320130001899 0.441133365901319 0.4684904738641915
0.22161761600000318 0.43722520762090866 0.4655593551538837
0.22203080999952363 0.4460185637518319 0.4587200781631655
0.22236143099962646 0.441133365901319 0.45676599902296044
0.22260599999935948 0.43624816805080613 0.4528578407425501
0.2228935299999648 0.42159257449926724 0.45188080117244755
0.223228281000047 0.41182217879824123 0.44699560332193444
0.22351544100001774 0.4137762579384465 0.4450415241817294
0.22374719500021456 0.41670737664875435 0.4430874450415241
0.22395168999992165 0.4206155349291647 0.44699560332193444
0.22430084899951908 0.431362970200293 0.4450415241817294
0.2245320289994197 0.43624816805080613 0.44992672203224227
0.22473552399969776 0.4382022471910112 0.45188080117244755
0.22493748199940455 0.4352711284807034 0.4557889594528579
0.225139606999619 0.42940889106008795 0.45969711773326827
0.22534367600019323 0.41963849535906195 0.4655593551538837
0.22554661599951942 0.40986809965803617 0.467513434294089
0.22574801900009334 0.3981436248168051 0.4704445530043966
0.22598495799957163 0.3932584269662922 0.4704445530043966
0.2261918969998078 0.3883732291157791 0.4684904738641915
0.2263936150002337 0.38935026868588185 0.4665363947239862
0.2265943510001307 0.3913043478260869 0.4655593551538837
0.2267952719994355 0.3913043478260869 0.46458231558378116
0.22699759999977687 0.3932584269662922 0.4636052760136786
0.22719831799986423 0.39228138739618945 0.46458231558378116
0.22740048000014212 0.3932584269662922 0.46458231558378116
0.22760227099934127 0.38935026868588185 0.467513434294089
0.2278032849999363 0.3834880312652662 0.4684904738641915
0.2280043549999391 0.3776257938446508 0.4704445530043966
0.22820570200019574 0.37469467513434296 0.47142159257449934
0.2284077710000929 0.37274059599413767 0.4704445530043966
0.22861293299956742 0.3659013190034197 0.47239863214460187
0.22881568699995114 0.3678553981436248 0.47239863214460187
0.22901664599976357 0.37274059599413767 0.4733756717147044
0.22921897400010494 0.376648754274548 0.4704445530043966
0.22942191399943113 0.38446507083536874 0.4665363947239862
0.22962631700011116 0.3981436248168051 0.4665363947239862
0.2298276639994583 0.4137762579384465 0.467513434294089
0.23005513999942195 0.4352711284807034 0.46262823644357587
0.2302695419994052 0.45481191988275516 0.45969711773326827
0.230487574000108 0.47435271128480694 0.4528578407425501
0.23073075399952359 0.4802149487054226 0.44699560332193444
0.23096448900014366 0.4851001465559355 0.44211040547142155
0.23126409299948136 0.48998534440644836 0.4401563263312165
0.2315003469993826 0.4880312652662433 0.4382022471910112
0.23172784100006538 0.4948705422569615 0.43917928676111373
0.2319897609995678 0.4909623839765511 0.4430874450415241
0.2322682359999817 0.48998534440644836 0.44992672203224227
0.2325281739995262 0.48412310698583294 0.44894968246213973
0.23278198299976793 0.4831460674157304 0.44992672203224227
0.23301781099962682 0.4811919882755251 0.4528578407425501
0.23324874999980238 0.4880312652662433 0.45188080117244755
0.2334659489997648 0.48705422569614076 0.4538348803126526
0.2336885180002355 0.48900830483634583 0.45188080117244755
0.23390845699941565 0.49682462139716654 0.4479726428920372
0.2341529699997409 0.49682462139716654 0.4538348803126526
0.23435718699965946 0.49877870053737183 0.44406448461162684
0.23456151600021258 0.5036638983878847 0.441133365901319
0.2347659549996024 0.5075720566682951 0.43917928676111373
0.23496807999981684 0.5114802149487054 0.43624816805080613
0.23517013099990436 0.5163654127992183 0.43624816805080613
0.2353718670001399 0.5173424523693209 0.43429408891060084
0.23557856600018567 0.5232046897899365 0.4303859306301905
0.23578476500006218 0.524181729360039 0.4303859306301905
0.23598887099979038 0.5212506106497312 0.431362970200293
0.23619082899949717 0.5173424523693209 0.4303859306301905
0.23639247299979615 0.5144113336590133 0.431362970200293
0.23659613400013768 0.5095261358085001 0.43429408891060084
0.23679970400007733 0.5085490962383976 0.4333170493404983
0.23700079199988977 0.5065950170981925 0.43722520762090866
0.23720358299942745 0.5065950170981925 0.4430874450415241
0.23740609699962079 0.5056179775280898 0.441133365901319
0.23761046300023736 0.5036638983878847 0.441133365901319
0.2378194020002411 0.5007327796775769 0.441133365901319
0.23805748899940227 0.495847581827064 0.4401563263312165
0.2382797619993653 0.4909623839765511 0.43917928676111373
0.23849286799941183 0.4880312652662433 0.43722520762090866
0.2387055290000717 0.4851001465559355 0.43722520762090866
0.23891715399986424 0.48216902784562765 0.4352711284807034
0.23914201899970067 0.4763067904250122 0.43429408891060084
0.23939312399943447 0.4733756717147044 0.43624816805080613
0.23963267399994947 0.47239863214460187 0.4382022471910112
0.2398824459996831 0.4587200781631655 0.44211040547142155
0.24014399599946046 0.4509037616023448 0.4460185637518319
0.24039393400016706 0.44406448461162684 0.44992672203224227
0.2406303729994761 0.4382022471910112 0.4538348803126526
0.24087431199950515 0.43429408891060084 0.4528578407425501
0.24111195400018914 0.4303859306301905 0.4557889594528579
0.24133428299955995 0.4264777723497801 0.45481191988275516
0.24154679599996598 0.4264777723497801 0.45481191988275516
0.2417641800002457 0.42256961406936977 0.4538348803126526
0.24202041499938787 0.42159257449926724 0.44894968246213973
0.24225251999996544 0.4206155349291647 0.44894968246213973
0.24248699599957035 0.4206155349291647 0.44894968246213973
0.242703101999723 0.4157303370786516 0.44894968246213973
0.24291061599979002 0.4108451392281387 0.4479726428920372
0.24313633299971116 0.4059599413776258 0.44894968246213973
0.24334592099967267 0.403028822667318 0.44992672203224227
0.24355360099980317 0.3961895456765998 0.4509037616023448
0.24376178100010293 0.3932584269662922 0.44992672203224227
0.24396410999997897 0.39423546653639474 0.44992672203224227
0.24416679000023578 0.3932584269662922 0.4509037616023448
0.2443701369993505 0.38935026868588185 0.45188080117244755
0.24457274399992457 0.38641914997557403 0.4528578407425501
0.24477438699977938 0.3854421104054715 0.4557889594528579
0.244975455999338 0.38935026868588185 0.457743038593063
0.24517985900001804 0.3883732291157791 0.45969711773326827
0.24538342799951351 0.3913043478260869 0.4636052760136786
0.24558568300017214 0.3932584269662922 0.4655593551538837
0.24578627099981532 0.39228138739618945 0.4684904738641915
0.2459941359993536 0.3913043478260869 0.46946751343429405
0.24621668700001464 0.3932584269662922 0.47142159257449934
0.24641921900001762 0.39228138739618945 0.47239863214460187
0.24662504699972487 0.39912066438690763 0.47142159257449934
0.2468270429999393 0.39912066438690763 0.4704445530043966
0.2470286859997941 0.40205178309721545 0.46946751343429405
0.24723010700017767 0.4059599413776258 0.4704445530043966
0.2474315649997152 0.4049829018075233 0.47142159257449934
0.24763468999935867 0.412799218368344 0.47239863214460187
0.24783640799978457 0.4108451392281387 0.4733756717147044
0.24803784799951245 0.4010747435271129 0.4763067904250122
0.2482386020001286 0.3981436248168051 0.47728382999511476
0.24843957899975067 0.39423546653639474 0.47923790913532005
0.24864100000013423 0.3932584269662922 0.4753297508549097
0.2488424949997352 0.39228138739618945 0.4704445530043966
0.24904341699948418 0.39423546653639474 0.46946751343429405
0.24924457799988886 0.3952125061064973 0.4665363947239862
0.2494477589998496 0.4010747435271129 0.46458231558378116
0.24964879099934478 0.40986809965803617 0.46165119687347334
0.24985023099998216 0.4176844162188569 0.457743038593063
0.2500778180001362 0.42940889106008795 0.4509037616023448
0.250291257999379 0.4430874450415241 0.44894968246213973
0.25049338299959345 0.45481191988275516 0.4460185637518319
0.25069484100004047 0.4684904738641915 0.4430874450415241
0.25089659500008565 0.4782608695652173 0.44699560332193444
0.2510997569997926 0.4880312652662433 0.43917928676111373
0.25130221499966865 0.4938935026868587 0.4382022471910112
0.25150391399984073 0.495847581827064 0.4401563263312165
0.2517068540000764 0.49877870053737183 0.441133365901319
0.25190908999957173 0.495847581827064 0.4430874450415241
0.25211060399942653 0.4948705422569615 0.4450415241817294
0.25231226599953516 0.4978016609672691 0.4479726428920372
0.25251416799983417 0.5085490962383976 0.44699560332193444
0.2527161079997313 0.5007327796775769 0.44699560332193444
0.2529179369994381 0.5065950170981925 0.4479726428920372
0.25311946900001203 0.5095261358085001 0.44992672203224227
0.2533255749995078 0.5105031753786029 0.4460185637518319
0.25354556999991473 0.5134342940889105 0.4509037616023448
0.25375186200017197 0.5065950170981925 0.45188080117244755
0.25399015199946007 0.49975574010747437 0.4509037616023448
0.2545058989999234 0.486077186126038 0.4538348803126526
0.2547461160002058 0.4753297508549097 0.457743038593063
0.25495214799957466 0.4802149487054226 0.45676599902296044
0.2551536439996198 0.4704445530043966 0.45676599902296044
0.25535471300008794 0.4733756717147044 0.45676599902296044
0.25555780099966796 0.4753297508549097 0.4528578407425501
0.25576172199998837 0.4802149487054226 0.4509037616023448
0.2559644020002452 0.4811919882755251 0.44699560332193444
0.25616700899990974 0.48412310698583294 0.4430874450415241
0.2563690970000607 0.4880312652662433 0.4401563263312165
0.2565706659997886 0.4948705422569615 0.43624816805080613
0.2567728829999396 0.5036638983878847 0.431362970200293
0.2569743419999213 0.5144113336590133 0.42452369320957506
0.2571772259998397 0.5251587689301416 0.4176844162188569
0.2573782769995887 0.5398143624816805 0.4186614557889594
0.2575846609997825 0.550561797752809 0.4137762579384465
0.25778728499972203 0.5583781143136297 0.41182217879824123
0.25799889199970494 0.5564240351734244 0.4157303370786516
0.2582006459997501 0.5446995603321934 0.41670737664875435
0.2584039009998378 0.5319980459208598 0.4186614557889594
0.25860506299977715 0.512457254518808 0.4206155349291647
0.25880689099994925 0.4929164631167562 0.42452369320957506
0.2590077380000366 0.47435271128480694 0.42745481191988266
0.2592091779997645 0.457743038593063 0.4333170493404983
0.25941422899995814 0.43917928676111373 0.4352711284807034
0.2596153349995802 0.4255007327796776 0.43917928676111373
0.25981632999992144 0.41670737664875435 0.4460185637518319
0.2600185289993533 0.40889106008793363 0.44894968246213973
0.26021937699988484 0.40889106008793363 0.44894968246213973
0.26042127900018386 0.4137762579384465 0.45188080117244755
0.260638106999977 0.4186614557889594 0.4509037616023448
0.2608439539999381 0.4264777723497801 0.44992672203224227
0.26104694999958156 0.4303859306301905 0.44992672203224227
0.2612510190001558 0.42940889106008795 0.4479726428920372
0.26145277399973565 0.4323400097703958 0.44699560332193444
0.26165750899963314 0.4323400097703958 0.4479726428920372
0.26185891200020706 0.43624816805080613 0.4479726428920372
0.26208722199953627 0.4333170493404983 0.45188080117244755
0.2622891979999622 0.4333170493404983 0.44894968246213973
0.26249028599977464 0.42940889106008795 0.4509037616023448
0.2626937810000527 0.4264777723497801 0.4538348803126526
0.26289468399954785 0.42256961406936977 0.45481191988275516
0.26309742000012193 0.41963849535906195 0.45481191988275516
0.26329958199949033 0.4176844162188569 0.45676599902296044
0.26350944800014986 0.4176844162188569 0.45676599902296044
0.26371088699943357 0.41670737664875435 0.457743038593063
0.26391165999939403 0.41670737664875435 0.4606741573033708
0.26411493300020084 0.412799218368344 0.4587200781631655
0.26431620599942107 0.4108451392281387 0.45969711773326827
0.26451707199976227 0.40889106008793363 0.457743038593063
0.2647188820001247 0.40693698094772834 0.45676599902296044
0.26492106299974694 0.40693698094772834 0.45676599902296044
0.2651252799996655 0.403028822667318 0.4606741573033708
0.26532709000002797 0.3981436248168051 0.4606741573033708
0.2655284369993751 0.3952125061064973 0.47142159257449934
0.26572978399963176 0.3883732291157791 0.4655593551538837
0.26593096499982494 0.3854421104054715 0.4665363947239862
0.26615140400008386 0.3805569125549584 0.467513434294089
0.266352621999431 0.3786028334147533 0.46946751343429405
0.2665536169997722 0.3756717147044455 0.46946751343429405
0.2667546679995212 0.37176355642403514 0.46946751343429405
0.2669615699996939 0.37469467513434296 0.4684904738641915
0.26716682499954914 0.3737176355642404 0.4684904738641915
0.26737041199976375 0.37274059599413767 0.4684904738641915
0.26757494499997847 0.37274059599413767 0.467513434294089
0.2677767919994949 0.376648754274548 0.4655593551538837
0.26797789800002647 0.37957987298485585 0.467513434294089
0.2681798189996698 0.38153395212506114 0.467513434294089
0.26838194399988424 0.38739618954567656 0.467513434294089
0.2685835880001832 0.38935026868588185 0.46946751343429405
0.2687847500001226 0.39716658524670256 0.47142159257449934
0.2689865229995121 0.40009770395701016 0.47142159257449934
0.2691899249994094 0.403028822667318 0.4733756717147044
0.26939119799953914 0.40693698094772834 0.46946751343429405
0.26959252699998615 0.4137762579384465 0.46946751343429405
0.269795004000116 0.4206155349291647 0.46458231558378116
0.2699989429993366 0.43429408891060084 0.4606741573033708
0.2701999020000585 0.4460185637518319 0.4587200781631655
0.2704103039995971 0.46262823644357587 0.4538348803126526
0.2706115769997268 0.47142159257449934 0.44894968246213973
0.2708124239998142 0.4811919882755251 0.44406448461162684
0.27101547500024026 0.48216902784562765 0.441133365901319
0.2712162849993547 0.48705422569614076 0.4401563263312165
0.27141666900024575 0.48705422569614076 0.43624816805080613
0.27161779400012165 0.48900830483634583 0.43624816805080613
0.27181845599989174 0.48216902784562765 0.4401563263312165
0.2720930049999879 0.4782608695652173 0.4430874450415241
0.27230872299969633 0.47435271128480694 0.44406448461162684
0.27251393999995344 0.47728382999511476 0.4450415241817294
0.2727169350000622 0.47923790913532005 0.4460185637518319
0.2729201900001499 0.486077186126038 0.44992672203224227
0.27312246299970866 0.49682462139716654 0.44894968246213973
0.2733265509996272 0.5046409379579873 0.44894968246213973
0.2735288419999051 0.5065950170981925 0.44992672203224227
0.2737311149994639 0.5065950170981925 0.4509037616023448
0.2739329619998898 0.5085490962383976 0.44894968246213973
0.27415060499970423 0.5105031753786029 0.44894968246213973
0.27435172999958013 0.512457254518808 0.44699560332193444
0.2745605769996473 0.5095261358085001 0.45188080117244755
0.2747729980001168 0.512457254518808 0.44992672203224227
0.27499223399991024 0.5153883732291158 0.4509037616023448
0.27520715499940707 0.5163654127992183 0.44992672203224227
0.2754260570000042 0.522227650219834 0.44699560332193444
0.2756451629993535 0.522227650219834 0.4450415241817294
0.2758978609999758 0.5251587689301416 0.44406448461162684
0.27612013299949467 0.5192965315095261 0.441133365901319
0.27633848000004946 0.5173424523693209 0.4401563263312165
0.27657041899965407 0.5153883732291158 0.43917928676111373
0.2768363199993473 0.5153883732291158 0.4401563263312165
0.27705801899992366 0.5144113336590133 0.43624816805080613
0.27728403199944296 0.5144113336590133 0.43624816805080613
0.27751069299938536 0.5153883732291158 0.43624816805080613
0.2777662609996696 0.5163654127992183 0.43624816805080613
0.2780519399993864 0.5144113336590133 0.4352711284807034
0.27830478599935304 0.512457254518808 0.4323400097703958
0.2785305019997395 0.5036638983878847 0.431362970200293
0.27875590499934333 0.49682462139716654 0.4284318514899854
0.2789786399998775 0.4851001465559355 0.4323400097703958
0.2791927829994165 0.4753297508549097 0.4303859306301905
0.279409351999675 0.46458231558378116 0.4352711284807034
0.27963690199976554 0.45481191988275516 0.43722520762090866
0.27985635999993974 0.43917928676111373 0.44211040547142155
0.2800680589998592 0.42940889106008795 0.4460185637518319
0.280273090999799 0.42159257449926724 0.44894968246213973
0.280475937999654 0.4186614557889594 0.4528578407425501
0.28067878499950893 0.4186614557889594 0.4538348803126526
0.2808794470001885 0.412799218368344 0.457743038593063
0.2810810169994511 0.41475329750854906 0.45969711773326827
0.2812922339999204 0.42452369320957506 0.4606741573033708
0.28149539599962736 0.4255007327796776 0.4587200781631655
0.28169668699956674 0.4323400097703958 0.457743038593063
0.28190099699986604 0.4333170493404983 0.457743038593063
0.2821204920001037 0.431362970200293 0.4538348803126526
0.28232424699945113 0.4235466536394723 0.4538348803126526
0.28252759399947536 0.4206155349291647 0.45188080117244755
0.28272903400011273 0.4059599413776258 0.45188080117244755
0.2829320659993755 0.39228138739618945 0.45188080117244755
0.28313311700003396 0.38251099169516367 0.44894968246213973
0.28333479699995223 0.3786028334147533 0.4450415241817294
0.28353692200016667 0.3737176355642404 0.44406448461162684
0.2837393620002331 0.3737176355642404 0.4401563263312165
0.28427666399966256 0.38446507083536874 0.4401563263312165
0.2845433239999693 0.3981436248168051 0.4382022471910112
0.28475917099967774 0.40986809965803617 0.44211040547142155
0.28497746199991525 0.4206155349291647 0.4460185637518319
0.28520277200004784 0.4303859306301905 0.44699560332193444
0.28542126699994697 0.4382022471910112 0.44992672203224227
0.2856498909995935 0.4352711284807034 0.4509037616023448
0.28587777499978984 0.4323400097703958 0.45969711773326827
0.28612519499984046 0.4255007327796776 0.46262823644357587
0.2863533190002272 0.41670737664875435 0.4665363947239862
0.28658646199983195 0.40986809965803617 0.467513434294089
0.2868123270000069 0.40693698094772834 0.47142159257449934
0.28703276599935634 0.4010747435271129 0.4733756717147044
0.2872665380000399 0.3981436248168051 0.4753297508549097
0.28749253299974953 0.39423546653639474 0.4763067904250122
0.28771211999992374 0.3961895456765998 0.4782608695652173
0.28795889199955127 0.3932584269662922 0.4782608695652173
0.28823325600023963 0.3952125061064973 0.4811919882755251
0.2885243979999359 0.39423546653639474 0.4802149487054226
0.28883305699946504 0.3913043478260869 0.47435271128480694
0.28913630900024145 0.3913043478260869 0.4753297508549097
0.28946893099964655 0.3952125061064973 0.4684904738641915
0.28975722099949053 0.4040058622374205 0.4655593551538837
0.29000404799990065 0.41670737664875435 0.45969711773326827
0.29023450600016076 0.42940889106008795 0.45676599902296044
0.29045888899963757 0.44406448461162684 0.45188080117244755
0.29068301400002383 0.45969711773326827 0.4479726428920372
0.2909039529995425 0.47435271128480694 0.44211040547142155
0.2911070589998417 0.48705422569614076 0.441133365901319
0.2913113320000775 0.5007327796775769 0.441133365901319
0.29151317899959395 0.5075720566682951 0.4401563263312165
0.2917140819999986 0.5095261358085001 0.44211040547142155
0.29192115099976945 0.5085490962383976 0.44406448461162684
0.2921229610001319 0.5065950170981925 0.4450415241817294
0.29232510499969067 0.5007327796775769 0.44894968246213973
0.29252828500011674 0.4938935026868587 0.44894968246213973
0.29272948400011956 0.49193942354665365 0.44894968246213973
0.2929312939995725 0.4909623839765511 0.44894968246213973
0.2931325489998926 0.4909623839765511 0.44992672203224227
0.29333513700021285 0.4948705422569615 0.44699560332193444
0.29353898399949685 0.4909623839765511 0.4450415241817294
0.29374081199966895 0.4948705422569615 0.4450415241817294
0.29397828799938 0.495847581827064 0.4460185637518319
0.29418611700020847 0.49682462139716654 0.4450415241817294
0.2943887049996192 0.49877870053737183 0.4450415241817294
0.2946059219993913 0.5026868588177822 0.44211040547142155
0.29485415699946316 0.5017098192476794 0.441133365901319
0.29512203899957967 0.5007327796775769 0.43722520762090866
0.29541517999950884 0.5007327796775769 0.4333170493404983
0.2956746740001108 0.49877870053737183 0.4333170493404983
0.2959749820001889 0.4948705422569615 0.43429408891060084
0.2962637159998849 0.4938935026868587 0.431362970200293
0.2965645790000053 0.495847581827064 0.4323400097703958
0.29687501699936547 0.5036638983878847 0.42940889106008795
0.2971568799994202 0.5105031753786029 0.431362970200293
0.2974831499996071 0.5144113336590133 0.4303859306301905
0.2980658959995708 0.5056179775280898 0.4323400097703958
0.29845797899997706 0.49877870053737183 0.43429408891060084
0.2987674349997178 0.4909623839765511 0.4382022471910112
0.29908729799990397 0.4880312652662433 0.43917928676111373
0.2993322550000812 0.48412310698583294 0.43722520762090866
0.2995454169995355 0.47923790913532005 0.4382022471910112
0.2997496339994541 0.4704445530043966 0.43917928676111373
0.2999525739996898 0.46165119687347334 0.44992672203224227
0.3001627539997571 0.45188080117244755 0.4430874450415241
0.3003659719997813 0.4450415241817294 0.4460185637518319
0.30056929999955173 0.43917928676111373 0.44699560332193444
0.3007732579999356 0.4352711284807034 0.44894968246213973
0.30097499400017114 0.42745481191988266 0.45188080117244755
0.3011783599995397 0.42256961406936977 0.4557889594528579
0.30138778099990304 0.4108451392281387 0.4557889594528579
0.3015899609999906 0.4049829018075233 0.45188080117244755
0.30179158600003575 0.4010747435271129 0.45188080117244755
0.3019961929994679 0.40009770395701016 0.44894968246213973
0.3021986690000631 0.4040058622374205 0.44699560332193444
0.30239957199955825 0.40693698094772834 0.44992672203224227
0.30260369699954026 0.4108451392281387 0.4479726428920372
0.3028053399993951 0.40986809965803617 0.44699560332193444
0.30300898399946163 0.4137762579384465 0.44992672203224227
0.30321090500001446 0.412799218368344 0.4509037616023448
0.3034132339998905 0.40889106008793363 0.4538348803126526
0.30363556199972663 0.40693698094772834 0.4528578407425501
0.3038597229997322 0.40889106008793363 0.4557889594528579
0.3041053099996134 0.40889106008793363 0.4557889594528579
0.30435013699934643 0.4108451392281387 0.45481191988275516
0.3045564469994133 0.40986809965803617 0.4587200781631655
0.304758627999945 0.4137762579384465 0.4636052760136786
0.3049607900002229 0.40986809965803617 0.4636052760136786
0.30516419200012024 0.40693698094772834 0.4655593551538837
0.3053660770001443 0.4040058622374205 0.4665363947239862
0.3055688869999358 0.40009770395701016 0.4665363947239862
0.3057711229994311 0.3952125061064973 0.4655593551538837
0.30598513599943544 0.3932584269662922 0.467513434294089
0.3061871499994595 0.3913043478260869 0.46946751343429405
0.30638973799977975 0.3883732291157791 0.4665363947239862
0.3065910659997826 0.38935026868588185 0.46946751343429405
0.30679243199938355 0.3883732291157791 0.4684904738641915
0.3069931499994709 0.3903273082559844 0.47142159257449934
0.30719721900004515 0.3952125061064973 0.4704445530043966
0.30739936200006923 0.40009770395701016 0.46946751343429405
0.3076010610002413 0.4040058622374205 0.4684904738641915
0.30780246399990574 0.40889106008793363 0.4684904738641915
0.30800392199944326 0.4108451392281387 0.46946751343429405
0.30820562099961535 0.41182217879824123 0.46946751343429405
0.3084076349996394 0.41182217879824123 0.4684904738641915
0.3086089259995788 0.41475329750854906 0.4684904738641915
0.30881140299970866 0.4176844162188569 0.467513434294089
0.30901486099992326 0.4176844162188569 0.4655593551538837
0.30922002299939777 0.42452369320957506 0.46262823644357587
0.3094223520001833 0.4303859306301905 0.4606741573033708
0.30962434699995356 0.441133365901319 0.4587200781631655
0.30982597199999873 0.4528578407425501 0.4557889594528579
0.31004380000013043 0.4606741573033708 0.45188080117244755
0.3102486289999433 0.4655593551538837 0.44894968246213973
0.310452142000031 0.4636052760136786 0.44992672203224227
0.3106545079999705 0.45676599902296044 0.4460185637518319
0.31086678100018617 0.44211040547142155 0.4479726428920372
0.3110706460001893 0.43624816805080613 0.44992672203224227
0.3112726419994942 0.4303859306301905 0.45188080117244755
0.3114746559995183 0.4264777723497801 0.45188080117244755
0.31167548399935185 0.4264777723497801 0.4528578407425501
0.3118763679995027 0.4333170493404983 0.4557889594528579
0.31207817799986515 0.4509037616023448 0.45481191988275516
0.31227958099952957 0.46458231558378116 0.45969711773326827
0.3124809649998497 0.4802149487054226 0.4538348803126526
0.31268196099972556 0.4909623839765511 0.4538348803126526
0.3128831039994111 0.49682462139716654 0.44992672203224227
0.3130847289994563 0.49682462139716654 0.44992672203224227
0.31328715000017837 0.49877870053737183 0.4450415241817294
0.31348949699986406 0.49877870053737183 0.44406448461162684
0.31369238099978247 0.5056179775280898 0.4430874450415241
0.31389343199953146 0.5046409379579873 0.4430874450415241
0.3140980939997462 0.5095261358085001 0.44211040547142155
0.3143016260000877 0.5095261358085001 0.4430874450415241
0.3145032699994772 0.5114802149487054 0.441133365901319
0.31470450599954347 0.5114802149487054 0.441133365901319
0.3149068160000752 0.5134342940889105 0.4382022471910112
0.31511614400005783 0.5173424523693209 0.43722520762090866
0.3153464540000641 0.5173424523693209 0.43624816805080613
0.315563504000238 0.5202735710796287 0.4333170493404983
0.3159758279998641 0.5192965315095261 0.4303859306301905
0.31620985900008236 0.5183194919394236 0.42940889106008795
0.31642039100006514 0.5114802149487054 0.431362970200293
0.3166230719998566 0.5105031753786029 0.431362970200293
0.3168263819998174 0.5144113336590133 0.43624816805080613
0.31702772900007403 0.5105031753786029 0.4323400097703958
0.3172292799999923 0.5114802149487054 0.43429408891060084
0.31743525599995337 0.5105031753786029 0.43429408891060084
0.3176370479995967 0.5095261358085001 0.43429408891060084
0.3178390249995573 0.5085490962383976 0.4333170493404983
0.31806794499971147 0.5046409379579873 0.43624816805080613
0.31827010699998937 0.5007327796775769 0.4352711284807034
0.3184713249993365 0.4938935026868587 0.4352711284807034
0.3186723389999315 0.48998534440644836 0.4352711284807034
0.3188735189996805 0.486077186126038 0.43624816805080613
0.3190745699994295 0.4782608695652173 0.43624816805080613
0.31927674999951705 0.4753297508549097 0.43722520762090866
0.3194785050000064 0.4684904738641915 0.43917928676111373
0.3196802779993959 0.4606741573033708 0.4479726428920372
0.319881661999716 0.44992672203224227 0.44699560332193444
0.3200840829995286 0.441133365901319 0.4509037616023448
0.320285244999468 0.43722520762090866 0.45481191988275516
0.32048642599966115 0.431362970200293 0.4509037616023448
0.3206940499994744 0.4284318514899854 0.4538348803126526
0.3208947490002174 0.4284318514899854 0.4538348803126526
0.3210954300002413 0.42452369320957506 0.44992672203224227
0.32129709199944045 0.42452369320957506 0.4479726428920372
0.32149780899999314 0.42452369320957506 0.44699560332193444
0.3216986560000805 0.42452369320957506 0.44699560332193444
0.321901465999872 0.42745481191988266 0.4450415241817294
0.32210423899960006 0.42940889106008795 0.4430874450415241
0.3223056609995183 0.4284318514899854 0.441133365901319
0.3225077489996693 0.42745481191988266 0.4430874450415241
0.3227088919993548 0.4303859306301905 0.4460185637518319
0.32291075800003455 0.4264777723497801 0.4479726428920372
0.32311180799933936 0.4264777723497801 0.4479726428920372
0.32331313699978637 0.4264777723497801 0.4509037616023448
0.32351711399951455 0.42256961406936977 0.4538348803126526
0.3237204239994753 0.41963849535906195 0.4538348803126526
0.32392234500002814 0.4186614557889594 0.4557889594528579
0.3241270070002429 0.41670737664875435 0.45969711773326827
0.3243281869999919 0.4137762579384465 0.45676599902296044
0.3245295159995294 0.4108451392281387 0.457743038593063
0.3247337519997018 0.40693698094772834 0.45969711773326827
0.32493517300008534 0.4049829018075233 0.45969711773326827
0.3251382979997288 0.4049829018075233 0.4636052760136786
0.32534016399949905 0.4010747435271129 0.4636052760136786
0.32554360299945984 0.39912066438690763 0.4704445530043966
0.32574506099990685 0.3961895456765998 0.4665363947239862
0.3259592419999535 0.39423546653639474 0.4655593551538837
0.32616349599993555 0.3932584269662922 0.46458231558378116
0.32636552799976926 0.39228138739618945 0.4655593551538837
0.32657022700004745 0.3913043478260869 0.46946751343429405
0.32677155599958496 0.3913043478260869 0.4665363947239862
0.3269740699997783 0.38935026868588185 0.4665363947239862
0.3271751389993369 0.3913043478260869 0.47142159257449934
0.32737594899936084 0.3913043478260869 0.46946751343429405
0.3275771849994271 0.39912066438690763 0.46946751343429405
0.3277783100002125 0.39228138739618945 0.4704445530043966
0.3279791019995173 0.39228138739618945 0.4733756717147044
0.3281811890001336 0.3952125061064973 0.47728382999511476
0.32838229600019986 0.3932584269662922 0.47728382999511476
0.32858332799969503 0.39423546653639474 0.4763067904250122
0.32878426800016314 0.3932584269662922 0.4763067904250122
0.3289887999999337 0.3903273082559844 0.4763067904250122
0.32919014700019034 0.39423546653639474 0.4733756717147044
0.32939173500017205 0.39228138739618945 0.4704445530043966
0.3295929710002383 0.3961895456765998 0.4684904738641915
0.3297942629997124 0.40205178309721545 0.46458231558378116
0.32999710999956733 0.40986809965803617 0.46262823644357587
0.33019993800007796 0.42745481191988266 0.4587200781631655
0.3304006930002288 0.43917928676111373 0.45676599902296044
0.33060146600018925 0.4538348803126526 0.4557889594528579
0.33080207199964207 0.47142159257449934 0.44992672203224227
0.33100384499994107 0.4763067904250122 0.45676599902296044
0.331205525999394 0.49193942354665365 0.4430874450415241
0.3314095579999048 0.5046409379579873 0.4401563263312165
0.3316107569999076 0.5065950170981925 0.4401563263312165
0.3318119380001008 0.5065950170981925 0.43624816805080613
0.33201400699999795 0.5036638983878847 0.43624816805080613
0.3322150209996835 0.49682462139716654 0.4352711284807034
0.3324174600002152 0.4851001465559355 0.4333170493404983
0.332618566999372 0.4851001465559355 0.4352711284807034
0.3328195619997132 0.47142159257449934 0.43722520762090866
0.33302079799977946 0.4753297508549097 0.43429408891060084
0.33322197899997263 0.47728382999511476 0.4333170493404983
0.33342364100008126 0.4802149487054226 0.4333170493404983
0.3336245800001052 0.4880312652662433 0.4352711284807034
0.3338274090001505 0.4929164631167562 0.43429408891060084
0.3340470329994787 0.5007327796775769 0.4352711284807034
0.33425008399990475 0.5046409379579873 0.43722520762090866
0.3344518200001403 0.5105031753786029 0.4382022471910112
0.33465611199972045 0.5134342940889105 0.4401563263312165
0.3348579960002098 0.5134342940889105 0.43917928676111373
0.3350613060001706 0.5173424523693209 0.4401563263312165
0.33526200500000414 0.5114802149487054 0.4430874450415241
0.33546318499975314 0.5085490962383976 0.4401563263312165
0.3356648290000521 0.5065950170981925 0.43917928676111373
0.3358663239996531 0.5017098192476794 0.4430874450415241
0.3360677820001001 0.4978016609672691 0.43917928676111373
0.3362683149998702 0.4978016609672691 0.441133365901319
0.33646964299987303 0.49877870053737183 0.44406448461162684
0.336671008999474 0.49193942354665365 0.4460185637518319
0.33687196699975175 0.4909623839765511 0.4479726428920372
0.3370729809994373 0.48705422569614076 0.44699560332193444
0.3372744389998843 0.48412310698583294 0.44699560332193444
0.3374790269999721 0.4831460674157304 0.44699560332193444
0.3376813739996578 0.48412310698583294 0.44992672203224227
0.3378980170000432 0.4929164631167562 0.4460185637518319
0.33810334600002534 0.4948705422569615 0.4450415241817294
0.3383050819993514 0.49975574010747437 0.441133365901319
0.33850733599956584 0.5046409379579873 0.4382022471910112
0.3387086279999494 0.5095261358085001 0.4450415241817294
0.33891003000007913 0.5075720566682951 0.43429408891060084
0.3391111179998916 0.5075720566682951 0.4323400097703958
0.33931222499995783 0.5085490962383976 0.43917928676111373
0.33951399799934734 0.5026868588177822 0.4352711284807034
0.33971532599935017 0.4929164631167562 0.4382022471910112
0.3399174699998184 0.48412310698583294 0.44211040547142155
0.3401192239998636 0.4733756717147044 0.4450415241817294
0.34032025699980295 0.4606741573033708 0.44699560332193444
0.34052234399950976 0.4606741573033708 0.4460185637518319
0.3407242100001895 0.44699560332193444 0.4460185637518319
0.34092581599998084 0.4460185637518319 0.4479726428920372
0.34112799699960306 0.4401563263312165 0.44699560332193444
0.3413301029995637 0.4333170493404983 0.44699560332193444
0.3415312469996934 0.4333170493404983 0.4509037616023448
0.34173329699933674 0.4323400097703958 0.44992672203224227
0.34196479199999885 0.4303859306301905 0.45188080117244755
0.3421747319998758 0.4323400097703958 0.4509037616023448
0.3423762819993499 0.4235466536394723 0.4509037616023448
0.34257725899988145 0.4206155349291647 0.4528578407425501
0.3427801799998633 0.41475329750854906 0.45188080117244755
0.3429814350001834 0.40693698094772834 0.4528578407425501
0.34318205999989004 0.39912066438690763 0.4538348803126526
0.3433838509999987 0.39423546653639474 0.45481191988275516
0.34358508700006496 0.38641914997557403 0.4528578407425501
0.3437870460002159 0.38446507083536874 0.4538348803126526
0.34398998500000744 0.3854421104054715 0.45481191988275516
0.34419131399954495 0.3913043478260869 0.4557889594528579
0.3443921609996323 0.3981436248168051 0.4538348803126526
0.34470459800013487 0.412799218368344 0.45188080117244755
0.3449212039995473 0.4176844162188569 0.4509037616023448
0.3451239589994657 0.4186614557889594 0.45188080117244755
0.3453252129993416 0.4157303370786516 0.45188080117244755
0.3455260049995559 0.41182217879824123 0.44992672203224227
0.3457271850002144 0.40693698094772834 0.4557889594528579
0.34592914299992117 0.40009770395701016 0.44894968246213973
0.34614347200022166 0.39912066438690763 0.4538348803126526
0.34634691100018244 0.3961895456765998 0.4587200781631655
0.3465482219999103 0.39423546653639474 0.457743038593063
0.34674973500023043 0.39423546653639474 0.46165119687347334
0.34695180499966227 0.3961895456765998 0.4655593551538837
0.34715402199981327 0.3903273082559844 0.4655593551538837
0.3473556839999219 0.38739618954567656 0.4684904738641915
0.3475575869997556 0.3834880312652662 0.4704445530043966
0.3477647119998437 0.38446507083536874 0.4684904738641915
0.34797065099974134 0.3854421104054715 0.46946751343429405
0.34817692399974476 0.3903273082559844 0.4704445530043966
0.3483778820000225 0.3961895456765998 0.4684904738641915
0.34857948899934854 0.4079140205178309 0.4733756717147044
0.3487809099997321 0.39912066438690763 0.4684904738641915
0.34898433099988324 0.39423546653639474 0.46946751343429405
0.3491871229998651 0.38641914997557403 0.47435271128480694
0.3493899879995297 0.38446507083536874 0.47142159257449934
0.34959237200018833 0.3883732291157791 0.4704445530043966
0.3497954229997049 0.3952125061064973 0.4684904738641915
0.350000510999962 0.41182217879824123 0.46262823644357587
0.3502020249998168 0.431362970200293 0.4587200781631655
0.35040277899952343 0.45188080117244755 0.45481191988275516
0.3506040149995897 0.4704445530043966 0.4528578407425501
0.35080510299940215 0.4880312652662433 0.4509037616023448
0.35100602399961645 0.5007327796775769 0.4509037616023448
0.35120852000000014 0.5114802149487054 0.44894968246213973
0.3514138479995381 0.5134342940889105 0.44992672203224227
0.3516318619995218 0.5134342940889105 0.44894968246213973
0.35184465299971635 0.5095261358085001 0.44992672203224227
0.3520727770001031 0.5017098192476794 0.4509037616023448
0.35229762400012987 0.49877870053737183 0.4538348803126526
0.3525331920000099 0.4909623839765511 0.4557889594528579
0.35275939099938114 0.48705422569614076 0.44699560332193444
0.35298788499949296 0.4851001465559355 0.44992672203224227
0.353245268000137 0.47435271128480694 0.4479726428920372
0.3535132799997882 0.4684904738641915 0.4460185637518319
0.35378782899988437 0.4606741573033708 0.4430874450415241
0.3541312659999676 0.45969711773326827 0.4401563263312165
0.3545477560001018 0.45969711773326827 0.4382022471910112
0.35486656299963215 0.4684904738641915 0.43917928676111373
0.35516033400017477 0.4704445530043966 0.4382022471910112
0.35540010600016103 0.47435271128480694 0.43722520762090866
0.35562471199955326 0.47728382999511476 0.4382022471910112
0.3558467439997912 0.48412310698583294 0.4382022471910112
0.35608481300005224 0.4929164631167562 0.441133365901319
0.35629458499988687 0.5046409379579873 0.4333170493404983
0.3564993029995094 0.5134342940889105 0.43917928676111373
0.35670061299970257 0.5271128480703469 0.4382022471910112
0.35690484899987496 0.5388373229115779 0.43722520762090866
0.35710688099970866 0.5486077186126037 0.4352711284807034
0.35730765399966913 0.5574010747435272 0.43722520762090866
0.3575194830000328 0.5593551538837322 0.4352711284807034
0.3577263850002055 0.5593551538837322 0.43624816805080613
0.3579285469995739 0.550561797752809 0.43722520762090866
0.35816307899949607 0.5486077186126037 0.43722520762090866
0.3583642779994989 0.5359062042012701 0.43917928676111373
0.35856747700017877 0.5271128480703469 0.4401563263312165
0.35878285999933723 0.5183194919394236 0.4430874450415241
0.3589854479996575 0.5065950170981925 0.4382022471910112
0.3591868510002314 0.4929164631167562 0.4382022471910112
0.35938877199987473 0.47923790913532005 0.4401563263312165
0.35959074899983534 0.4606741573033708 0.441133365901319
0.35979252200013434 0.4450415241817294 0.4460185637518319
0.3599943319995873 0.42940889106008795 0.44894968246213973
0.3601968829998441 0.4186614557889594 0.44894968246213973
0.360399488999974 0.412799218368344 0.4509037616023448
0.36060402099974453 0.4108451392281387 0.4528578407425501
0.3608219050001935 0.4079140205178309 0.45188080117244755
0.36106569599996874 0.4079140205178309 0.4538348803126526
0.3612819869995292 0.40693698094772834 0.4557889594528579
0.36148392699942633 0.40986809965803617 0.4538348803126526
0.3616858109999157 0.4157303370786516 0.45188080117244755
0.3618870099999185 0.4176844162188569 0.45188080117244755
0.36209744899952057 0.4235466536394723 0.45188080117244755
0.36229888900015794 0.42940889106008795 0.4509037616023448
0.36250260599990725 0.4323400097703958 0.44992672203224227
0.3627042680000159 0.43429408891060084 0.4479726428920372
0.3629063930002303 0.4323400097703958 0.44894968246213973
0.36310898099964106 0.4284318514899854 0.44992672203224227
0.36330997599998227 0.42159257449926724 0.44992672203224227
0.36351206400013325 0.4186614557889594 0.44894968246213973
0.36371468899960746 0.41182217879824123 0.44992672203224227
0.36391736999939894 0.4049829018075233 0.44992672203224227
0.3641206799993597 0.403028822667318 0.4538348803126526
0.36432254499959527 0.4010747435271129 0.44894968246213973
0.3645250589997886 0.40009770395701016 0.44992672203224227
0.36472725800012995 0.4010747435271129 0.44992672203224227
0.3649291789997733 0.39912066438690763 0.4509037616023448
0.3651306929996281 0.39716658524670256 0.4538348803126526
0.36533428099937737 0.39716658524670256 0.4557889594528579
0.3655355350001628 0.3932584269662922 0.45676599902296044
0.3657371419994888 0.38641914997557403 0.46165119687347334
0.365939210999386 0.3805569125549584 0.4636052760136786
0.3661667429996669 0.38153395212506114 0.4655593551538837
0.3663706449997335 0.3776257938446508 0.4655593551538837
0.36657164099960937 0.37176355642403514 0.46458231558378116
0.36677370999950654 0.37176355642403514 0.4665363947239862
0.3669768159998057 0.37176355642403514 0.4665363947239862
0.3671778119996816 0.37176355642403514 0.46946751343429405
0.3673797139999806 0.3756717147044455 0.46946751343429405
0.3675805060001949 0.3737176355642404 0.467513434294089
0.36778453799979616 0.3756717147044455 0.4763067904250122
0.3679897739993976 0.37469467513434296 0.46946751343429405
0.3681920290000562 0.37957987298485585 0.46946751343429405
0.36839296800008015 0.3834880312652662 0.4684904738641915
0.36859629699938523 0.3903273082559844 0.4753297508549097
0.3687971999997899 0.3932584269662922 0.4753297508549097
0.36899830599941197 0.403028822667318 0.47435271128480694
0.36919987500004936 0.40986809965803617 0.47239863214460187
0.36940185200000997 0.4176844162188569 0.47239863214460187
0.36960495799939963 0.4206155349291647 0.47142159257449934
0.3698061389995928 0.42745481191988266 0.4684904738641915
0.3700082269997438 0.43624816805080613 0.4636052760136786
0.370208943999387 0.44699560332193444 0.45969711773326827
0.3704104210000878 0.457743038593063 0.457743038593063
0.3706209719994149 0.46946751343429405 0.4528578407425501
0.37082652200024313 0.47923790913532005 0.45188080117244755
0.371028276999823 0.4880312652662433 0.44992672203224227
0.3712296799994874 0.495847581827064 0.44992672203224227
0.37143061899951135 0.5007327796775769 0.44992672203224227
0.3716317070002333 0.4978016609672691 0.4460185637518319
0.3718338689996017 0.5026868588177822 0.4460185637518319
0.3720343269997102 0.495847581827064 0.44699560332193444
0.37231443200016656 0.495847581827064 0.44406448461162684
0.3725328159998753 0.495847581827064 0.44211040547142155
0.3727359399999841 0.4978016609672691 0.44699560332193444
0.3729380280001351 0.4978016609672691 0.441133365901319
0.37314048699954583 0.5007327796775769 0.441133365901319
0.3733418339998025 0.5065950170981925 0.441133365901319
0.37354392199995345 0.5085490962383976 0.441133365901319
0.37374569499934296 0.5085490962383976 0.44211040547142155
0.37395967100019334 0.5036638983878847 0.44406448461162684
0.37416227699941373 0.5017098192476794 0.44406448461162684
0.3745375829994373 0.5026868588177822 0.44406448461162684
0.37477385599959234 0.495847581827064 0.44406448461162684
0.3750057019997257 0.4978016609672691 0.44211040547142155
0.37528141799975856 0.5036638983878847 0.441133365901319
0.37565192799957003 0.5095261358085001 0.4401563263312165
0.37601577099940187 0.5065950170981925 0.4382022471910112
0.3764012800002092 0.5017098192476794 0.4401563263312165
0.3768005120000453 0.49975574010747437 0.43624816805080613
0.37713518900000054 0.48998534440644836 0.4352711284807034
0.37740764599948307 0.4753297508549097 0.43624816805080613
0.3776960280001731 0.46946751343429405 0.4303859306301905
0.3780545379995601 0.4665363947239862 0.4284318514899854
0.37837956699968345 0.467513434294089 0.4284318514899854
0.3786882639997202 0.47239863214460187 0.4284318514899854
0.3789163510000435 0.47728382999511476 0.4264777723497801
0.37914090100002795 0.4802149487054226 0.42745481191988266
0.37936330399952567 0.48216902784562765 0.42745481191988266
0.3795960389998072 0.4802149487054226 0.43624816805080613
0.37982095899951673 0.47728382999511476 0.441133365901319
0.3800463990000935 0.4684904738641915 0.4479726428920372
0.3802766339995287 0.45969711773326827 0.4528578407425501
0.3805143319996205 0.44894968246213973 0.45969711773326827
0.380744586000219 0.4382022471910112 0.46165119687347334
0.3809708029993999 0.4264777723497801 0.46458231558378116
0.38118418700014445 0.41963849535906195 0.4665363947239862
0.38140623700019205 0.41475329750854906 0.467513434294089
0.38161691699951916 0.412799218368344 0.4665363947239862
0.381820745999903 0.4108451392281387 0.4665363947239862
0.3820326479999494 0.41182217879824123 0.4704445530043966
0.38223523599936016 0.412799218368344 0.4636052760136786
0.3824363799994899 0.4176844162188569 0.45969711773326827
0.3826406339994719 0.4186614557889594 0.457743038593063
0.38284329599991906 0.4206155349291647 0.4538348803126526
0.3830464020002182 0.42256961406936977 0.4509037616023448
0.38324891599950206 0.4264777723497801 0.4450415241817294
0.38345050399948377 0.4284318514899854 0.441133365901319
0.38365344399971946 0.4303859306301905 0.4382022471910112
0.38385482800003956 0.4323400097703958 0.43722520762090866
0.3840564900001482 0.4303859306301905 0.43624816805080613
0.38425789199936844 0.4284318514899854 0.4382022471910112
0.38446110999939265 0.4255007327796776 0.4401563263312165
0.3846649749993958 0.42256961406936977 0.441133365901319
0.38486659999944095 0.41475329750854906 0.4479726428920372
0.38506805899942265 0.403028822667318 0.44894968246213973
0.38526983199972165 0.3952125061064973 0.4528578407425501
0.38547186399955535 0.38446507083536874 0.45969711773326827
0.3856742669995583 0.38251099169516367 0.4606741573033708
0.38587748400004784 0.38251099169516367 0.4606741573033708
0.3860815529997126 0.38641914997557403 0.4606741573033708
0.38628364099986356 0.39228138739618945 0.46165119687347334
0.3864858400002049 0.39716658524670256 0.4636052760136786
0.3866883720002079 0.4010747435271129 0.4684904738641915
0.3868944969999575 0.40009770395701016 0.46458231558378116
0.38709821500015096 0.40009770395701016 0.46946751343429405
0.38730139499966754 0.39912066438690763 0.47142159257449934
0.38750533500024176 0.39716658524670256 0.4704445530043966
0.3877079969997794 0.3952125061064973 0.46946751343429405
0.3879242510001859 0.3932584269662922 0.4684904738641915
0.38815905999945244 0.3913043478260869 0.4684904738641915
0.3883923319999667 0.39716658524670256 0.47142159257449934
0.3886095869993369 0.3981436248168051 0.47142159257449934
0.3888138229995093 0.4010747435271129 0.4733756717147044
0.3890167069994277 0.403028822667318 0.47728382999511476
0.3892177580000862 0.4059599413776258 0.4753297508549097
0.389426179000111 0.40986809965803617 0.4753297508549097
0.38962926600015635 0.41475329750854906 0.4733756717147044
0.38983163200009585 0.4264777723497801 0.4684904738641915
0.3900596449993827 0.43917928676111373 0.46458231558378116
0.39026228900002025 0.4538348803126526 0.45969711773326827
0.39046478399995976 0.46458231558378116 0.4528578407425501
0.3906688529996245 0.4782608695652173 0.4430874450415241
0.39087125599962746 0.4938935026868587 0.43624816805080613
0.3910722700002225 0.5017098192476794 0.42940889106008795
0.3912751540001409 0.5046409379579873 0.4284318514899854
0.3914760560001014 0.5046409379579873 0.431362970200293
0.3916772739994485 0.5017098192476794 0.43722520762090866
0.3918835280001076 0.48998534440644836 0.441133365901319
0.3920862639997722 0.4831460674157304 0.4479726428920372
0.39228840800024045 0.4782608695652173 0.44894968246213973
0.39248997699996835 0.47239863214460187 0.45676599902296044
0.39269174999935785 0.47239863214460187 0.45481191988275516
0.3928930969996145 0.4704445530043966 0.45481191988275516
0.39309549999961746 0.4763067904250122 0.4557889594528579
0.3932959209996625 0.48216902784562765 0.4557889594528579
0.3934968419998768 0.486077186126038 0.45481191988275516
0.3936973929994565 0.4909623839765511 0.4587200781631655
0.393900795999798 0.495847581827064 0.4587200781631655
0.39410571699954744 0.4978016609672691 0.4587200781631655
0.39430737899965607 0.5036638983878847 0.457743038593063
0.3945099479997225 0.5065950170981925 0.45969711773326827
0.3947112579999157 0.5075720566682951 0.45969711773326827
0.3949120130000665 0.5075720566682951 0.45188080117244755
0.3951129529996251 0.5065950170981925 0.45188080117244755
0.39531459599947993 0.5105031753786029 0.44992672203224227
0.3955157579994193 0.5105031753786029 0.44406448461162684
0.3957172720001836 0.5105031753786029 0.441133365901319
0.3959192299998904 0.5114802149487054 0.43917928676111373
0.3961213550001048 0.5095261358085001 0.43624816805080613
0.3963226649993885 0.5085490962383976 0.4333170493404983
0.3965236419999201 0.5095261358085001 0.431362970200293
0.3967247109994787 0.5095261358085001 0.4303859306301905
0.396926540000095 0.5134342940889105 0.4303859306301905
0.3971281269996325 0.5144113336590133 0.4264777723497801
0.3973297709999315 0.512457254518808 0.4264777723497801
0.3975379879993852 0.5134342940889105 0.4264777723497801
0.39774407599998085 0.5134342940889105 0.4255007327796776
0.3980146069998227 0.5114802149487054 0.4264777723497801
0.3982396379997226 0.5114802149487054 0.4255007327796776
0.3984458369995991 0.5046409379579873 0.4284318514899854
0.3986491659998137 0.4938935026868587 0.4264777723497801
0.39884999399964727 0.48900830483634583 0.4284318514899854
0.3990519339995444 0.47923790913532005 0.431362970200293
0.3992526699994414 0.4753297508549097 0.4303859306301905
0.39945609099959256 0.4636052760136786 0.43624816805080613
0.39965716099959536 0.457743038593063 0.43722520762090866
0.3998609149994081 0.44406448461162684 0.4450415241817294
0.40006146599989734 0.4333170493404983 0.4479726428920372
0.40026286899956176 0.431362970200293 0.4509037616023448
0.4004649379994589 0.42452369320957506 0.4538348803126526
0.4006660439999905 0.42256961406936977 0.4538348803126526
0.4008671689998664 0.42452369320957506 0.4557889594528579
0.4010684790000596 0.42256961406936977 0.4538348803126526
0.40126917799989315 0.42452369320957506 0.4509037616023448
0.40147089599940955 0.4255007327796776 0.44894968246213973
0.4016717989998142 0.42745481191988266 0.44894968246213973
0.4018729049994363 0.42256961406936977 0.4528578407425501
0.40207588199973543 0.4137762579384465 0.44992672203224227
0.4022778210000979 0.4040058622374205 0.44894968246213973
0.4024789650002276 0.3952125061064973 0.4538348803126526
0.4026812929996595 0.3854421104054715 0.44894968246213973
0.40288245499959885 0.38251099169516367 0.44992672203224227
0.40308611699947505 0.38153395212506114 0.4538348803126526
0.40329044600002817 0.38641914997557403 0.4509037616023448
0.40349147799952334 0.3932584269662922 0.4528578407425501
0.4036929180001607 0.4010747435271129 0.44699560332193444
0.4038972279995505 0.40986809965803617 0.4450415241817294
0.4040982599999552 0.4137762579384465 0.44894968246213973
0.40429968099942926 0.42452369320957506 0.4460185637518319
0.4045055839997076 0.42745481191988266 0.44894968246213973
0.4047082090000913 0.43624816805080613 0.4460185637518319
0.40490916699945956 0.43624816805080613 0.44992672203224227
0.40528554699994856 0.42256961406936977 0.45969711773326827
0.40551176400003897 0.41182217879824123 0.46165119687347334
0.40571711099983077 0.39912066438690763 0.4655593551538837
0.40591984699949535 0.39228138739618945 0.46946751343429405
0.4061234909995619 0.38641914997557403 0.47142159257449934
0.4063251339994167 0.3776257938446508 0.4684904738641915
0.4065281289995255 0.3737176355642404 0.47142159257449934
0.40672973599976103 0.37274059599413767 0.47142159257449934
0.40693126799942547 0.36492427943331696 0.47435271128480694
0.4071346149994497 0.3629702002931119 0.4733756717147044
0.40733538799941016 0.36492427943331696 0.4733756717147044
0.40753695700004755 0.3639472398632144 0.4733756717147044
0.40773885999988124 0.3688324377137273 0.4704445530043966
0.4079398919993764 0.3756717147044455 0.47239863214460187
0.40814144300020416 0.38153395212506114 0.4704445530043966
0.40834236399950896 0.38935026868588185 0.4684904738641915
0.4085450080001465 0.40205178309721545 0.46946751343429405
0.4087463919995571 0.40889106008793363 0.467513434294089
0.4089479059994119 0.412799218368344 0.4655593551538837
0.4091481229997953 0.4206155349291647 0.46946751343429405
0.40934934100005194 0.42452369320957506 0.46262823644357587
0.4095509469998433 0.43429408891060084 0.46165119687347334
0.40975151600014215 0.4450415241817294 0.45969711773326827
0.4099676409996391 0.4538348803126526 0.4528578407425501
0.41017072900012863 0.4684904738641915 0.45188080117244755
0.41037213199979306 0.47239863214460187 0.44992672203224227
0.4105731449999439 0.4802149487054226 0.4450415241817294
0.4107742149999467 0.48705422569614076 0.4460185637518319
0.41097507999984373 0.4948705422569615 0.44699560332193444
0.4111833349998051 0.49975574010747437 0.45188080117244755
0.4113912189995972 0.5017098192476794 0.4450415241817294
0.411592732999452 0.5065950170981925 0.4430874450415241
0.4117949129995395 0.5026868588177822 0.44992672203224227
0.411996129999352 0.5017098192476794 0.44992672203224227
0.4121973669998624 0.495847581827064 0.44992672203224227
0.4123984540001402 0.49193942354665365 0.4538348803126526
0.41260026399959315 0.48705422569614076 0.4528578407425501
0.41280185199957486 0.486077186126038 0.4538348803126526
0.4130046989994298 0.4802149487054226 0.4557889594528579
0.413206194999475 0.4811919882755251 0.4538348803126526
0.41340870800013363 0.4802149487054226 0.4538348803126526
0.41361070399943856 0.486077186126038 0.4557889594528579
0.4138121799996952 0.4909623839765511 0.45188080117244755
0.4140198240002064 0.4938935026868587 0.4509037616023448
0.4142217819999132 0.49975574010747437 0.4528578407425501
0.41442292499959876 0.5017098192476794 0.45188080117244755
0.4146239579995381 0.5046409379579873 0.44699560332193444
0.41482632299994293 0.5095261358085001 0.44699560332193444
0.4150356330001159 0.512457254518808 0.44406448461162684
0.415251812999486 0.5153883732291158 0.441133365901319
0.4154556599996795 0.5192965315095261 0.4401563263312165
0.41565721099959774 0.5173424523693209 0.43722520762090866
0.4158606510000027 0.5173424523693209 0.4382022471910112
0.4160730160001549 0.5153883732291158 0.43722520762090866
0.41627845599941793 0.5134342940889105 0.4352711284807034
0.4164806729995689 0.512457254518808 0.43429408891060084
0.416681927999889 0.5095261358085001 0.4323400097703958
0.4168844790001458 0.5095261358085001 0.4303859306301905
0.4170866220001699 0.5046409379579873 0.4284318514899854
0.41728891399998247 0.5046409379579873 0.4284318514899854
0.4174942979998377 0.49975574010747437 0.4284318514899854
0.41769601499981945 0.4978016609672691 0.4284318514899854
0.4178988809999282 0.4909623839765511 0.4303859306301905
0.41810391299986804 0.4880312652662433 0.42940889106008795
0.41831037100018875 0.4880312652662433 0.4323400097703958
0.41851097800008574 0.486077186126038 0.4382022471910112
0.4187116029997924 0.48705422569614076 0.4382022471910112
0.41891309799939336 0.48216902784562765 0.43917928676111373
0.41911403799986147 0.4782608695652173 0.43917928676111373
0.4193156439996528 0.4733756717147044 0.44211040547142155
0.419516509999994 0.4655593551538837 0.4450415241817294
0.41971752300014487 0.45481191988275516 0.4460185637518319
0.4199197039997671 0.4479726428920372 0.44992672203224227
0.4201211069994315 0.44211040547142155 0.44894968246213973
0.42032330599977286 0.43429408891060084 0.4528578407425501
0.4205338009996922 0.431362970200293 0.457743038593063
0.4207418879996112 0.4284318514899854 0.4557889594528579
0.4209437909994449 0.4264777723497801 0.4538348803126526
0.4211449160002303 0.4264777723497801 0.4509037616023448
0.42134605899991584 0.42940889106008795 0.4509037616023448
0.4215469060000032 0.43722520762090866 0.4460185637518319
0.4217488650001542 0.43917928676111373 0.44992672203224227
0.42197252599999047 0.4401563263312165 0.4479726428920372
0.4221793360002266 0.43722520762090866 0.4450415241817294
0.42238094200001797 0.43429408891060084 0.4479726428920372
0.42258284499985166 0.431362970200293 0.44894968246213973
0.42278433999945264 0.42452369320957506 0.4509037616023448
0.42298659500011127 0.4186614557889594 0.4538348803126526
0.4231879230001141 0.40986809965803617 0.4538348803126526
0.4233893820000958 0.4040058622374205 0.4557889594528579
0.42359443199984526 0.3952125061064973 0.4557889594528579
0.4237996309993832 0.3932584269662922 0.4636052760136786
0.4240220149995366 0.3952125061064973 0.4636052760136786
0.42425786100011464 0.3981436248168051 0.4763067904250122
0.424470263999865 0.4059599413776258 0.46262823644357587
0.42467448099978355 0.4137762579384465 0.4636052760136786
0.4248773279996385 0.41475329750854906 0.46458231558378116
0.4250795640000433 0.412799218368344 0.46165119687347334
0.42528117099936935 0.40693698094772834 0.4655593551538837
0.42548318399985874 0.39716658524670256 0.467513434294089
0.425686642999608 0.3932584269662922 0.467513434294089
0.4258876750000127 0.3854421104054715 0.4665363947239862
0.42609216999971977 0.3805569125549584 0.47239863214460187
0.42629416499949 0.3834880312652662 0.4704445530043966
0.4264957899995352 0.37957987298485585 0.4704445530043966
0.4266971930001091 0.3805569125549584 0.47142159257449934
0.42689815099947737 0.3786028334147533 0.47142159257449934
0.4271006089993534 0.37469467513434296 0.4753297508549097
0.4273037530001602 0.3756717147044455 0.47142159257449934
0.42750476699984574 0.37176355642403514 0.46946751343429405
0.4277106689996799 0.3737176355642404 0.4684904738641915
0.4279126269993867 0.3707865168539326 0.4665363947239862
0.4281134929997279 0.36980947728383007 0.4655593551538837
0.42831380299958255 0.3756717147044455 0.4655593551538837
0.42851570599941624 0.37469467513434296 0.46262823644357587
0.42871736799952487 0.3756717147044455 0.4587200781631655
0.42891914099982387 0.37957987298485585 0.45969711773326827
0.4291201549995094 0.38641914997557403 0.4557889594528579
0.429331149999598 0.39912066438690763 0.4538348803126526
0.42953503399985493 0.40009770395701016 0.44992672203224227
0.4297388810000484 0.412799218368344 0.4479726428920372
0.42996411599960993 0.4352711284807034 0.4401563263312165
0.4301702409993595 0.45188080117244755 0.4352711284807034
0.4303707179997218 0.4684904738641915 0.4333170493404983
0.43056834300023183 0.48412310698583294 0.4323400097703958
0.4307669680001709 0.4938935026868587 0.4303859306301905
0.4309654999997292 0.5046409379579873 0.4303859306301905
0.4311638099998163 0.5085490962383976 0.4401563263312165
0.4313659909994385 0.5105031753786029 0.43722520762090866
0.43156435699984286 0.5056179775280898 0.43917928676111373
0.4317641849993379 0.5095261358085001 0.4460185637518319
0.4319630319996577 0.5085490962383976 0.44894968246213973
0.4321616199995333 0.5085490962383976 0.45676599902296044
0.4323592639993876 0.5065950170981925 0.46458231558378116
0.43255929599945375 0.5075720566682951 0.4636052760136786
0.43275925399939297 0.5085490962383976 0.4636052760136786
0.4329583979997551 0.5075720566682951 0.46458231558378116
0.433156856000096 0.5114802149487054 0.4636052760136786
0.43335514799946395 0.5134342940889105 0.46262823644357587
0.4335543469996992 0.5114802149487054 0.46262823644357587
0.4337522870000612 0.5134342940889105 0.4557889594528579
0.43415359199934755 0.5114802149487054 0.44992672203224227
0.4343905679997988 0.5134342940889105 0.44894968246213973
0.4345937669995692 0.5085490962383976 0.441133365901319
0.4348117250001451 0.5095261358085001 0.43722520762090866
0.43502677499964193 0.5046409379579873 0.4352711284807034
0.43524508500013326 0.5056179775280898 0.4333170493404983
0.43546604299990577 0.5046409379579873 0.4333170493404983
0.4356798709995928 0.5046409379579873 0.4333170493404983
0.4359031069998309 0.5056179775280898 0.43624816805080613
0.43612634199962486 0.5046409379579873 0.4323400097703958
0.43634531799943943 0.5065950170981925 0.43624816805080613
0.43658797899934143 0.5144113336590133 0.43624816805080613
0.43688708399986353 0.5026868588177822 0.4333170493404983
0.43718270599947573 0.5026868588177822 0.43429408891060084
0.4374866070002099 0.5026868588177822 0.4333170493404983
0.4378214879998268 0.49975574010747437 0.4303859306301905
0.43822466299934604 0.4938935026868587 0.4284318514899854
0.4385503590001463 0.495847581827064 0.42745481191988266
0.4387995389997741 0.48705422569614076 0.4284318514899854
0.4390267369999492 0.4831460674157304 0.4284318514899854
0.4392634910000197 0.47239863214460187 0.42745481191988266
0.43949848499960353 0.46262823644357587 0.4284318514899854
0.439717999000095 0.45481191988275516 0.4333170493404983
0.43993521599986707 0.4479726428920372 0.43624816805080613
0.44014945099934266 0.4450415241817294 0.43429408891060084
0.4403554840000652 0.4352711284807034 0.441133365901319
0.4405579049998778 0.42940889106008795 0.44992672203224227
0.4407615479995002 0.4206155349291647 0.45188080117244755
0.4409627659997568 0.41670737664875435 0.4557889594528579
0.4411712049995913 0.412799218368344 0.45676599902296044
0.4413742380002077 0.4108451392281387 0.45676599902296044
0.4415762509997876 0.4137762579384465 0.4557889594528579
0.4417868949994954 0.4157303370786516 0.4528578407425501
0.4420066669999869 0.42256961406936977 0.4538348803126526
0.4422099399998842 0.4235466536394723 0.4509037616023448
0.4424127319998661 0.4255007327796776 0.45188080117244755
0.44261472699963633 0.4264777723497801 0.4509037616023448
0.4428186850000202 0.4264777723497801 0.44699560332193444
0.44302081000023463 0.4255007327796776 0.44992672203224227
0.4432237310002165 0.4284318514899854 0.44894968246213973
0.44342772599975433 0.431362970200293 0.45188080117244755
0.4436311290000958 0.43429408891060084 0.4509037616023448
0.4438326800000141 0.43722520762090866 0.44992672203224227
0.44403567500012286 0.43624816805080613 0.4479726428920372
0.44423633699989296 0.4323400097703958 0.45188080117244755
0.4444380730001285 0.4255007327796776 0.4528578407425501
0.444639086999814 0.41963849535906195 0.4528578407425501
0.44484111899964773 0.41182217879824123 0.45481191988275516
0.4450483919999897 0.4049829018075233 0.45676599902296044
0.44526625700018485 0.39912066438690763 0.46165119687347334
0.44547993800006225 0.40009770395701016 0.45969711773326827
0.44569098800002394 0.3903273082559844 0.4655593551538837
0.44589790899954096 0.3883732291157791 0.46458231558378116
0.44612471900018136 0.38641914997557403 0.46458231558378116
0.4463584169998285 0.3805569125549584 0.4655593551538837
0.4465736530000868 0.3834880312652662 0.46165119687347334
0.4467766660000052 0.37957987298485585 0.46458231558378116
0.44698243899983936 0.376648754274548 0.467513434294089
0.4471842490002018 0.3786028334147533 0.4655593551538837
0.4473865959998875 0.37957987298485585 0.4636052760136786
0.4475888139995732 0.38251099169516367 0.4655593551538837
0.44779688299968257 0.38739618954567656 0.4636052760136786
0.4480331180002395 0.3834880312652662 0.46946751343429405
0.44826359399939975 0.3834880312652662 0.4665363947239862
0.44847207099974185 0.37957987298485585 0.4704445530043966
0.44867754799997783 0.376648754274548 0.47239863214460187
0.44887874699998065 0.3756717147044455 0.4733756717147044
0.44908272300017416 0.37274059599413767 0.47435271128480694
0.44928623699979653 0.37274059599413767 0.4763067904250122
0.4494890839996515 0.3805569125549584 0.47239863214460187
0.44969107899942173 0.38935026868588185 0.46946751343429405
0.44989377799993235 0.4040058622374205 0.4655593551538837
0.4500976069994067 0.41670737664875435 0.46165119687347334
0.4502993609994519 0.4303859306301905 0.45969711773326827
0.4505005599994547 0.44699560332193444 0.45676599902296044
0.45070242600013444 0.457743038593063 0.4557889594528579
0.4509072549999473 0.47239863214460187 0.45188080117244755
0.4511113609996755 0.486077186126038 0.44992672203224227
0.45131796699934057 0.49682462139716654 0.44992672203224227
0.45151938799972413 0.49877870053737183 0.44992672203224227
0.4517207540002346 0.5017098192476794 0.45188080117244755
0.4519227860000683 0.5017098192476794 0.4557889594528579
0.4521240220001346 0.5017098192476794 0.45481191988275516
0.45232623999982025 0.5075720566682951 0.4509037616023448
0.45252755000001343 0.5114802149487054 0.44894968246213973
0.45273915599955217 0.5163654127992183 0.44894968246213973
0.45294087399997807 0.5232046897899365 0.4450415241817294
0.4531473500001084 0.5310210063507572 0.4430874450415241
0.4533520489994771 0.5359062042012701 0.44406448461162684
0.4535543960000723 0.5398143624816805 0.4479726428920372
0.45375602100011747 0.5359062042012701 0.4430874450415241
0.4539754229999744 0.5319980459208598 0.44211040547142155
0.4541831779997665 0.5212506106497312 0.44211040547142155
0.45438609899974836 0.5095261358085001 0.43624816805080613
0.4545873159995608 0.5056179775280898 0.4323400097703958
