0 0.3707865168539326 0.45188080117244755
0.0010699089998524869 0.3737176355642404 0.44699560332193444
0.0013474589995894348 0.376648754274548 0.4430874450415241
0.0016166030000022147 0.3737176355642404 0.43722520762090866
0.0022703699996782234 0.3756717147044455 0.43917928676111373
0.0025965309996536234 0.3786028334147533 0.4450415241817294
0.002844193999408162 0.3883732291157791 0.45188080117244755
0.0030795049997323076 0.38446507083536874 0.4528578407425501
0.00330805599969608 0.3913043478260869 0.4528578407425501
0.0035338299994691624 0.39228138739618945 0.4557889594528579
0.0037539009999818518 0.3952125061064973 0.4557889594528579
0.003965878999224515 0.39912066438690763 0.4557889594528579
0.004168245999608189 0.40205178309721545 0.4509037616023448
0.004367797999293543 0.41670737664875435 0.4509037616023448
0.004566182999951707 0.4284318514899854 0.4450415241817294
0.004765216999658151 0.4430874450415241 0.43917928676111373
0.0050585079998199944 0.4655593551538837 0.4401563263312165
0.0052690599995912635 0.47435271128480694 0.43722520762090866
0.005470445999890217 0.48900830483634583 0.441133365901319
0.005670497999744839 0.495847581827064 0.4430874450415241
0.00586908700006461 0.5007327796775769 0.4450415241817294
0.006068676999348099 0.5007327796775769 0.44894968246213973
0.006268746999921859 0.4978016609672691 0.4528578407425501
0.00646720699933212 0.49877870053737183 0.4538348803126526
0.006664703999376798 0.49682462139716654 0.45969711773326827
0.00686519999999291 0.49975574010747437 0.457743038593063
0.007064085999445524 0.49682462139716654 0.45969711773326827
0.00726274899989221 0.4938935026868587 0.45969711773326827
0.007460689999788883 0.49193942354665365 0.46262823644357587
0.007659964999220392 0.48412310698583294 0.4587200781631655
0.00785797999924398 0.48900830483634583 0.46165119687347334
0.008057643000029202 0.48998534440644836 0.46165119687347334
0.008259491999524471 0.4909623839765511 0.4636052760136786
0.008463210999252624 0.48998534440644836 0.46262823644357587
0.008662669999466743 0.48705422569614076 0.4606741573033708
0.008874962999470881 0.48900830483634583 0.4606741573033708
0.009075607999875501 0.4880312652662433 0.4557889594528579
0.009275344999878143 0.49682462139716654 0.45969711773326827
0.00947417499992298 0.5007327796775769 0.4557889594528579
0.009674097999777587 0.5075720566682951 0.4528578407425501
0.009872797999378236 0.5134342940889105 0.4509037616023448
0.010081831999741553 0.5202735710796287 0.4538348803126526
0.010283124999659776 0.522227650219834 0.44992672203224227
0.010486805999789794 0.5300439667806547 0.4479726428920372
0.010686154999348219 0.5329750854909623 0.44406448461162684
0.01088459599941416 0.5359062042012701 0.43624816805080613
0.011098221999418456 0.5398143624816805 0.43917928676111373
0.011315032999846153 0.540791402051783 0.431362970200293
0.011531195999850752 0.5388373229115779 0.4333170493404983
0.011730933999388071 0.533952125061065 0.431362970200293
0.011929800999496365 0.5192965315095261 0.4333170493404983
0.012127983000027598 0.5017098192476794 0.43429408891060084
0.01234097899941844 0.4938935026868587 0.43624816805080613
0.012545308999506233 0.47923790913532005 0.4401563263312165
0.012744842999381945 0.4557889594528579 0.44211040547142155
0.013013560999752372 0.44406448461162684 0.4450415241817294
0.013212352999289578 0.4323400097703958 0.44406448461162684
0.013410738999482419 0.441133365901319 0.44699560332193444
0.013610383999548503 0.4460185637518319 0.44894968246213973
0.013807991999783553 0.4538348803126526 0.4479726428920372
0.014005969999743684 0.4538348803126526 0.44992672203224227
0.014206373999513744 0.4538348803126526 0.4538348803126526
0.014409999999770662 0.45676599902296044 0.4528578407425501
0.014608292999582773 0.46262823644357587 0.44992672203224227
0.014812511999480193 0.47435271128480694 0.44699560332193444
0.015018804999272106 0.4851001465559355 0.441133365901319
0.01521850499921129 0.49877870053737183 0.43722520762090866
0.015416612999615609 0.4802149487054226 0.4382022471910112
0.015615257999343157 0.45969711773326827 0.441133365901319
0.015813383999557118 0.43624816805080613 0.44406448461162684
0.016011529000024893 0.4108451392281387 0.4479726428920372
0.016210099999625527 0.3854421104054715 0.44894968246213973
0.01640905899967038 0.3678553981436248 0.45481191988275516
0.016607610999926692 0.36003908158280407 0.457743038593063
0.016807255999992776 0.3561309233023937 0.4557889594528579
0.017009438000059163 0.3531998045920859 0.45481191988275516
0.017213711999829684 0.36492427943331696 0.4538348803126526
0.017420671999389015 0.3737176355642404 0.45188080117244755
0.017624557000090135 0.38641914997557403 0.45188080117244755
0.017843682999227894 0.40889106008793363 0.4538348803126526
0.018050068999400537 0.42159257449926724 0.45481191988275516
0.018262972999764315 0.4333170493404983 0.457743038593063
0.018478172999493836 0.4460185637518319 0.45969711773326827
0.018681169000046793 0.4528578407425501 0.46165119687347334
0.018884146999880613 0.45188080117244755 0.457743038593063
0.01908468100009486 0.44894968246213973 0.457743038593063
0.019286380999801622 0.43722520762090866 0.45676599902296044
0.01948589699986769 0.4235466536394723 0.45481191988275516
0.01972370699968451 0.4137762579384465 0.45188080117244755
0.019933203999244142 0.41182217879824123 0.4538348803126526
0.020133051999437157 0.41475329750854906 0.44992672203224227
0.020332659999439784 0.4108451392281387 0.4479726428920372
0.020530637999399914 0.40693698094772834 0.4460185637518319
0.020735060999868438 0.4010747435271129 0.4450415241817294
0.021054684999398887 0.3981436248168051 0.44406448461162684
0.021264903999508533 0.3961895456765998 0.441133365901319
0.021465251999870816 0.39423546653639474 0.4382022471910112
0.02166458200008492 0.38739618954567656 0.4382022471910112
0.02186354199966445 0.38739618954567656 0.43624816805080613
0.022061871999540017 0.3854421104054715 0.43429408891060084
0.02226142399922537 0.3854421104054715 0.43722520762090866
0.02246030999958748 0.39228138739618945 0.43917928676111373
0.02265863999946305 0.3981436248168051 0.441133365901319
0.022858543999973335 0.4010747435271129 0.44211040547142155
0.023059206999278103 0.40009770395701016 0.4430874450415241
0.023259166999196168 0.3952125061064973 0.4450415241817294
0.023458107999431377 0.38935026868588185 0.4509037616023448
0.023657233999983873 0.3913043478260869 0.45481191988275516
0.02385782300007122 0.3932584269662922 0.4538348803126526
0.024057691000052728 0.39716658524670256 0.4587200781631655
0.024257149999357352 0.40205178309721545 0.45481191988275516
0.024455387999296363 0.412799218368344 0.4509037616023448
0.024654254999404657 0.4255007327796776 0.4528578407425501
0.024886657999559247 0.441133365901319 0.4538348803126526
0.025104284000008192 0.45481191988275516 0.4538348803126526
0.025307891999545973 0.4655593551538837 0.457743038593063
0.025511850999464514 0.4753297508549097 0.4557889594528579
0.025715347999721416 0.4831460674157304 0.4587200781631655
0.02591812199989363 0.4938935026868587 0.46262823644357587
0.02612234099979105 0.48998534440644836 0.46262823644357587
0.026326022999455745 0.48998534440644836 0.46458231558378116
0.026529185999606852 0.49193942354665365 0.46165119687347334
0.026732311999694502 0.4909623839765511 0.46165119687347334
0.026934567999887804 0.48412310698583294 0.4606741573033708
0.027158527999745274 0.4851001465559355 0.45969711773326827
0.027364745999875595 0.48705422569614076 0.45969711773326827
0.02756727999985742 0.4938935026868587 0.45481191988275516
0.02776897999956418 0.49877870053737183 0.4528578407425501
0.02798234700003377 0.5046409379579873 0.4528578407425501
0.028185065999423387 0.5105031753786029 0.4557889594528579
0.02838845099995524 0.5192965315095261 0.4557889594528579
0.02859035499932361 0.5202735710796287 0.45188080117244755
0.028793110999686178 0.5192965315095261 0.4509037616023448
0.028995885999393067 0.5183194919394236 0.457743038593063
0.029198307999649842 0.5173424523693209 0.45969711773326827
0.02940028600005462 0.5173424523693209 0.46262823644357587
0.029602782999972987 0.5183194919394236 0.4655593551538837
0.02980494599978556 0.5134342940889105 0.4665363947239862
0.030219532000046456 0.5036638983878847 0.45969711773326827
0.03046576799988543 0.4948705422569615 0.457743038593063
0.03067180199923314 0.4909623839765511 0.44894968246213973
0.030874779999976454 0.486077186126038 0.44894968246213973
0.031078387999514234 0.48900830483634583 0.4479726428920372
0.03128179199939041 0.486077186126038 0.44406448461162684
0.03148804800002836 0.486077186126038 0.4450415241817294
0.03169039599924872 0.48900830483634583 0.44406448461162684
0.0318923189997804 0.4851001465559355 0.4450415241817294
0.032093481999254436 0.4938935026868587 0.4450415241817294
0.032296071000018856 0.4929164631167562 0.44894968246213973
0.032500326999979734 0.4938935026868587 0.44894968246213973
0.032702656999390456 0.495847581827064 0.45188080117244755
0.03290863499933039 0.49193942354665365 0.44699560332193444
0.033111279999502585 0.48998534440644836 0.4430874450415241
0.03331560999959038 0.4811919882755251 0.4382022471910112
0.03352225399976305 0.4782608695652173 0.43624816805080613
0.03372476899949106 0.4851001465559355 0.4284318514899854
0.03392833999987488 0.4733756717147044 0.42452369320957506
0.03413102199920104 0.46458231558378116 0.42452369320957506
0.034334184999352146 0.457743038593063 0.4284318514899854
0.03453644099954545 0.44894968246213973 0.43429408891060084
0.03475123399948643 0.44406448461162684 0.4352711284807034
0.034969951999300974 0.4382022471910112 0.4430874450415241
0.03518817099939042 0.44699560332193444 0.4450415241817294
0.03540061199964839 0.4587200781631655 0.4450415241817294
0.03560340500007442 0.4753297508549097 0.44211040547142155
0.03580651199990825 0.4909623839765511 0.44211040547142155
0.03600899100001698 0.5017098192476794 0.44211040547142155
0.03621204299997771 0.5046409379579873 0.4401563263312165
0.036414112999409554 0.5007327796775769 0.4479726428920372
0.03661735099922225 0.4938935026868587 0.4557889594528579
0.036824273000092944 0.4811919882755251 0.46165119687347334
0.03705439899931662 0.46262823644357587 0.46262823644357587
0.037261265999404714 0.441133365901319 0.4587200781631655
0.03746402199976728 0.4108451392281387 0.46458231558378116
0.037669906999326486 0.3805569125549584 0.46946751343429405
0.03787236700009089 0.36492427943331696 0.4684904738641915
0.03807560399945942 0.358085002442599 0.4684904738641915
0.03827961899969523 0.3610161211529066 0.4655593551538837
0.03848274499978288 0.36492427943331696 0.4665363947239862
0.03868585300006089 0.3707865168539326 0.4684904738641915
0.03888821999953507 0.376648754274548 0.47239863214460187
0.039090253999347624 0.3707865168539326 0.47142159257449934
0.03929221299949859 0.3707865168539326 0.4684904738641915
0.039494079999712994 0.3756717147044455 0.47435271128480694
0.039697520999652625 0.37957987298485585 0.467513434294089
0.03989953699965554 0.38251099169516367 0.46458231558378116
0.04010266299974319 0.38641914997557403 0.46458231558378116
0.04030491899993649 0.38641914997557403 0.4606741573033708
0.04050745199947414 0.38446507083536874 0.45481191988275516
0.040709763999984716 0.38251099169516367 0.4528578407425501
0.04091400099969178 0.38739618954567656 0.44699560332193444
0.04112671999973827 0.3932584269662922 0.44406448461162684
0.04132990099969902 0.3952125061064973 0.44211040547142155
0.04153256499921554 0.3854421104054715 0.43722520762090866
0.0417348579994723 0.38251099169516367 0.4352711284807034
0.04193726199991943 0.3688324377137273 0.43429408891060084
0.04213927699947817 0.36492427943331696 0.431362970200293
0.042341495999608014 0.3707865168539326 0.4284318514899854
0.04254589999982272 0.38251099169516367 0.43429408891060084
0.04274780400010059 0.38641914997557403 0.4333170493404983
0.04295115199965949 0.3961895456765998 0.4333170493404983
0.04315357499945094 0.403028822667318 0.43624816805080613
0.04336897799930739 0.40693698094772834 0.44406448461162684
0.04358656699969288 0.4108451392281387 0.4538348803126526
0.04380243400009931 0.4108451392281387 0.4587200781631655
0.0440259299994068 0.41475329750854906 0.46458231558378116
0.04424668599949655 0.41963849535906195 0.4704445530043966
0.044460608000008506 0.431362970200293 0.4684904738641915
0.044665327000075195 0.44699560332193444 0.4733756717147044
0.044882489999508834 0.4655593551538837 0.46458231558378116
0.04508907899980841 0.4831460674157304 0.467513434294089
0.04529124300006515 0.4909623839765511 0.4606741573033708
0.04549755399966671 0.4978016609672691 0.4538348803126526
0.0457086429996707 0.5007327796775769 0.44992672203224227
0.04592949099969701 0.5017098192476794 0.4430874450415241
0.04614111699993373 0.5036638983878847 0.44211040547142155
0.04635348400006478 0.5065950170981925 0.44406448461162684
0.04657816599956277 0.495847581827064 0.4460185637518319
0.04679547699925024 0.49877870053737183 0.4460185637518319
0.047008361999360204 0.4880312652662433 0.4479726428920372
0.04722378399947047 0.4909623839765511 0.44894968246213973
0.047440076999919256 0.4802149487054226 0.4460185637518319
0.04765586999928928 0.47435271128480694 0.4460185637518319
0.04786934799994924 0.4655593551538837 0.4509037616023448
0.04809223299980658 0.4587200781631655 0.45481191988275516
0.048309339999832446 0.45676599902296044 0.45481191988275516
0.04854255899954296 0.4557889594528579 0.45676599902296044
0.04875901800005522 0.4636052760136786 0.4587200781631655
0.04903517999991891 0.47239863214460187 0.4606741573033708
0.04926636099935422 0.48412310698583294 0.45969711773326827
0.049489449999782664 0.495847581827064 0.45969711773326827
0.049706038999829616 0.5075720566682951 0.4538348803126526
0.04991757299922028 0.524181729360039 0.45188080117244755
0.0501247729998795 0.5427454811919883 0.4460185637518319
0.05033038100009435 0.5583781143136297 0.44211040547142155
0.05053189599948382 0.5642403517342451 0.43722520762090866
0.050736373999825446 0.5661944308744504 0.43429408891060084
0.05093892599961691 0.5642403517342451 0.4333170493404983
0.05114153399972565 0.5652173913043479 0.4235466536394723
0.051344214999517135 0.5632633121641426 0.42745481191988266
0.05156280399933166 0.5554469956033219 0.4264777723497801
0.0517805599993153 0.5349291646311676 0.431362970200293
0.05200672299997677 0.512457254518808 0.44406448461162684
0.05222494099962205 0.48900830483634583 0.441133365901319
0.05244378999941546 0.4763067904250122 0.4450415241817294
0.05265041599977849 0.47239863214460187 0.44894968246213973
0.052881781999531086 0.46165119687347334 0.4509037616023448
0.0530870379998305 0.4538348803126526 0.4509037616023448
0.05328857199947379 0.4460185637518319 0.4509037616023448
0.05349086499973055 0.44211040547142155 0.4509037616023448
0.05369312099992385 0.44211040547142155 0.44992672203224227
0.05389533899960952 0.44406448461162684 0.44894968246213973
0.05409872499967605 0.44211040547142155 0.44894968246213973
0.0543003509992559 0.441133365901319 0.44699560332193444
0.05450414400002046 0.4430874450415241 0.44894968246213973
0.05471613999998226 0.4479726428920372 0.44699560332193444
0.054920636999668204 0.45188080117244755 0.44406448461162684
0.05512285599979805 0.45481191988275516 0.4450415241817294
0.05532485299954715 0.4538348803126526 0.44406448461162684
0.055527052999423177 0.44894968246213973 0.44406448461162684
0.05572953099999722 0.44406448461162684 0.4460185637518319
0.05593211999985215 0.44406448461162684 0.44992672203224227
0.056134468999516685 0.44699560332193444 0.44894968246213973
0.056336650000048394 0.4538348803126526 0.45188080117244755
0.056538294999882055 0.4636052760136786 0.45676599902296044
0.056740606999483134 0.47239863214460187 0.4557889594528579
0.056958158999805164 0.4802149487054226 0.4538348803126526
0.057160784999723546 0.47923790913532005 0.4509037616023448
0.05736461499964207 0.46262823644357587 0.4509037616023448
0.05756727799962391 0.44406448461162684 0.4479726428920372
0.057769645000007586 0.4303859306301905 0.44894968246213973
0.05797245599933376 0.41670737664875435 0.44992672203224227
0.058174526999209775 0.40889106008793363 0.4509037616023448
0.05837809799959359 0.40693698094772834 0.4557889594528579
0.05858064999938506 0.4040058622374205 0.4557889594528579
0.058782923999388004 0.40009770395701016 0.457743038593063
0.059135880999747314 0.3981436248168051 0.4587200781631655
0.05936139599998569 0.39423546653639474 0.4587200781631655
0.05956561499988311 0.3913043478260869 0.45676599902296044
0.05976894499963237 0.3854421104054715 0.45481191988275516
0.05997151499923348 0.37957987298485585 0.457743038593063
0.06017293799959589 0.3737176355642404 0.4557889594528579
0.06037873099921853 0.3756717147044455 0.4557889594528579
0.06058059799943294 0.37469467513434296 0.4509037616023448
0.06078264999996463 0.376648754274548 0.44894968246213973
0.06098744299924874 0.37957987298485585 0.4460185637518319
0.06118947699997079 0.3854421104054715 0.44992672203224227
0.06139219499982573 0.38641914997557403 0.4479726428920372
0.061594006999257545 0.38446507083536874 0.44992672203224227
0.061796558999958506 0.3786028334147533 0.44894968246213973
0.061999018999813416 0.37957987298485585 0.44992672203224227
0.06222012599937443 0.3776257938446508 0.45481191988275516
0.06242197399933502 0.37957987298485585 0.45969711773326827
0.06262500799948612 0.38153395212506114 0.46458231558378116
0.06282859699967958 0.38251099169516367 0.46458231558378116
0.06303076099993632 0.37957987298485585 0.46262823644357587
0.06323297899962199 0.3776257938446508 0.46165119687347334
0.06343573499998456 0.3756717147044455 0.45969711773326827
0.06363843599956454 0.3707865168539326 0.45481191988275516
0.06384170999990602 0.3776257938446508 0.4479726428920372
0.0640438919999724 0.38446507083536874 0.441133365901319
0.06424642499951005 0.39716658524670256 0.4401563263312165
0.06446140299976832 0.4137762579384465 0.441133365901319
0.06469676999950025 0.4450415241817294 0.44211040547142155
0.0649097850000544 0.45481191988275516 0.44699560332193444
0.06513441099923512 0.4636052760136786 0.45188080117244755
0.06536140699972748 0.4753297508549097 0.45188080117244755
0.06558005099941511 0.4831460674157304 0.4557889594528579
0.06584765799925663 0.4938935026868587 0.4606741573033708
0.06607389500004501 0.5085490962383976 0.45481191988275516
0.06628013199951965 0.5144113336590133 0.4587200781631655
0.06648477699945943 0.5192965315095261 0.4606741573033708
0.06668790299954708 0.5212506106497312 0.46458231558378116
0.06688997399942309 0.5144113336590133 0.46458231558378116
0.06709204399976443 0.49877870053737183 0.46262823644357587
0.06729418899976736 0.48900830483634583 0.4655593551538837
0.06749672299974918 0.47728382999511476 0.46458231558378116
0.06770081199920241 0.46946751343429405 0.4733756717147044
0.06790567899952293 0.4665363947239862 0.46458231558378116
0.06810724999922968 0.4665363947239862 0.4636052760136786
0.06830831999923248 0.4733756717147044 0.4587200781631655
0.06851068699961615 0.4851001465559355 0.46458231558378116
0.06871327699991525 0.49193942354665365 0.44894968246213973
0.06892066199998226 0.5036638983878847 0.4460185637518319
0.06912484399981622 0.512457254518808 0.43917928676111373
0.06932802599931165 0.5251587689301416 0.4382022471910112
0.06953068899929349 0.5280898876404494 0.431362970200293
0.0697344449999946 0.5329750854909623 0.42745481191988266
0.06993710799997643 0.5349291646311676 0.42256961406936977
0.07014221600002202 0.533952125061065 0.4235466536394723
0.0703543229992647 0.5349291646311676 0.4235466536394723
0.07058805999986362 0.5300439667806547 0.42452369320957506
0.07084490799934429 0.5212506106497312 0.42745481191988266
0.07107001499934995 0.5192965315095261 0.4323400097703958
0.07132875099978264 0.5134342940889105 0.43429408891060084
0.07156854400000157 0.5105031753786029 0.43429408891060084
0.07179653999992297 0.5075720566682951 0.441133365901319
0.07201272099973721 0.5007327796775769 0.44894968246213973
0.07223643999986962 0.5017098192476794 0.45188080117244755
0.07246619499983353 0.49193942354665365 0.45969711773326827
0.07268621000002895 0.4880312652662433 0.4557889594528579
0.07290940999973827 0.48412310698583294 0.45676599902296044
0.07311962899984792 0.48705422569614076 0.457743038593063
0.0733475319993886 0.4880312652662433 0.45676599902296044
0.0735635099999854 0.4909623839765511 0.4606741573033708
0.07378669199988508 0.48705422569614076 0.4655593551538837
0.07402631700006168 0.4811919882755251 0.4704445530043966
0.07425135099947511 0.47435271128480694 0.47435271128480694
0.0744702909996704 0.4636052760136786 0.4753297508549097
0.07469364000007772 0.44894968246213973 0.47435271128480694
0.07492096899932221 0.431362970200293 0.4684904738641915
0.0751550019995193 0.40889106008793363 0.4636052760136786
0.07538133199977892 0.39228138739618945 0.46262823644357587
0.07560695799929817 0.3854421104054715 0.45969711773326827
0.07583073199930368 0.3834880312652662 0.45676599902296044
0.07605119099935109 0.3883732291157791 0.44992672203224227
0.07628194599965354 0.4079140205178309 0.44992672203224227
0.076506793999215 0.4264777723497801 0.44699560332193444
0.07672947599985491 0.44211040547142155 0.44406448461162684
0.07706563699957769 0.4509037616023448 0.44211040547142155
0.0773539100000562 0.43722520762090866 0.441133365901319
0.07762860899947555 0.4176844162188569 0.441133365901319
0.07785062399943854 0.4059599413776258 0.4430874450415241
0.07809367499976361 0.3903273082559844 0.4509037616023448
0.07831246799923974 0.37957987298485585 0.44992672203224227
0.07852524200006883 0.37176355642403514 0.4538348803126526
0.07873412699973414 0.37176355642403514 0.4509037616023448
0.0789451979999285 0.3834880312652662 0.4538348803126526
0.07917430499946931 0.39423546653639474 0.44992672203224227
0.07940120900002512 0.403028822667318 0.44894968246213973
0.07961938999960694 0.4040058622374205 0.4509037616023448
0.07984284999929514 0.40205178309721545 0.4460185637518319
0.08008273499945062 0.39716658524670256 0.4430874450415241
0.08029969399922265 0.3952125061064973 0.4401563263312165
0.0805181719997563 0.38641914997557403 0.441133365901319
0.08074161199965602 0.38153395212506114 0.4333170493404983
0.08104662599998846 0.3776257938446508 0.43722520762090866
0.08130965799955447 0.376648754274548 0.4352711284807034
0.08157796899922687 0.38153395212506114 0.43917928676111373
0.08186196399947221 0.39423546653639474 0.4401563263312165
0.08215075499992963 0.3981436248168051 0.4479726428920372
0.08243452799979423 0.39423546653639474 0.44894968246213973
0.082669284000076 0.38935026868588185 0.4528578407425501
0.08289714999955322 0.3883732291157791 0.4538348803126526
0.08311810999930458 0.37957987298485585 0.45481191988275516
0.08337558699986403 0.3786028334147533 0.4587200781631655
0.08366095199926349 0.3913043478260869 0.467513434294089
0.08396837300006155 0.40205178309721545 0.4636052760136786
0.08423860899983993 0.4186614557889594 0.4684904738641915
0.08451291999972455 0.431362970200293 0.4587200781631655
0.08479080399956729 0.4528578407425501 0.4655593551538837
0.08510631699937221 0.47142159257449934 0.46165119687347334
0.085337812999569 0.48216902784562765 0.45969711773326827
0.08557051299976592 0.48900830483634583 0.46165119687347334
0.08580800899926544 0.4938935026868587 0.4606741573033708
0.08608442999957333 0.4978016609672691 0.4636052760136786
0.08634533299937175 0.4978016609672691 0.4636052760136786
0.08662890300001891 0.495847581827064 0.45481191988275516
0.08699180399980833 0.495847581827064 0.4509037616023448
0.08738688999983424 0.5026868588177822 0.44406448461162684
0.0877339029993891 0.5085490962383976 0.44992672203224227
0.08798645399929228 0.5085490962383976 0.441133365901319
0.08825435699964146 0.5153883732291158 0.44406448461162684
0.08850920499935455 0.5144113336590133 0.44894968246213973
0.0887688299999354 0.5163654127992183 0.4538348803126526
0.08910034299969993 0.512457254518808 0.457743038593063
0.08945533699989028 0.5007327796775769 0.44992672203224227
0.08975394299977779 0.5007327796775769 0.44699560332193444
0.08998536499984766 0.5007327796775769 0.4430874450415241
0.09020797199991648 0.4929164631167562 0.4401563263312165
0.09042602399949828 0.49682462139716654 0.43917928676111373
0.09064816899990547 0.49975574010747437 0.441133365901319
0.09087446099965746 0.5056179775280898 0.43722520762090866
0.09110577199953696 0.5134342940889105 0.43429408891060084
0.09133073099928879 0.5232046897899365 0.4333170493404983
0.09156306099976064 0.5359062042012701 0.42745481191988266
0.09203147900007025 0.5271128480703469 0.4284318514899854
0.09237336199930724 0.5163654127992183 0.4323400097703958
0.09261198799958947 0.5114802149487054 0.44211040547142155
0.0929493529993124 0.49975574010747437 0.4430874450415241
0.09318927399999666 0.4929164631167562 0.44699560332193444
0.09340421499928198 0.4851001465559355 0.4479726428920372
0.09360999000000447 0.4782608695652173 0.4479726428920372
0.09381494899935205 0.4733756717147044 0.44699560332193444
0.09402007499920728 0.4636052760136786 0.4479726428920372
0.09422310899935837 0.4538348803126526 0.4509037616023448
0.09442560599927674 0.44406448461162684 0.44699560332193444
0.09462897299999895 0.42940889106008795 0.44992672203224227
0.094830858000023 0.42256961406936977 0.45188080117244755
0.09503461399981461 0.4157303370786516 0.44992672203224227
0.09523694399922533 0.4108451392281387 0.4538348803126526
0.09543925499929173 0.41182217879824123 0.4538348803126526
0.09564189999946393 0.41475329750854906 0.44699560332193444
0.09584450799957267 0.4186614557889594 0.4430874450415241
0.0960467079994487 0.4235466536394723 0.44699560332193444
0.09624924199943052 0.42940889106008795 0.4460185637518319
0.09645249799996236 0.42745481191988266 0.45188080117244755
0.0966545129995211 0.41963849535906195 0.45481191988275516
0.09687586099971668 0.41670737664875435 0.45969711773326827
0.09708130199942389 0.40693698094772834 0.4587200781631655
0.09728389099927881 0.40205178309721545 0.4606741573033708
0.09748949899949366 0.3903273082559844 0.4606741573033708
0.09769134699945425 0.38641914997557403 0.46262823644357587
0.09789386200009176 0.3786028334147533 0.457743038593063
0.09811263699975825 0.3786028334147533 0.457743038593063
0.09834802099976514 0.38251099169516367 0.4528578407425501
0.0986509609992936 0.39228138739618945 0.45481191988275516
0.09895156699985819 0.40889106008793363 0.44894968246213973
0.099223191999954 0.4079140205178309 0.441133365901319
0.0995293349997155 0.39423546653639474 0.431362970200293
0.09981982999943284 0.3913043478260869 0.4323400097703958
0.10009202899982483 0.3913043478260869 0.4352711284807034
0.10038858000007167 0.3932584269662922 0.44406448461162684
0.1006769819996407 0.3932584269662922 0.44699560332193444
0.10094038499937596 0.3913043478260869 0.4528578407425501
0.10119104799923662 0.38739618954567656 0.46165119687347334
0.1014895059997798 0.4010747435271129 0.4704445530043966
0.1018554629999926 0.4303859306301905 0.46946751343429405
0.10224812299929908 0.4352711284807034 0.46458231558378116
0.10263180199945054 0.403028822667318 0.4557889594528579
0.10303877599926636 0.3805569125549584 0.4460185637518319
0.1033545669997693 0.3854421104054715 0.44406448461162684
0.10363859999961278 0.39423546653639474 0.44699560332193444
0.10387078099938662 0.3981436248168051 0.4460185637518319
0.10410186999979487 0.40205178309721545 0.44699560332193444
0.10432303299967316 0.4157303370786516 0.4538348803126526
0.10456784300004074 0.4323400097703958 0.4557889594528579
0.1048086909995618 0.44699560332193444 0.45481191988275516
0.1050572979993376 0.45969711773326827 0.4557889594528579
0.10528147999957582 0.47142159257449934 0.45188080117244755
0.1054954759993052 0.4763067904250122 0.45188080117244755
0.10569999099971028 0.4831460674157304 0.4528578407425501
0.10590574699926947 0.48900830483634583 0.4557889594528579
0.10610920599992824 0.48705422569614076 0.4606741573033708
0.10631222199936019 0.4938935026868587 0.4587200781631655
0.1065152549999766 0.49193942354665365 0.4655593551538837
0.1067193809994933 0.48998534440644836 0.4665363947239862
0.1069216369996866 0.4948705422569615 0.4655593551538837
0.10712607799996476 0.4948705422569615 0.4704445530043966
0.10732896399986203 0.5007327796775769 0.4665363947239862
0.1075395159996333 0.49975574010747437 0.45969711773326827
0.10774401199978456 0.5056179775280898 0.4528578407425501
0.10795623099966178 0.5056179775280898 0.4430874450415241
0.1081787829998575 0.5075720566682951 0.441133365901319
0.10839255699920614 0.5105031753786029 0.4401563263312165
0.10860423899976013 0.5114802149487054 0.43917928676111373
0.10881880899978569 0.5144113336590133 0.44406448461162684
0.10907535999922402 0.5192965315095261 0.4430874450415241
0.10927874599929055 0.524181729360039 0.44992672203224227
0.10948170599931473 0.524181729360039 0.44992672203224227
0.10968375799984642 0.5319980459208598 0.44699560332193444
0.1098871619997226 0.5271128480703469 0.4450415241817294
0.11009926899987477 0.533952125061065 0.4450415241817294
0.11030246999962401 0.5232046897899365 0.44211040547142155
0.11050602199975401 0.512457254518808 0.4450415241817294
0.11071140700005344 0.5017098192476794 0.44406448461162684
0.11091351499999291 0.48998534440644836 0.44211040547142155
0.11111645599976328 0.4851001465559355 0.44211040547142155
0.11131880399989313 0.486077186126038 0.441133365901319
0.1115219489993251 0.4811919882755251 0.43722520762090866
0.11172444599924347 0.48412310698583294 0.43429408891060084
0.1119262019992675 0.4851001465559355 0.431362970200293
0.1121283089996723 0.48900830483634583 0.4264777723497801
0.11233058399920992 0.4938935026868587 0.4235466536394723
0.1125334139996994 0.512457254518808 0.42745481191988266
0.11273555899970233 0.5153883732291158 0.4255007327796776
0.1129532589993687 0.5251587689301416 0.4323400097703958
0.11315673699937179 0.5232046897899365 0.4303859306301905
0.11336302899962902 0.5163654127992183 0.43722520762090866
0.11356545199942047 0.5065950170981925 0.441133365901319
0.11377254099988932 0.495847581827064 0.4430874450415241
0.11398501899930125 0.4811919882755251 0.44992672203224227
0.11418784899979073 0.46165119687347334 0.44894968246213973
0.11439045699989947 0.44992672203224227 0.45676599902296044
0.11460393499964994 0.4460185637518319 0.4587200781631655
0.1148347640000793 0.4333170493404983 0.4587200781631655
0.11507366799924057 0.4303859306301905 0.46165119687347334
0.11529116399924533 0.4333170493404983 0.4636052760136786
0.11551708599927224 0.4323400097703958 0.4636052760136786
0.11573158200008038 0.4333170493404983 0.4684904738641915
0.11595881899938831 0.42940889106008795 0.4606741573033708
0.11618664899924624 0.42452369320957506 0.46165119687347334
0.11641755199980253 0.40889106008793363 0.4606741573033708
0.11668523299977096 0.3952125061064973 0.45676599902296044
0.1170005609992586 0.3805569125549584 0.457743038593063
0.11724020499968901 0.38641914997557403 0.4557889594528579
0.11744777599960798 0.3932584269662922 0.45188080117244755
0.11765129099967453 0.40693698094772834 0.44699560332193444
0.11785423199944489 0.41670737664875435 0.4460185637518319
0.11805620999984967 0.42256961406936977 0.44992672203224227
0.1182587989997046 0.4235466536394723 0.44894968246213973
0.1184610549998979 0.41963849535906195 0.4557889594528579
0.11866353299956245 0.412799218368344 0.457743038593063
0.11886669699924823 0.4059599413776258 0.4606741573033708
0.11907450799935759 0.4049829018075233 0.46262823644357587
0.11927741199997399 0.40889106008793363 0.4587200781631655
0.1194803159996809 0.41182217879824123 0.4538348803126526
0.11968255299962038 0.40693698094772834 0.44992672203224227
0.11988466099955986 0.40889106008793363 0.441133365901319
0.12008826900000713 0.4040058622374205 0.4401563263312165
0.12029065399929095 0.4040058622374205 0.441133365901319
0.12049381799988623 0.40986809965803617 0.441133365901319
0.12069579599938152 0.4157303370786516 0.4430874450415241
0.12090079199970205 0.4186614557889594 0.44406448461162684
0.1211038629999166 0.4206155349291647 0.4430874450415241
0.12130837799941219 0.41475329750854906 0.44211040547142155
0.1215126520000922 0.40205178309721545 0.43917928676111373
0.12171596400003182 0.3932584269662922 0.4382022471910112
0.12191857199923106 0.3786028334147533 0.43624816805080613
0.12212095699942438 0.36980947728383007 0.4401563263312165
0.12232493499959673 0.36003908158280407 0.44211040547142155
0.12252756099951512 0.35417684416218864 0.45188080117244755
0.12272996499996225 0.3502686858817783 0.44699560332193444
0.12293209199924604 0.35222276502198335 0.45188080117244755
0.12313497699960863 0.358085002442599 0.4528578407425501
0.12333699200007686 0.3678553981436248 0.45969711773326827
0.12376702199981082 0.3903273082559844 0.46262823644357587
0.12402866599950357 0.40205178309721545 0.46946751343429405
0.12423545899946475 0.40889106008793363 0.4763067904250122
0.12443825199989078 0.4284318514899854 0.4684904738641915
0.12464159999944968 0.44406448461162684 0.4704445530043966
0.12486457799968775 0.457743038593063 0.4684904738641915
0.12507501899926865 0.467513434294089 0.4753297508549097
0.1252779599999485 0.4704445530043966 0.47239863214460187
0.12548275299923262 0.467513434294089 0.46946751343429405
0.12568435999946814 0.467513434294089 0.4665363947239862
0.1258878939997885 0.46458231558378116 0.4636052760136786
0.1260894829993049 0.4753297508549097 0.4636052760136786
0.12629192399981548 0.4704445530043966 0.45969711773326827
0.12649369900009333 0.4733756717147044 0.45969711773326827
0.1266960469993137 0.4782608695652173 0.45676599902296044
0.12689870999929553 0.4802149487054226 0.45969711773326827
0.1271010219998061 0.48412310698583294 0.4557889594528579
0.12730275899957633 0.4938935026868587 0.45676599902296044
0.12750512599996 0.5065950170981925 0.4538348803126526
0.12770760399962455 0.5183194919394236 0.457743038593063
0.1279108599992469 0.5232046897899365 0.4557889594528579
0.12811378299920761 0.5329750854909623 0.45481191988275516
0.12831611299952783 0.533952125061065 0.4557889594528579
0.1285185349997846 0.5329750854909623 0.4587200781631655
0.12872342099944944 0.5310210063507572 0.45676599902296044
0.1289569169994138 0.5300439667806547 0.457743038593063
0.12917978299992683 0.5310210063507572 0.45969711773326827
0.12939459499921213 0.5368832437713726 0.45676599902296044
0.1296097579997877 0.5359062042012701 0.4538348803126526
0.12982966099934856 0.5329750854909623 0.4538348803126526
0.13005212099960772 0.5271128480703469 0.4479726428920372
0.13026796899976034 0.5261358085002443 0.4460185637518319
0.13048418699963804 0.5192965315095261 0.44211040547142155
0.1307124239992845 0.5144113336590133 0.44211040547142155
0.1309426239995446 0.512457254518808 0.44406448461162684
0.13115960199957044 0.5075720566682951 0.44211040547142155
0.13139020899961906 0.5017098192476794 0.4382022471910112
0.1316351499999655 0.4978016609672691 0.43722520762090866
0.13186160899931565 0.5017098192476794 0.4333170493404983
0.13208145699991292 0.5017098192476794 0.4284318514899854
0.13232463799977268 0.5026868588177822 0.42256961406936977
0.13259655899946665 0.5036638983878847 0.4186614557889594
0.13291196199952537 0.5007327796775769 0.4186614557889594
0.13319891999981337 0.495847581827064 0.42452369320957506
0.13345406400003412 0.49193942354665365 0.4303859306301905
0.13373013299951708 0.4909623839765511 0.4352711284807034
0.13397105500007456 0.48998534440644836 0.441133365901319
0.1341916619994663 0.48216902784562765 0.44406448461162684
0.13442032500006462 0.46458231558378116 0.44992672203224227
0.134644359000049 0.4509037616023448 0.4479726428920372
0.13486990999990667 0.441133365901319 0.4557889594528579
0.1350909809998484 0.4401563263312165 0.4538348803126526
0.1353269579994958 0.4333170493404983 0.4538348803126526
0.1355382510000709 0.4333170493404983 0.45188080117244755
0.1357401179993758 0.4284318514899854 0.45188080117244755
0.13594344800003455 0.42940889106008795 0.4509037616023448
0.13614627799961454 0.431362970200293 0.4479726428920372
0.13634881199959636 0.4352711284807034 0.4450415241817294
0.13655025299976842 0.431362970200293 0.44406448461162684
0.13675200799934828 0.4303859306301905 0.44894968246213973
0.13698531899990485 0.42256961406936977 0.44992672203224227
0.13719024199963314 0.412799218368344 0.4538348803126526
0.13739492399963638 0.4049829018075233 0.4557889594528579
0.13759956800004147 0.3932584269662922 0.45969711773326827
0.1378061389996219 0.37957987298485585 0.4557889594528579
0.13800939499924425 0.376648754274548 0.45969711773326827
0.1382114289999663 0.36980947728383007 0.45188080117244755
0.13841679500001192 0.3737176355642404 0.44406448461162684
0.13861958799952845 0.37957987298485585 0.4450415241817294
0.13882195499991212 0.3913043478260869 0.44406448461162684
0.1390238779995343 0.4059599413776258 0.44894968246213973
0.13922596699921996 0.41475329750854906 0.44992672203224227
0.13942916699943453 0.41963849535906195 0.4509037616023448
0.13963279399922612 0.4176844162188569 0.4538348803126526
0.1398345679999693 0.4157303370786516 0.4528578407425501
0.1400357869997606 0.40693698094772834 0.4557889594528579
0.14024174599944672 0.3932584269662922 0.457743038593063
0.14044427999942855 0.3805569125549584 0.457743038593063
0.1406472209991989 0.37176355642403514 0.457743038593063
0.14086180999947828 0.36687835857352225 0.45676599902296044
0.1410671209996508 0.3629702002931119 0.45969711773326827
0.14126963699982298 0.3629702002931119 0.4606741573033708
0.14148733699948934 0.3678553981436248 0.45969711773326827
0.14171272199928353 0.3737176355642404 0.4587200781631655
0.14196938399982173 0.37957987298485585 0.46165119687347334
0.14227898999979516 0.38935026868588185 0.4655593551538837
0.142633539999224 0.39716658524670256 0.46458231558378116
0.14302090399996814 0.4010747435271129 0.4665363947239862
0.1434051010000985 0.3932584269662922 0.4636052760136786
0.14374981699984346 0.39716658524670256 0.4636052760136786
0.14408027499939635 0.4010747435271129 0.4606741573033708
0.14431393699942419 0.4206155349291647 0.4587200781631655
0.14452241499930096 0.4255007327796776 0.45676599902296044
0.14472680099970603 0.4303859306301905 0.45676599902296044
0.14495894499941642 0.4323400097703958 0.45969711773326827
0.14516118299980008 0.4323400097703958 0.4636052760136786
0.1453635869993377 0.43429408891060084 0.4606741573033708
0.1455681759998697 0.44406448461162684 0.4587200781631655
0.14576954299991485 0.45969711773326827 0.4587200781631655
0.14597211299951596 0.4753297508549097 0.45676599902296044
0.14617401699979382 0.4831460674157304 0.4528578407425501
0.14637595899966982 0.4909623839765511 0.457743038593063
0.14657813999929203 0.5007327796775769 0.45188080117244755
0.1467810260000988 0.5075720566682951 0.4538348803126526
0.14698655899974256 0.512457254518808 0.4509037616023448
0.14718931499919563 0.5095261358085001 0.4460185637518319
0.14739149699926202 0.5153883732291158 0.4479726428920372
0.1475939379997726 0.5232046897899365 0.4450415241817294
0.14779641599943716 0.5349291646311676 0.4401563263312165
0.1479984309999054 0.5329750854909623 0.4333170493404983
0.14821742799995263 0.5388373229115779 0.431362970200293
0.14845762699951592 0.5427454811919883 0.42745481191988266
0.14868812399981834 0.5417684416218858 0.4255007327796776
0.1488933789996736 0.5388373229115779 0.4284318514899854
0.14909581999927468 0.5349291646311676 0.4255007327796776
0.1492985389995738 0.524181729360039 0.4284318514899854
0.14950112799942872 0.512457254518808 0.4255007327796776
0.14970342099968548 0.5017098192476794 0.4303859306301905
0.14990775099977327 0.49877870053737183 0.43624816805080613
0.15011106299971289 0.49193942354665365 0.44211040547142155
0.1503151329998218 0.4929164631167562 0.4450415241817294
0.15051677799965546 0.5017098192476794 0.44894968246213973
0.15071916399938345 0.5026868588177822 0.44992672203224227
0.15092156799983059 0.5173424523693209 0.4528578407425501
0.1511247309999817 0.5271128480703469 0.45188080117244755
0.15132739399996353 0.5388373229115779 0.4557889594528579
0.15153042799920513 0.540791402051783 0.45188080117244755
0.15173338699969463 0.5446995603321934 0.4557889594528579
0.15193982799974037 0.540791402051783 0.4538348803126526
0.1521425659993838 0.5388373229115779 0.4538348803126526
0.15234495099957712 0.5329750854909623 0.4538348803126526
0.15254679999998189 0.5202735710796287 0.44699560332193444
0.15274885199960408 0.5144113336590133 0.4479726428920372
0.152971069999694 0.5056179775280898 0.4450415241817294
0.15317225199942186 0.49682462139716654 0.4430874450415241
0.1533752489995095 0.48705422569614076 0.44406448461162684
0.15357683799993538 0.47728382999511476 0.4450415241817294
0.15377842699945177 0.4763067904250122 0.44894968246213973
0.15398009099953924 0.4538348803126526 0.4528578407425501
0.15418293899983837 0.4509037616023448 0.45676599902296044
0.1545315439998376 0.4479726428920372 0.46458231558378116
0.154752317999737 0.4450415241817294 0.4636052760136786
0.15495533400007844 0.44211040547142155 0.4557889594528579
0.15515777499967953 0.4352711284807034 0.4509037616023448
0.1553595299992594 0.4264777723497801 0.4528578407425501
0.15556080499936797 0.4079140205178309 0.45969711773326827
0.15576344999954017 0.3854421104054715 0.46165119687347334
0.15596653899956436 0.36492427943331696 0.4587200781631655
0.1561684239995884 0.35222276502198335 0.4587200781631655
0.15636984699995082 0.35417684416218864 0.4655593551538837
0.1565718249994461 0.35710796287249624 0.46458231558378116
0.15677352500006236 0.358085002442599 0.4655593551538837
0.15697559599993838 0.36492427943331696 0.4655593551538837
0.15717866699924343 0.3834880312652662 0.4655593551538837
0.15738179299933108 0.3883732291157791 0.4606741573033708
0.1575833449996935 0.40009770395701016 0.45969711773326827
0.15778630499971769 0.41475329750854906 0.45676599902296044
0.15798852299940336 0.42159257449926724 0.45481191988275516
0.15819076099978702 0.43624816805080613 0.4557889594528579
0.15839271999993798 0.4333170493404983 0.44894968246213973
0.15859495799941214 0.42159257449926724 0.44894968246213973
0.15879695399962657 0.41475329750854906 0.44992672203224227
0.15899874699971406 0.41182217879824123 0.4430874450415241
0.15920103999997082 0.412799218368344 0.43917928676111373
0.1594080179993398 0.42452369320957506 0.4333170493404983
0.15961220000008325 0.431362970200293 0.43624816805080613
0.15981586299949413 0.431362970200293 0.43722520762090866
0.16002145199945517 0.42159257449926724 0.4479726428920372
0.16023644899996725 0.4010747435271129 0.44406448461162684
0.16045435299929522 0.38641914997557403 0.44992672203224227
0.16065649699976348 0.37176355642403514 0.4538348803126526
0.1608731419992182 0.3659013190034197 0.45188080117244755
0.16107775000000402 0.36003908158280407 0.4538348803126526
0.16128022799966857 0.36199316072300936 0.44894968246213973
0.16148527999939688 0.36003908158280407 0.45188080117244755
0.16168710999954783 0.3629702002931119 0.45188080117244755
0.16188801399948716 0.36199316072300936 0.44992672203224227
0.1620894549996592 0.3639472398632144 0.4479726428920372
0.16229561799991643 0.3659013190034197 0.4479726428920372
0.16249742999934824 0.3678553981436248 0.44699560332193444
0.16270077799981664 0.376648754274548 0.45188080117244755
0.16290270099943882 0.37957987298485585 0.4509037616023448
0.1631057159993361 0.38641914997557403 0.44894968246213973
0.1633076379994236 0.40009770395701016 0.44894968246213973
0.16351004199987074 0.41182217879824123 0.44894968246213973
0.1637115019993871 0.4235466536394723 0.44699560332193444
0.163913534999665 0.43429408891060084 0.45481191988275516
0.16411434699966776 0.44699560332193444 0.44699560332193444
0.1643166209996707 0.457743038593063 0.4430874450415241
0.16451858099935635 0.467513434294089 0.441133365901319
0.16473472500001662 0.4753297508549097 0.43429408891060084
0.16495905499959918 0.4831460674157304 0.43624816805080613
0.1651632739994966 0.495847581827064 0.441133365901319
0.1653649370000494 0.49877870053737183 0.44894968246213973
0.16556652599956578 0.5036638983878847 0.4509037616023448
0.1657689859994207 0.5075720566682951 0.45969711773326827
0.16597157499927562 0.5105031753786029 0.45969711773326827
0.16617323799982842 0.5075720566682951 0.4606741573033708
0.1663751609994506 0.5036638983878847 0.4587200781631655
0.1665764350000245 0.4948705422569615 0.457743038593063
0.16677826499926596 0.4929164631167562 0.4528578407425501
0.16697974299950147 0.4880312652662433 0.4538348803126526
0.16718181399937748 0.48216902784562765 0.45188080117244755
0.16738392199931695 0.4802149487054226 0.4538348803126526
0.16758965899953182 0.4802149487054226 0.4606741573033708
0.16779309999947145 0.48705422569614076 0.467513434294089
0.16799592999996094 0.4948705422569615 0.4655593551538837
0.1681973899994773 0.4978016609672691 0.4665363947239862
0.16839986800005136 0.5075720566682951 0.4636052760136786
0.16860201300005428 0.5173424523693209 0.46458231558378116
0.16880397199929575 0.5173424523693209 0.45481191988275516
0.16900587599957362 0.5202735710796287 0.4538348803126526
0.169208501999492 0.5144113336590133 0.4509037616023448
0.16940994299966405 0.5065950170981925 0.44894968246213973
0.16961330999947677 0.49193942354665365 0.45188080117244755
0.16981549199954316 0.4763067904250122 0.4528578407425501
0.1700212299992927 0.46165119687347334 0.4509037616023448
0.17022300400003587 0.44992672203224227 0.45188080117244755
0.17042512999978499 0.44894968246213973 0.44894968246213973
0.17062697899928025 0.4538348803126526 0.4460185637518319
0.1708301049993679 0.4557889594528579 0.44699560332193444
0.17103173099985725 0.467513434294089 0.44211040547142155
0.17123302399977547 0.48216902784562765 0.4382022471910112
0.17143459499948221 0.4929164631167562 0.4382022471910112
0.17163575799986575 0.522227650219834 0.43429408891060084
0.17183842099984759 0.5359062042012701 0.43429408891060084
0.17204071399919485 0.5446995603321934 0.431362970200293
0.17224243300006492 0.5437225207620908 0.431362970200293
0.17244416999983514 0.5290669272105519 0.431362970200293
0.17264524099937262 0.5046409379579873 0.431362970200293
0.17285744099990552 0.4802149487054226 0.431362970200293
0.1730624749998242 0.4655593551538837 0.4333170493404983
0.17326756399961596 0.46458231558378116 0.4352711284807034
0.17346956099936506 0.47142159257449934 0.4352711284807034
0.17367598300006648 0.4811919882755251 0.4382022471910112
0.17387738699926558 0.4851001465559355 0.44211040547142155
0.1740791989996069 0.4831460674157304 0.4430874450415241
0.1742808619992502 0.47923790913532005 0.44699560332193444
0.1744825989999299 0.467513434294089 0.44894968246213973
0.17468383699997503 0.46262823644357587 0.4450415241817294
0.1748852219998298 0.4557889594528579 0.4460185637518319
0.17508736699983274 0.45676599902296044 0.44406448461162684
0.1752918079992014 0.4557889594528579 0.44699560332193444
0.17549287899964838 0.4587200781631655 0.45188080117244755
0.17569543099943985 0.457743038593063 0.45676599902296044
0.17589701999986573 0.46262823644357587 0.46262823644357587
0.17610090600010153 0.46458231558378116 0.46165119687347334
0.17630279099921609 0.467513434294089 0.46262823644357587
0.1765062320000652 0.4665363947239862 0.4606741573033708
0.17670824699962395 0.46262823644357587 0.46165119687347334
0.1769112989995847 0.4528578407425501 0.46262823644357587
0.17711325899927033 0.44211040547142155 0.46262823644357587
0.17731594099950598 0.4323400097703958 0.4587200781631655
0.17751773399959347 0.42452369320957506 0.4587200781631655
0.1777197490000617 0.4108451392281387 0.45676599902296044
0.17792118999932427 0.4010747435271129 0.4528578407425501
0.17812329799926374 0.3932584269662922 0.45188080117244755
0.17832449799971073 0.38641914997557403 0.45481191988275516
0.17852823499924853 0.3834880312652662 0.45481191988275516
0.17872982499920909 0.3834880312652662 0.4528578407425501
0.17893150599957153 0.3834880312652662 0.44992672203224227
0.1791327809996801 0.38446507083536874 0.4509037616023448
0.1793343889994503 0.38739618954567656 0.4528578407425501
0.17953544099964347 0.38935026868588185 0.45188080117244755
0.17973780800002714 0.38739618954567656 0.4509037616023448
0.17993965599998774 0.3854421104054715 0.4509037616023448
0.18014159699941956 0.38739618954567656 0.44699560332193444
0.18034370499935903 0.3854421104054715 0.4450415241817294
0.18054610899980617 0.3854421104054715 0.44406448461162684
0.1807474759998513 0.38641914997557403 0.44406448461162684
0.1809709720000683 0.38153395212506114 0.4460185637518319
0.18117424699994444 0.3776257938446508 0.4557889594528579
0.1813786689999688 0.3776257938446508 0.45188080117244755
0.18158125799982372 0.3786028334147533 0.457743038593063
0.18179147699993337 0.3776257938446508 0.46458231558378116
0.1819929739995132 0.3786028334147533 0.4636052760136786
0.18219415499970637 0.37957987298485585 0.4655593551538837
0.18239620799977274 0.3786028334147533 0.46946751343429405
0.18259981499977584 0.3786028334147533 0.4636052760136786
0.18280147899986332 0.3834880312652662 0.46262823644357587
0.18324528599987389 0.38935026868588185 0.457743038593063
0.18347483799971087 0.3932584269662922 0.4528578407425501
0.18368118599937588 0.40009770395701016 0.44992672203224227
0.18388336799944227 0.40986809965803617 0.4479726428920372
0.18408686499969917 0.41670737664875435 0.4479726428920372
0.18428852799934248 0.42745481191988266 0.44699560332193444
0.18449289499949373 0.4401563263312165 0.44894968246213973
0.1846951879997505 0.4528578407425501 0.44894968246213973
0.1849055180000505 0.4606741573033708 0.45188080117244755
0.1851119959992502 0.47142159257449934 0.45188080117244755
0.18531376999999338 0.4763067904250122 0.4509037616023448
0.1855146739999327 0.4831460674157304 0.4538348803126526
0.18571598499966058 0.48705422569614076 0.4509037616023448
0.18591796399960003 0.4929164631167562 0.4509037616023448
0.18612157099960314 0.5026868588177822 0.4538348803126526
0.18632304899983865 0.49682462139716654 0.44699560332193444
0.1865253420000954 0.49877870053737183 0.4460185637518319
0.18672663500001363 0.4948705422569615 0.44699560332193444
0.186929260999932 0.49193942354665365 0.4460185637518319
0.1871309989992369 0.4880312652662433 0.4460185637518319
0.1873326069999166 0.4831460674157304 0.44894968246213973
0.18753325099987705 0.4811919882755251 0.4509037616023448
0.18773446999966836 0.4831460674157304 0.44894968246213973
0.1879360220000308 0.4880312652662433 0.44894968246213973
0.1881385560000126 0.49877870053737183 0.44699560332193444
0.18834012699971936 0.5085490962383976 0.44699560332193444
0.1885415679998914 0.5212506106497312 0.4460185637518319
0.1887443239993445 0.5319980459208598 0.4450415241817294
0.18896448699979373 0.5427454811919883 0.44406448461162684
0.1891662609996274 0.550561797752809 0.4450415241817294
0.1893680349994611 0.550561797752809 0.44211040547142155
0.1895695319999504 0.5495847581827065 0.44211040547142155
0.1897721579998688 0.5486077186126037 0.441133365901319
0.18997456199940643 0.5437225207620908 0.44211040547142155
0.1901779109994095 0.5417684416218858 0.44406448461162684
0.1903791109998565 0.5359062042012701 0.4460185637518319
0.1905811079996056 0.5319980459208598 0.4460185637518319
0.19078273400009493 0.5232046897899365 0.4450415241817294
0.19098391599982278 0.5144113336590133 0.4460185637518319
0.19118670899933932 0.5046409379579873 0.4460185637518319
0.19138994599961734 0.4978016609672691 0.4479726428920372
0.19159142399985285 0.4978016609672691 0.44406448461162684
0.1917933839995385 0.495847581827064 0.44211040547142155
0.19199458399998548 0.49975574010747437 0.44211040547142155
0.19219602499924804 0.5046409379579873 0.44699560332193444
0.19239761399967392 0.5007327796775769 0.44699560332193444
0.19259885199971905 0.49682462139716654 0.44406448461162684
0.19280038499982766 0.486077186126038 0.4450415241817294
0.19300219699925947 0.46946751343429405 0.44699560332193444
0.19320435999998153 0.4528578407425501 0.44894968246213973
0.19340609799928643 0.4430874450415241 0.4450415241817294
0.19360759399933158 0.43917928676111373 0.44406448461162684
0.1938098689997787 0.43624816805080613 0.4479726428920372
0.1940115869992951 0.43722520762090866 0.44894968246213973
0.19421330599925568 0.43917928676111373 0.4479726428920372
0.1944145990000834 0.4333170493404983 0.4479726428920372
0.19462324399955833 0.42940889106008795 0.45188080117244755
0.194824888999392 0.4323400097703958 0.44992672203224227
0.19502634799937368 0.431362970200293 0.4528578407425501
0.19522730799963028 0.43722520762090866 0.4538348803126526
0.19542841599923122 0.4430874450415241 0.45481191988275516
0.19563011599984748 0.44699560332193444 0.4528578407425501
0.1958319269997446 0.4509037616023448 0.45676599902296044
0.1960333309998532 0.45481191988275516 0.4557889594528579
0.19623699499970826 0.45481191988275516 0.44992672203224227
0.19643865799935156 0.45188080117244755 0.44992672203224227
0.1966401549998409 0.44211040547142155 0.44406448461162684
0.19686094699954992 0.43624816805080613 0.441133365901319
0.19706490699991264 0.4303859306301905 0.43917928676111373
0.19726671799980977 0.4235466536394723 0.43917928676111373
0.19747045499934757 0.4206155349291647 0.44211040547142155
0.19767198899990035 0.412799218368344 0.4479726428920372
0.1978819489995658 0.40205178309721545 0.4538348803126526
0.19808520399965346 0.39228138739618945 0.4606741573033708
0.19828847899952962 0.3805569125549584 0.4606741573033708
0.19848956799978623 0.3688324377137273 0.4636052760136786
0.19869493499936652 0.35417684416218864 0.46262823644357587
0.19889706100002513 0.3502686858817783 0.46458231558378116
0.19909918699977425 0.35906204201270153 0.4665363947239862
0.1993016099995657 0.3639472398632144 0.46262823644357587
0.19950444000005518 0.3707865168539326 0.45676599902296044
0.19970693699997355 0.37469467513434296 0.45481191988275516
0.19990889599921502 0.3776257938446508 0.4509037616023448
0.20011067099949287 0.3756717147044455 0.44699560332193444
0.20031211199966492 0.3776257938446508 0.44699560332193444
0.20051379300002736 0.37957987298485585 0.441133365901319
0.20071545699920534 0.3854421104054715 0.44211040547142155
0.20091937899996992 0.3883732291157791 0.4430874450415241
0.20112176499969792 0.38739618954567656 0.4430874450415241
0.2013241869999547 0.38446507083536874 0.44406448461162684
0.20152751699970395 0.38153395212506114 0.4450415241817294
0.20172940299926267 0.37469467513434296 0.44211040547142155
0.20193278799979453 0.37274059599413767 0.4479726428920372
0.20213506299933215 0.3629702002931119 0.4509037616023448
0.20233718899999076 0.35417684416218864 0.4557889594528579
0.202538167000057 0.348314606741573 0.4587200781631655
0.20274203400003898 0.35222276502198335 0.4557889594528579
0.20294297500004177 0.3551538837322912 0.45676599902296044
0.20314480499928322 0.36492427943331696 0.4538348803126526
0.20334589399953984 0.3786028334147533 0.4538348803126526
0.20354677999966952 0.3932584269662922 0.44894968246213973
0.2037485539995032 0.41182217879824123 0.44699560332193444
0.2039501619992734 0.42745481191988266 0.4460185637518319
0.20415469499948813 0.44406448461162684 0.4450415241817294
0.2043585619994701 0.4636052760136786 0.44699560332193444
0.20456057799947303 0.47923790913532005 0.44211040547142155
0.204762536999624 0.48705422569614076 0.44211040547142155
0.2049674039999445 0.4978016609672691 0.4450415241817294
0.20517151199965156 0.5036638983878847 0.44699560332193444
0.20537337899986596 0.5105031753786029 0.4528578407425501
0.2055747459999111 0.5153883732291158 0.4509037616023448
0.20577622399923712 0.5183194919394236 0.4509037616023448
0.20597818299938808 0.5183194919394236 0.457743038593063
0.206180198999391 0.5163654127992183 0.457743038593063
0.2063813429995207 0.512457254518808 0.46165119687347334
0.20658298799935437 0.5114802149487054 0.46262823644357587
0.20678446599958988 0.5075720566682951 0.4655593551538837
0.206986147999487 0.5095261358085001 0.4655593551538837
0.2071890520001034 0.5007327796775769 0.46946751343429405
0.2073924749993239 0.4938935026868587 0.4733756717147044
0.20759530499981338 0.4948705422569615 0.47142159257449934
0.20779800499985868 0.49682462139716654 0.4704445530043966
0.2079998159997558 0.5046409379579873 0.4704445530043966
0.2082011649999913 0.5065950170981925 0.4665363947239862
0.208402623999973 0.5085490962383976 0.46458231558378116
0.20860484300010285 0.5114802149487054 0.45969711773326827
0.20880654399934429 0.5105031753786029 0.457743038593063
0.2090101509993474 0.5065950170981925 0.4509037616023448
0.20921179600009054 0.5085490962383976 0.4479726428920372
0.2094144039992898 0.5105031753786029 0.4450415241817294
0.20961643699956767 0.5134342940889105 0.4430874450415241
0.209817934000057 0.5153883732291158 0.44992672203224227
0.21002011599921389 0.5183194919394236 0.4430874450415241
0.21022127899959742 0.5144113336590133 0.44406448461162684
0.21042347899947345 0.5144113336590133 0.4460185637518319
0.21062490199983586 0.5114802149487054 0.44406448461162684
0.21082689899958496 0.5114802149487054 0.44211040547142155
0.21102882099967246 0.5114802149487054 0.44211040547142155
0.21123007699952723 0.5095261358085001 0.441133365901319
0.21144066599936195 0.5065950170981925 0.441133365901319
0.21189367699935246 0.5036638983878847 0.4479726428920372
0.2122038009993048 0.5017098192476794 0.44992672203224227
0.21246266799971636 0.5056179775280898 0.45188080117244755
0.21268812699963746 0.4938935026868587 0.44894968246213973
0.2129042339993248 0.48998534440644836 0.4450415241817294
0.21312637899973197 0.48412310698583294 0.4382022471910112
0.2133515229998011 0.4802149487054226 0.4333170493404983
0.21357362999970064 0.4782608695652173 0.4323400097703958
0.2137917189993459 0.4704445530043966 0.43429408891060084
0.21401814099954208 0.4606741573033708 0.43917928676111373
0.2142473969997809 0.44699560332193444 0.4479726428920372
0.21445670799948857 0.4352711284807034 0.45676599902296044
0.2146841300000233 0.42745481191988266 0.4636052760136786
0.21491295999931026 0.41963849535906195 0.4636052760136786
0.21515649299999495 0.41475329750854906 0.4655593551538837
0.21540113699938956 0.4108451392281387 0.4636052760136786
0.21567724299984548 0.412799218368344 0.4479726428920372
0.21598675699988235 0.4255007327796776 0.4479726428920372
0.21628045499983273 0.4323400097703958 0.4430874450415241
0.21656833999986702 0.43624816805080613 0.4460185637518319
0.21680348399968352 0.4323400097703958 0.4538348803126526
0.21704566499920475 0.4206155349291647 0.4587200781631655
0.2172738829995069 0.40889106008793363 0.4606741573033708
0.2175013799997032 0.40205178309721545 0.46458231558378116
0.21773400499932904 0.3961895456765998 0.46165119687347334
0.21794103899992479 0.3932584269662922 0.46458231558378116
0.21814333199927205 0.3961895456765998 0.45969711773326827
0.2183454759997403 0.40009770395701016 0.4587200781631655
0.21854736199929903 0.40205178309721545 0.45481191988275516
0.21874932199989416 0.403028822667318 0.4528578407425501
0.21895176299949526 0.403028822667318 0.44894968246213973
0.21915392599930783 0.4079140205178309 0.44992672203224227
0.21935666299941659 0.4186614557889594 0.4479726428920372
0.2195591229992715 0.4186614557889594 0.4479726428920372
0.2197639159994651 0.4206155349291647 0.44406448461162684
0.2199657089995526 0.41670737664875435 0.441133365901319
0.22016914999949222 0.40986809965803617 0.4382022471910112
0.220370534999347 0.40205178309721545 0.4430874450415241
0.22057327299989993 0.39423546653639474 0.4460185637518319
0.2207754909995856 0.38739618954567656 0.4479726428920372
0.22098195099988516 0.3854421104054715 0.4509037616023448
0.2211843549994228 0.38251099169516367 0.45481191988275516
0.2213864810000814 0.38446507083536874 0.4528578407425501
0.22160529199936718 0.3834880312652662 0.44894968246213973
0.22182667699962622 0.38446507083536874 0.4460185637518319
0.22206772899971838 0.38251099169516367 0.44699560332193444
0.2223680939996484 0.3776257938446508 0.44894968246213973
0.22270160700009 0.3805569125549584 0.4528578407425501
0.22306400899924483 0.3776257938446508 0.45676599902296044
0.22347311299927242 0.3756717147044455 0.457743038593063
0.22380119999979797 0.3805569125549584 0.457743038593063
0.22407169500002055 0.39228138739618945 0.4606741573033708
0.22433404299954418 0.40889106008793363 0.4538348803126526
0.22454987299988716 0.42452369320957506 0.4538348803126526
0.22475231399948825 0.43624816805080613 0.44992672203224227
0.22498730999996042 0.44992672203224227 0.44992672203224227
0.22518989899981534 0.4587200781631655 0.4460185637518319
0.22539191399937408 0.4733756717147044 0.44894968246213973
0.22559392899984232 0.4802149487054226 0.44699560332193444
0.22579537000001437 0.495847581827064 0.4460185637518319
0.22599629299929802 0.5017098192476794 0.44406448461162684
0.22619793800004118 0.5026868588177822 0.4450415241817294
0.2264016189992617 0.5036638983878847 0.4460185637518319
0.22660313500000484 0.5007327796775769 0.44894968246213973
0.2268079460000081 0.5017098192476794 0.4479726428920372
0.2270102019992919 0.5026868588177822 0.44699560332193444
0.2272124579994852 0.5046409379579873 0.44699560332193444
0.22741512099946704 0.5046409379579873 0.44699560332193444
0.22761622899997747 0.5056179775280898 0.4450415241817294
0.2278182249992824 0.5065950170981925 0.44211040547142155
0.22802033299922186 0.5075720566682951 0.4460185637518319
0.22822201500002848 0.512457254518808 0.4450415241817294
0.22842401199977758 0.5212506106497312 0.44699560332193444
0.2286267859999498 0.5290669272105519 0.4450415241817294
0.22882848599965655 0.5271128480703469 0.43917928676111373
0.22905098299997917 0.5212506106497312 0.4333170493404983
0.22925640499943256 0.5202735710796287 0.42940889106008795
0.229458827999224 0.5232046897899365 0.42159257449926724
0.2296617129995866 0.5319980459208598 0.4264777723497801
0.22986387599939917 0.5564240351734244 0.4255007327796776
0.23006755799997336 0.5701025891548608 0.42940889106008795
0.23026985099932062 0.5808500244259893 0.4382022471910112
0.2304720140000427 0.5808500244259893 0.44992672203224227
0.2306738259994745 0.5701025891548608 0.45676599902296044
0.23087556299924472 0.5534929164631168 0.46262823644357587
0.23107744899971294 0.5368832437713726 0.46946751343429405
0.231278889999885 0.5251587689301416 0.46946751343429405
0.23148136799954955 0.49877870053737183 0.4763067904250122
0.23169849399982922 0.4763067904250122 0.4733756717147044
0.2319420079993506 0.44992672203224227 0.47728382999511476
0.23218739299954905 0.4264777723497801 0.4733756717147044
0.23239255599946773 0.41182217879824123 0.47142159257449934
0.23259957099980966 0.4010747435271129 0.4655593551538837
0.23280143800002406 0.39912066438690763 0.45969711773326827
0.23300474999996368 0.40693698094772834 0.45188080117244755
0.2332065609998608 0.4157303370786516 0.44406448461162684
0.2334095759997581 0.42452369320957506 0.43722520762090866
0.2336119060000783 0.43429408891060084 0.4333170493404983
0.23381384699951013 0.43429408891060084 0.4284318514899854
0.23401495500002056 0.42745481191988266 0.42452369320957506
0.23421737799981202 0.41963849535906195 0.4264777723497801
0.23441835599987826 0.4186614557889594 0.42940889106008795
0.2346198519999234 0.4206155349291647 0.42940889106008795
0.2348209229994609 0.4303859306301905 0.42940889106008795
0.2350227899996753 0.4460185637518319 0.42940889106008795
0.2352248609995513 0.46165119687347334 0.4333170493404983
0.23542837599961786 0.4782608695652173 0.43722520762090866
0.23563153899976896 0.48900830483634583 0.4430874450415241
0.23583525799949712 0.4880312652662433 0.44406448461162684
0.23603745799937315 0.4811919882755251 0.44699560332193444
0.23623934399984137 0.4636052760136786 0.4479726428920372
0.2364409510000769 0.44699560332193444 0.44699560332193444
0.23664248499972018 0.4264777723497801 0.4450415241817294
0.23686285199983104 0.40889106008793363 0.4479726428920372
0.23706744099945354 0.40009770395701016 0.44894968246213973
0.2372743999994782 0.39716658524670256 0.4538348803126526
0.23747876699962944 0.40009770395701016 0.4538348803126526
0.23767948599925148 0.40889106008793363 0.457743038593063
0.23788177899950824 0.4157303370786516 0.46165119687347334
0.23808336799993413 0.42159257449926724 0.46458231558378116
0.23828649499955645 0.431362970200293 0.4636052760136786
0.23848771399934776 0.43722520762090866 0.457743038593063
0.238689135999266 0.4450415241817294 0.457743038593063
0.23889037299977645 0.44894968246213973 0.4557889594528579
0.23909199999980046 0.4528578407425501 0.46165119687347334
0.23929434799993032 0.44406448461162684 0.4538348803126526
0.23949595599970053 0.4323400097703958 0.45676599902296044
0.23969724899961875 0.41475329750854906 0.45676599902296044
0.23989974500000244 0.39716658524670256 0.4557889594528579
0.2401015749992439 0.38153395212506114 0.45676599902296044
0.24030501600009302 0.37176355642403514 0.45676599902296044
0.2405064759996094 0.36492427943331696 0.45676599902296044
0.24070906499946432 0.36687835857352225 0.4606741573033708
0.2409125429994674 0.3756717147044455 0.4655593551538837
0.24111500299932231 0.38739618954567656 0.47435271128480694
0.24131729599957907 0.4059599413776258 0.46946751343429405
0.2415188479999415 0.4206155349291647 0.47435271128480694
0.2417217329993946 0.42256961406936977 0.467513434294089
0.2419238039992706 0.4137762579384465 0.467513434294089
0.24212676399929478 0.3952125061064973 0.46262823644357587
0.24256940399936866 0.35222276502198335 0.45969711773326827
0.24279330799981835 0.35417684416218864 0.457743038593063
0.24299735999920813 0.3561309233023937 0.457743038593063
0.24320374599938077 0.3629702002931119 0.45481191988275516
0.2434145939996597 0.3688324377137273 0.44992672203224227
0.24364340499960235 0.37957987298485585 0.44406448461162684
0.2438501050000923 0.39423546653639474 0.43722520762090866
0.24405363899950316 0.4079140205178309 0.4323400097703958
0.24425835799956985 0.4323400097703958 0.4333170493404983
0.24446142799934023 0.45188080117244755 0.4333170493404983
0.24466298099923733 0.4665363947239862 0.43722520762090866
0.24487749499985512 0.47923790913532005 0.4430874450415241
0.24507832499966753 0.4851001465559355 0.44699560332193444
0.24528091499996663 0.49193942354665365 0.4528578407425501
0.24548404100005428 0.495847581827064 0.4557889594528579
0.24568640799952846 0.5026868588177822 0.45481191988275516
0.24588808999942557 0.5065950170981925 0.4528578407425501
0.24608965999959764 0.5095261358085001 0.4538348803126526
0.24629137899955822 0.5085490962383976 0.4509037616023448
0.24649331999989954 0.5065950170981925 0.4479726428920372
0.24669727999935276 0.5017098192476794 0.45188080117244755
0.24689940600001137 0.5017098192476794 0.44894968246213973
0.24710351399971842 0.495847581827064 0.45481191988275516
0.24730552899927716 0.4929164631167562 0.45481191988275516
0.2475096919997668 0.48900830483634583 0.4557889594528579
0.24771181799951592 0.4938935026868587 0.45676599902296044
0.2479155000000901 0.5007327796775769 0.4538348803126526
0.24811766299990268 0.5046409379579873 0.4528578407425501
0.24831901199922868 0.5085490962383976 0.4509037616023448
0.24852158299927396 0.5085490962383976 0.46262823644357587
0.2487225609993402 0.5075720566682951 0.45188080117244755
0.24894805699932476 0.5085490962383976 0.4538348803126526
0.24915029399926425 0.5046409379579873 0.45481191988275516
0.24935197600007086 0.5007327796775769 0.45481191988275516
0.24955447299998923 0.5026868588177822 0.45676599902296044
0.24975646899929416 0.512457254518808 0.457743038593063
0.24995929899978364 0.5095261358085001 0.45969711773326827
0.25016116599999805 0.5114802149487054 0.4587200781631655
0.2503622929998528 0.5105031753786029 0.45676599902296044
0.2505636969999614 0.5105031753786029 0.4528578407425501
0.2507671189996472 0.5085490962383976 0.4509037616023448
0.2509696159995656 0.5046409379579873 0.4479726428920372
0.251170853000076 0.5036638983878847 0.44211040547142155
0.25137240499952895 0.5007327796775769 0.4401563263312165
0.2515746429999126 0.49682462139716654 0.4352711284807034
0.2517787130000215 0.48998534440644836 0.431362970200293
0.2519806359996437 0.48900830483634583 0.4284318514899854
0.2521839839992026 0.486077186126038 0.4264777723497801
0.25238653699943825 0.48998534440644836 0.42940889106008795
0.25258871799996996 0.495847581827064 0.431362970200293
0.25279082599990943 0.5105031753786029 0.43722520762090866
0.25299517399980687 0.5134342940889105 0.4401563263312165
0.25319872699947155 0.5075720566682951 0.4460185637518319
0.2534015379997072 0.49193942354665365 0.44406448461162684
0.2536037199997736 0.4763067904250122 0.44699560332193444
0.25380666099954396 0.44992672203224227 0.44894968246213973
0.25400863899994874 0.4352711284807034 0.4479726428920372
0.25420952500007843 0.4206155349291647 0.44992672203224227
0.25441218800006027 0.412799218368344 0.44992672203224227
0.25461390700002084 0.40889106008793363 0.457743038593063
0.254816273999495 0.39912066438690763 0.45969711773326827
0.25501880699994217 0.3981436248168051 0.45969711773326827
0.25522089599962783 0.3981436248168051 0.46165119687347334
0.25542244899952493 0.40009770395701016 0.46165119687347334
0.2556286489998456 0.4010747435271129 0.46165119687347334
0.2558320159996583 0.412799218368344 0.4538348803126526
0.25603375299942854 0.4284318514899854 0.44992672203224227
0.25623563899989676 0.44211040547142155 0.44699560332193444
0.2564372839997304 0.4509037616023448 0.4450415241817294
0.25663803899988125 0.45481191988275516 0.44406448461162684
0.2568515169996317 0.4587200781631655 0.4450415241817294
0.25705788399955054 0.457743038593063 0.441133365901319
0.25725969599989185 0.46165119687347334 0.441133365901319
0.25746221099961986 0.4587200781631655 0.441133365901319
0.25766342999941116 0.45188080117244755 0.44211040547142155
0.2578647410000485 0.4430874450415241 0.44211040547142155
0.25807240399990405 0.4303859306301905 0.441133365901319
0.2582746230000339 0.4157303370786516 0.4430874450415241
0.2584768229999099 0.403028822667318 0.4450415241817294
0.2586789309998494 0.3932584269662922 0.44894968246213973
0.25888133499938704 0.3903273082559844 0.44894968246213973
0.2590825909992418 0.3932584269662922 0.4509037616023448
0.2592835319992446 0.40009770395701016 0.44992672203224227
0.25948497299941664 0.4040058622374205 0.45188080117244755
0.2596888399993986 0.4079140205178309 0.4479726428920372
0.2598910959995919 0.40986809965803617 0.4479726428920372
0.2600922409992563 0.4049829018075233 0.44699560332193444
0.2602940149999995 0.3981436248168051 0.44699560332193444
0.26049519699972734 0.38935026868588185 0.4509037616023448
0.26069763799932844 0.3776257938446508 0.4538348803126526
0.26090102399939497 0.36687835857352225 0.4538348803126526
0.26110327999958827 0.3629702002931119 0.4509037616023448
0.261310479999338 0.35906204201270153 0.4538348803126526
0.26151275399934093 0.3561309233023937 0.45481191988275516
0.2617146029997457 0.35906204201270153 0.45188080117244755
0.2619164139996428 0.36199316072300936 0.4528578407425501
0.26211737399989943 0.3629702002931119 0.4528578407425501
0.2623181109993311 0.3639472398632144 0.4538348803126526
0.2625193300000319 0.36980947728383007 0.4528578407425501
0.26272080799935793 0.3756717147044455 0.45188080117244755
0.2629223419999107 0.3834880312652662 0.45481191988275516
0.26312433799921564 0.3952125061064973 0.4538348803126526
0.26332492799974716 0.4040058622374205 0.4557889594528579
0.26352684999983467 0.41670737664875435 0.45676599902296044
0.26373032799983775 0.42159257449926724 0.4606741573033708
0.26393289899988304 0.42452369320957506 0.45676599902296044
0.26413646999935736 0.4323400097703958 0.4528578407425501
0.2643396509993181 0.44406448461162684 0.44992672203224227
0.2645423519998076 0.45676599902296044 0.44699560332193444
0.26474523699926067 0.46458231558378116 0.4430874450415241
0.26497160399958375 0.47239863214460187 0.4460185637518319
0.2651753039999676 0.47923790913532005 0.4460185637518319
0.2653784119993361 0.486077186126038 0.4450415241817294
0.2655798899995716 0.486077186126038 0.4450415241817294
0.2657805720000397 0.48705422569614076 0.44406448461162684
0.2659830869997677 0.4880312652662433 0.44406448461162684
0.2661843799996859 0.48998534440644836 0.4479726428920372
0.2663853019994349 0.49193942354665365 0.44992672203224227
0.26658689099986077 0.4978016609672691 0.45188080117244755
0.2667885920000117 0.4978016609672691 0.4557889594528579
0.26699058799931663 0.49877870053737183 0.45481191988275516
0.2671927519995734 0.5017098192476794 0.4587200781631655
0.26739424799961853 0.5056179775280898 0.4557889594528579
0.26759572599985404 0.5026868588177822 0.45676599902296044
0.2677977599996666 0.5046409379579873 0.45676599902296044
0.2679993490000925 0.5085490962383976 0.45676599902296044
0.26820023499931267 0.5144113336590133 0.4538348803126526
0.2684021019995271 0.5192965315095261 0.4528578407425501
0.2686066539999956 0.5212506106497312 0.45188080117244755
0.2688103169994065 0.524181729360039 0.44992672203224227
0.26901253599953634 0.5232046897899365 0.4479726428920372
0.2692139029995815 0.5319980459208598 0.4460185637518319
0.2694158439999228 0.5349291646311676 0.45188080117244755
0.2696183589996508 0.5329750854909623 0.44894968246213973
0.26981992999935756 0.5261358085002443 0.4509037616023448
0.2700222229996143 0.5144113336590133 0.45481191988275516
0.27022514500004036 0.5056179775280898 0.4538348803126526
0.27042766099930304 0.4938935026868587 0.4509037616023448
0.27062950899926363 0.48412310698583294 0.44699560332193444
0.27083183899958385 0.4811919882755251 0.44211040547142155
0.2711695179996241 0.4782608695652173 0.431362970200293
0.27139471800001047 0.4831460674157304 0.4352711284807034
0.27159949299948494 0.48412310698583294 0.4352711284807034
0.27180143399982626 0.4929164631167562 0.4401563263312165
0.2720022819994483 0.49975574010747437 0.44211040547142155
0.27220301999932417 0.5095261358085001 0.441133365901319
0.27240507199985586 0.5134342940889105 0.4382022471910112
0.27260738299992227 0.5153883732291158 0.4352711284807034
0.27281021299950226 0.5163654127992183 0.4323400097703958
0.2730122469993148 0.5183194919394236 0.4284318514899854
0.27321340999969834 0.5183194919394236 0.4264777723497801
0.2734156289998282 0.5144113336590133 0.431362970200293
0.2736167369994291 0.5085490962383976 0.4333170493404983
0.27381826999953773 0.49682462139716654 0.441133365901319
0.2740200449998156 0.4880312652662433 0.44699560332193444
0.2742343929994604 0.4811919882755251 0.4479726428920372
0.2744452779998028 0.467513434294089 0.4528578407425501
0.274654422999447 0.45676599902296044 0.457743038593063
0.2748575859995981 0.4323400097703958 0.4606741573033708
0.27505943500000285 0.412799218368344 0.4606741573033708
0.2752640059998157 0.40205178309721545 0.45969711773326827
0.27546570599952247 0.3834880312652662 0.4636052760136786
0.2756701279995468 0.37469467513434296 0.4655593551538837
0.27587323599982483 0.3678553981436248 0.47239863214460187
0.276076639999701 0.3707865168539326 0.4733756717147044
0.2762796179995348 0.3756717147044455 0.46946751343429405
0.2764825039994321 0.38251099169516367 0.47142159257449934
0.27668474099937157 0.3883732291157791 0.4684904738641915
0.2768868670000302 0.3854421104054715 0.46458231558378116
0.2770903079999698 0.3883732291157791 0.4557889594528579
0.2772911749998457 0.40205178309721545 0.44992672203224227
0.27749237599982735 0.4176844162188569 0.44699560332193444
0.2776942609998514 0.42452369320957506 0.4479726428920372
0.2778956100000869 0.42256961406936977 0.44992672203224227
0.27809867999985727 0.4186614557889594 0.44894968246213973
0.2783007509997333 0.41475329750854906 0.4509037616023448
0.2785025989996939 0.412799218368344 0.4479726428920372
0.2787058369995066 0.4176844162188569 0.44699560332193444
0.278910055999404 0.412799218368344 0.4460185637518319
0.2791223300000638 0.41182217879824123 0.44894968246213973
0.2793368630000259 0.40986809965803617 0.4528578407425501
0.27957059999971534 0.4049829018075233 0.45969711773326827
0.2797922820000167 0.40205178309721545 0.46165119687347334
0.280024499999854 0.39423546653639474 0.4655593551538837
0.2802474219997748 0.3913043478260869 0.4684904738641915
0.2804681219995473 0.39228138739618945 0.46458231558378116
0.28069522899932053 0.39716658524670256 0.46165119687347334
0.2809558549997746 0.40205178309721545 0.45481191988275516
0.2812142579996362 0.4010747435271129 0.44894968246213973
0.28149653099990246 0.3903273082559844 0.44894968246213973
0.2817882669996834 0.38446507083536874 0.45188080117244755
0.28204015099981916 0.3756717147044455 0.4538348803126526
0.2823208319996411 0.37274059599413767 0.4538348803126526
0.2825508469995839 0.3707865168539326 0.45481191988275516
0.28276589899996907 0.3737176355642404 0.4557889594528579
0.28298952399927657 0.3776257938446508 0.45676599902296044
0.28321303899974737 0.38153395212506114 0.45481191988275516
0.2834317580000061 0.38641914997557403 0.45676599902296044
0.283655883999927 0.3961895456765998 0.4587200781631655
0.2838662320000367 0.4049829018075233 0.45481191988275516
0.28407248799976514 0.4176844162188569 0.4538348803126526
0.2842752249998739 0.43722520762090866 0.45188080117244755
0.28447925899945403 0.44894968246213973 0.4460185637518319
0.28468140399945696 0.4606741573033708 0.4430874450415241
0.284905269999399 0.4704445530043966 0.4382022471910112
0.28511098899980425 0.47923790913532005 0.4401563263312165
0.2853149479997228 0.4929164631167562 0.4401563263312165
0.28551711199997953 0.495847581827064 0.4382022471910112
0.2857188309999401 0.5017098192476794 0.4382022471910112
0.2859221979997528 0.5017098192476794 0.44406448461162684
0.2861258610000732 0.5026868588177822 0.44992672203224227
0.2863280239998858 0.49975574010747437 0.457743038593063
0.28653011299957143 0.495847581827064 0.457743038593063
0.2867313689994262 0.4948705422569615 0.4665363947239862
0.28693275499972515 0.4948705422569615 0.4665363947239862
0.2871340109995799 0.4938935026868587 0.45969711773326827
0.28733978499985824 0.49877870053737183 0.4587200781631655
0.28754172599929007 0.49877870053737183 0.45481191988275516
0.28774403699935647 0.5026868588177822 0.45188080117244755
0.2879457189992536 0.49877870053737183 0.457743038593063
0.2881477900000391 0.49975574010747437 0.4528578407425501
0.28835028699995746 0.4929164631167562 0.45676599902296044
0.288553208999474 0.4909623839765511 0.457743038593063
0.2887553719992866 0.49193942354665365 0.45969711773326827
0.2889889049993144 0.5065950170981925 0.4538348803126526
0.28919066099933843 0.5153883732291158 0.45188080117244755
0.28939363900008175 0.5202735710796287 0.4460185637518319
0.28959661799945025 0.5271128480703469 0.44211040547142155
0.28980081800000335 0.5378602833414754 0.441133365901319
0.29000359199926606 0.5437225207620908 0.43917928676111373
0.2902060699998401 0.5583781143136297 0.43624816805080613
0.2904081409997161 0.5661944308744504 0.4352711284807034
0.2906124709998039 0.5701025891548608 0.43722520762090866
0.29081617099927826 0.5652173913043479 0.43429408891060084
0.2910185009995985 0.5525158768930141 0.43722520762090866
0.29122138699949573 0.5349291646311676 0.43624816805080613
0.2914249569994354 0.5153883732291158 0.43917928676111373
0.2916274169992903 0.49877870053737183 0.43917928676111373
0.2918292280000969 0.4831460674157304 0.44406448461162684
0.2920314659995711 0.47435271128480694 0.44699560332193444
0.29223414699936257 0.46946751343429405 0.44894968246213973
0.2924368659996617 0.46946751343429405 0.4538348803126526
0.29263865899974917 0.467513434294089 0.44992672203224227
0.2928668219992687 0.4684904738641915 0.4528578407425501
0.29307376299948373 0.46946751343429405 0.4479726428920372
0.2932763709995925 0.4684904738641915 0.4460185637518319
0.2934792930000185 0.47142159257449934 0.4460185637518319
0.293680678999408 0.46946751343429405 0.4460185637518319
0.2938949720000892 0.46262823644357587 0.44992672203224227
0.29410257899962744 0.45481191988275516 0.44992672203224227
0.2943040390000533 0.4479726428920372 0.45188080117244755
0.29450494299999264 0.4382022471910112 0.4528578407425501
0.2947075140000379 0.431362970200293 0.4528578407425501
0.2949101399999563 0.4235466536394723 0.4509037616023448
0.29511117299989564 0.4186614557889594 0.4538348803126526
0.2953145589999622 0.41670737664875435 0.45676599902296044
0.29551736999928835 0.4137762579384465 0.45188080117244755
0.29571851499986224 0.4176844162188569 0.4509037616023448
0.29592116000003443 0.42159257449926724 0.44894968246213973
0.2961235819993817 0.4255007327796776 0.4460185637518319
0.29632580099951156 0.431362970200293 0.4450415241817294
0.2965270019994932 0.43722520762090866 0.44211040547142155
0.2967293499996231 0.441133365901319 0.441133365901319
0.29695466099929035 0.4430874450415241 0.44211040547142155
0.2971584540000549 0.4450415241817294 0.4460185637518319
0.297360894999656 0.44894968246213973 0.45188080117244755
0.29756244700001844 0.4430874450415241 0.44894968246213973
0.2977644619995772 0.4401563263312165 0.4538348803126526
0.29797392199998285 0.4352711284807034 0.457743038593063
0.2981772329994783 0.4235466536394723 0.45969711773326827
0.29837919300007343 0.40693698094772834 0.4587200781631655
0.29858087499997055 0.39228138739618945 0.45969711773326827
0.29878375999942364 0.3805569125549584 0.46165119687347334
0.2989856639997015 0.3737176355642404 0.46262823644357587
0.2991877349995775 0.37469467513434296 0.46262823644357587
0.2993894539995381 0.3659013190034197 0.46165119687347334
0.2995916909994776 0.3629702002931119 0.4606741573033708
0.29979387299954396 0.3561309233023937 0.45969711773326827
0.29999670300003345 0.35222276502198335 0.45969711773326827
0.30019882899978256 0.34440644846116264 0.46165119687347334
0.30040152899982786 0.33952125061064975 0.46165119687347334
0.3007794119994287 0.3287738153395212 0.45481191988275516
0.3010379629995441 0.3238886174890083 0.4479726428920372
0.301275440999234 0.32681973619931615 0.44211040547142155
0.3015255659993272 0.3229115779189058 0.43624816805080613
0.3018189499998698 0.3365901319003419 0.4352711284807034
0.30217746299967985 0.3688324377137273 0.43917928676111373
0.3025726409996423 0.4176844162188569 0.4450415241817294
0.3029784860000291 0.43722520762090866 0.44992672203224227
0.3032844439994733 0.4333170493404983 0.45676599902296044
0.303574605999529 0.43722520762090866 0.46165119687347334
0.30381941699943127 0.43722520762090866 0.457743038593063
0.30402644999958284 0.4430874450415241 0.45481191988275516
0.30422877999990305 0.45188080117244755 0.44992672203224227
0.30443246199956775 0.46458231558378116 0.44992672203224227
0.30463705100009975 0.4753297508549097 0.44894968246213973
0.30486900999949285 0.4909623839765511 0.4509037616023448
0.30507815500004654 0.5036638983878847 0.4479726428920372
0.3052803369992034 0.5183194919394236 0.44699560332193444
0.30548251799973514 0.5319980459208598 0.4450415241817294
0.3056882739992943 0.5368832437713726 0.4479726428920372
0.3058900119995087 0.5349291646311676 0.4479726428920372
0.3060922299991944 0.5261358085002443 0.4528578407425501
0.30629356000008556 0.5153883732291158 0.45188080117244755
0.30649540899958083 0.5085490962383976 0.45188080117244755
0.3066978869992454 0.5056179775280898 0.4460185637518319
0.3069018469996081 0.5036638983878847 0.44699560332193444
0.3071042319998014 0.4978016609672691 0.4509037616023448
0.3073065429998678 0.4938935026868587 0.4528578407425501
0.30750811399957456 0.4909623839765511 0.457743038593063
0.3077127399992605 0.4948705422569615 0.467513434294089
0.30792003299939097 0.495847581827064 0.4684904738641915
0.30812154799968994 0.5007327796775769 0.47239863214460187
0.30832537799960846 0.5114802149487054 0.47142159257449934
0.3085290969993366 0.5026868588177822 0.4733756717147044
0.3087308159992972 0.5007327796775769 0.4655593551538837
0.30895988599968405 0.4978016609672691 0.46165119687347334
0.3091768829999637 0.4938935026868587 0.4538348803126526
0.30939358299929154 0.48900830483634583 0.4528578407425501
0.309598208999887 0.4851001465559355 0.44992672203224227
0.30979998299972067 0.4802149487054226 0.44992672203224227
0.3100054239994279 0.4811919882755251 0.4479726428920372
0.31020995800008677 0.48900830483634583 0.4460185637518319
0.31041523199928633 0.5046409379579873 0.44699560332193444
0.3106172660000084 0.5290669272105519 0.44406448461162684
0.3108184109996728 0.5476306790425012 0.441133365901319
0.311020591999295 0.5603321934538348 0.4382022471910112
0.3112218669994036 0.576941866145579 0.43917928676111373
0.31142495599942777 0.5925744992672204 0.4401563263312165
0.31162602699987474 0.6023448949682462 0.43624816805080613
0.311828319999222 0.5935515388373229 0.43624816805080613
0.31202937199941516 0.5593551538837322 0.4333170493404983
0.3122334800000317 0.5144113336590133 0.4323400097703958
0.312436938999781 0.4753297508549097 0.4303859306301905
0.31263917599972046 0.4509037616023448 0.4303859306301905
0.3128507100000206 0.4401563263312165 0.4284318514899854
0.3130544469995584 0.43917928676111373 0.4303859306301905
0.3132549989995823 0.44406448461162684 0.4352711284807034
0.3134565329992256 0.45188080117244755 0.441133365901319
0.3136582150000322 0.4587200781631655 0.4460185637518319
0.31385995199980243 0.45969711773326827 0.4509037616023448
0.3140617270000803 0.4587200781631655 0.4509037616023448
0.3142636489992583 0.45481191988275516 0.4509037616023448
0.31446529400000145 0.44992672203224227 0.44894968246213973
0.3146669389998351 0.44211040547142155 0.44699560332193444
0.31487291699977504 0.431362970200293 0.4450415241817294
0.31508798699996987 0.42256961406936977 0.4450415241817294
0.3153297049993853 0.412799218368344 0.45188080117244755
0.31556079399979353 0.4040058622374205 0.4557889594528579
0.3157642169999235 0.39716658524670256 0.4557889594528579
0.31596739899941895 0.3883732291157791 0.46165119687347334
0.3161725989994011 0.3834880312652662 0.46262823644357587
0.3163745399997424 0.3688324377137273 0.4665363947239862
0.31658059199980926 0.3629702002931119 0.4684904738641915
0.3167841259992201 0.3610161211529066 0.47142159257449934
0.3169898070000272 0.36980947728383007 0.4733756717147044
0.31719389599948045 0.376648754274548 0.47142159257449934
0.3174018559993783 0.39228138739618945 0.4684904738641915
0.31760548199963523 0.4079140205178309 0.4636052760136786
0.31780762699963816 0.41963849535906195 0.4557889594528579
0.318009845999768 0.431362970200293 0.44894968246213973
0.31821263899928454 0.43917928676111373 0.441133365901319
0.3184165979992031 0.4460185637518319 0.4352711284807034
0.31861864999973477 0.4509037616023448 0.431362970200293
0.3188209989993993 0.4538348803126526 0.431362970200293
0.31902321799952915 0.4538348803126526 0.431362970200293
0.31922527000006085 0.45188080117244755 0.43624816805080613
0.31942921099926025 0.4401563263312165 0.431362970200293
0.3196309109998765 0.4235466536394723 0.4352711284807034
0.31983468599992193 0.4049829018075233 0.4352711284807034
0.32003699699998833 0.38935026868588185 0.4401563263312165
0.3202400119998856 0.376648754274548 0.441133365901319
0.32044234199929633 0.3756717147044455 0.44699560332193444
0.3206458759996167 0.37176355642403514 0.45188080117244755
0.32086772399998154 0.3678553981436248 0.457743038593063
0.32107284999983676 0.3678553981436248 0.457743038593063
0.32127627299996675 0.37274059599413767 0.457743038593063
0.32147793599961005 0.3678553981436248 0.46165119687347334
0.3216796359993168 0.3659013190034197 0.45969711773326827
0.3218821509999543 0.3639472398632144 0.46262823644357587
0.32208455499949196 0.3639472398632144 0.4655593551538837
0.32228707099966414 0.3610161211529066 0.46946751343429405
0.32249056699947687 0.35417684416218864 0.47728382999511476
0.3226936749997549 0.3453834880312652 0.4802149487054226
0.32289643099920795 0.34636052760136793 0.4811919882755251
0.32309931599957054 0.3551538837322912 0.4831460674157304
0.3233024419996582 0.3688324377137273 0.48216902784562765
0.3235062909998305 0.38641914997557403 0.47728382999511476
0.32370856499983347 0.40205178309721545 0.4733756717147044
0.3239142099992023 0.41963849535906195 0.46946751343429405
0.3241176510000514 0.431362970200293 0.4636052760136786
0.3243197029996736 0.4352711284807034 0.46165119687347334
0.3245232740000574 0.441133365901319 0.45969711773326827
0.32472438199965836 0.45188080117244755 0.4509037616023448
0.324943025999346 0.4684904738641915 0.4450415241817294
0.32514668899966637 0.48216902784562765 0.441133365901319
0.3253498899994156 0.49877870053737183 0.43722520762090866
0.32555255299939745 0.5105031753786029 0.43624816805080613
0.3257601239993164 0.5232046897899365 0.4303859306301905
0.32598593500006245 0.5280898876404494 0.42940889106008795
0.3262009309992209 0.5280898876404494 0.4255007327796776
0.32640292799987947 0.522227650219834 0.4235466536394723
0.32660612800009403 0.512457254518808 0.4255007327796776
0.3268077539996739 0.5036638983878847 0.4264777723497801
0.32701017699946533 0.49975574010747437 0.42940889106008795
0.3272121359996163 0.49193942354665365 0.42940889106008795
0.3274158369995348 0.486077186126038 0.4333170493404983
0.32761849999951664 0.4851001465559355 0.4382022471910112
0.3278212559998792 0.486077186126038 0.4382022471910112
0.32802373399954377 0.48705422569614076 0.4430874450415241
0.3282270449999487 0.48998534440644836 0.4430874450415241
0.32842952299961325 0.49877870053737183 0.4479726428920372
0.3286323899992567 0.5085490962383976 0.4509037616023448
0.32883455399951345 0.524181729360039 0.4557889594528579
0.3290624940000271 0.5359062042012701 0.45481191988275516
0.32926545400005125 0.550561797752809 0.45969711773326827
0.32946828399963124 0.5574010747435272 0.45676599902296044
0.3296696509996764 0.5642403517342451 0.46165119687347334
0.32987479499934125 0.5652173913043479 0.46165119687347334
0.3300775329998942 0.5622862725940401 0.4636052760136786
0.3302799180000875 0.5603321934538348 0.47239863214460187
0.33048137799960386 0.5534929164631168 0.46165119687347334
0.3308541859996694 0.5466536394723986 0.4557889594528579
0.33107571999971697 0.5456765999022961 0.4538348803126526
0.3312846789995092 0.5456765999022961 0.44992672203224227
0.33148761999927956 0.5456765999022961 0.44406448461162684
0.3316930979999597 0.5417684416218858 0.44699560332193444
0.3318948359992646 0.5329750854909623 0.4401563263312165
0.3320960549999654 0.5192965315095261 0.4382022471910112
0.33229768099954526 0.5046409379579873 0.4401563263312165
0.3324994919994424 0.48998534440644836 0.44211040547142155
0.332702803999382 0.4851001465559355 0.4479726428920372
0.332905356000083 0.47728382999511476 0.4509037616023448
0.33310744499976863 0.4753297508549097 0.4557889594528579
0.33330918199953885 0.4655593551538837 0.457743038593063
0.33351195699924574 0.45188080117244755 0.457743038593063
0.3337132869992274 0.43429408891060084 0.45676599902296044
0.3339147459992091 0.4137762579384465 0.45481191988275516
0.3341167239996139 0.403028822667318 0.45188080117244755
0.33431909099999757 0.39716658524670256 0.4509037616023448
0.3345209769995563 0.3952125061064973 0.4509037616023448
0.33472262199938996 0.39716658524670256 0.4538348803126526
0.33492465499966784 0.39716658524670256 0.45481191988275516
0.33512589299971296 0.39912066438690763 0.45676599902296044
0.335327333999885 0.39716658524670256 0.4587200781631655
0.33552960799988796 0.39912066438690763 0.4606741573033708
0.3357333269996161 0.40693698094772834 0.4606741573033708
0.3359361569991961 0.41475329750854906 0.46165119687347334
0.33613796800000273 0.42159257449926724 0.45969711773326827
0.336340539000048 0.4255007327796776 0.457743038593063
0.3365417949999028 0.42256961406936977 0.45676599902296044
0.3367428100000325 0.41475329750854906 0.4509037616023448
0.3369628989994453 0.403028822667318 0.44894968246213973
0.33716459900006157 0.39912066438690763 0.4430874450415241
0.33743087299990293 0.3981436248168051 0.43917928676111373
0.33764127699942037 0.3961895456765998 0.43722520762090866
0.33784471799936 0.3981436248168051 0.43722520762090866
0.33804815899929963 0.4040058622374205 0.43722520762090866
0.3382508400000006 0.4108451392281387 0.43624816805080613
0.33845259600002464 0.4176844162188569 0.43624816805080613
0.33865596299983736 0.4264777723497801 0.43624816805080613
0.3388589409996712 0.4333170493404983 0.4323400097703958
0.33906327099975897 0.43429408891060084 0.4333170493404983
0.33926576799967734 0.43429408891060084 0.4352711284807034
0.33946783899955335 0.43624816805080613 0.43624816805080613
0.3396701129995563 0.43429408891060084 0.4382022471910112
0.3398713869992207 0.42940889106008795 0.44406448461162684
0.3400740879997102 0.4255007327796776 0.44894968246213973
0.34027754699945945 0.41963849535906195 0.45481191988275516
0.34048104399971635 0.41670737664875435 0.4587200781631655
0.3406831889997193 0.4059599413776258 0.4587200781631655
0.3408890739992785 0.3913043478260869 0.4587200781631655
0.34109066299970436 0.3776257938446508 0.4587200781631655
0.34129265999945346 0.36980947728383007 0.45676599902296044
0.34150134199990134 0.36199316072300936 0.45481191988275516
0.3417041349994179 0.358085002442599 0.4528578407425501
0.3419062789998861 0.3551538837322912 0.44992672203224227
0.3421082569993814 0.35417684416218864 0.45188080117244755
0.34233030899940786 0.3561309233023937 0.44992672203224227
0.342545120000068 0.3688324377137273 0.44894968246213973
0.34279583799980173 0.3688324377137273 0.44894968246213973
0.3430038719998265 0.3707865168539326 0.44992672203224227
0.3432094429999779 0.37176355642403514 0.4538348803126526
0.3434118099994521 0.3805569125549584 0.45969711773326827
0.34361800999977277 0.39423546653639474 0.46262823644357587
0.34382135799933167 0.40693698094772834 0.46458231558378116
0.3440329839995684 0.4284318514899854 0.46165119687347334
0.34423561099993094 0.4479726428920372 0.4557889594528579
0.34443812599965895 0.4665363947239862 0.4509037616023448
0.3446409739999581 0.486077186126038 0.4479726428920372
0.3448894699995435 0.5036638983878847 0.44699560332193444
0.3450960219997796 0.5153883732291158 0.44699560332193444
0.3452984629993807 0.5212506106497312 0.44406448461162684
0.34550068199951056 0.5251587689301416 0.4479726428920372
0.3457021229996826 0.5368832437713726 0.44894968246213973
0.34590582300006645 0.5525158768930141 0.4509037616023448
0.3461084309992657 0.5701025891548608 0.4509037616023448
0.34631085399996664 0.5837811431362969 0.45481191988275516
0.34651914699952613 0.5896433805569126 0.45676599902296044
0.3467224949999945 0.578895945285784 0.45676599902296044
0.34692423199976474 0.5417684416218858 0.4587200781631655
0.34712661799949274 0.4938935026868587 0.457743038593063
0.3473332260000461 0.44894968246213973 0.45969711773326827
0.34753983299924585 0.42256961406936977 0.4606741573033708
0.3477444039999682 0.4108451392281387 0.46262823644357587
0.3479459189993577 0.41475329750854906 0.4606741573033708
0.348148174999551 0.42745481191988266 0.4587200781631655
0.34835098599978664 0.4401563263312165 0.457743038593063
0.3485528159999376 0.44992672203224227 0.4587200781631655
0.3487544239997078 0.45969711773326827 0.457743038593063
0.3489765129997977 0.4704445530043966 0.4557889594528579
0.34917984299954696 0.4811919882755251 0.4528578407425501
0.3493832649992328 0.48998534440644836 0.44992672203224227
0.3495855399996799 0.49975574010747437 0.44699560332193444
0.34978905499974644 0.5085490962383976 0.44406448461162684
0.3499908289995801 0.512457254518808 0.441133365901319
0.3501922519999425 0.5153883732291158 0.43917928676111373
0.3503952669998398 0.5173424523693209 0.4382022471910112
0.35060768899984396 0.5202735710796287 0.4401563263312165
0.35080968599959306 0.5202735710796287 0.43917928676111373
0.3510122379993845 0.5163654127992183 0.43917928676111373
0.35121404899928166 0.5163654127992183 0.4401563263312165
0.35141643499991915 0.5134342940889105 0.44211040547142155
0.3516181909999432 0.5134342940889105 0.44699560332193444
0.35182042799988267 0.5144113336590133 0.4460185637518319
0.35202396199929353 0.512457254518808 0.44699560332193444
0.3522268469996561 0.5105031753786029 0.45188080117244755
0.3524284919994898 0.5007327796775769 0.44992672203224227
0.3526314149994505 0.49682462139716654 0.44699560332193444
0.3528335409991996 0.4851001465559355 0.44211040547142155
0.3530469819997961 0.4782608695652173 0.43722520762090866
0.35325016399929154 0.47142159257449934 0.4303859306301905
0.35345286399933684 0.46458231558378116 0.4323400097703958
0.3536545829992974 0.46165119687347334 0.43624816805080613
0.35385554200001934 0.45969711773326827 0.44211040547142155
0.3540665020000233 0.45969711773326827 0.4528578407425501
0.3542700909993073 0.46165119687347334 0.4684904738641915
0.3544722359993102 0.457743038593063 0.4655593551538837
0.3546756579999055 0.44406448461162684 0.47142159257449934
0.3548786179999297 0.4333170493404983 0.47239863214460187
0.3550802069994461 0.4206155349291647 0.47142159257449934
0.35528224099925865 0.4137762579384465 0.467513434294089
0.3554841449995365 0.40986809965803617 0.4636052760136786
0.35568778899960307 0.40986809965803617 0.45969711773326827
0.35588963800000784 0.41182217879824123 0.457743038593063
0.35609207899960893 0.41182217879824123 0.4538348803126526
0.3562939269995695 0.41670737664875435 0.45188080117244755
0.35650029399948835 0.42159257449926724 0.4528578407425501
0.35670229099923745 0.4157303370786516 0.4557889594528579
0.3569038619998537 0.4108451392281387 0.45481191988275516
0.3571058949992221 0.412799218368344 0.4557889594528579
0.35730787299962685 0.4108451392281387 0.4538348803126526
0.3575100369998836 0.40205178309721545 0.4528578407425501
0.3577125329993578 0.39423546653639474 0.4479726428920372
0.35791484499986836 0.3805569125549584 0.4450415241817294
0.35811695199936366 0.3688324377137273 0.4430874450415241
0.3583185229999799 0.3639472398632144 0.4430874450415241
0.3585203719994752 0.3678553981436248 0.4479726428920372
0.3587222569994992 0.3678553981436248 0.44992672203224227
0.358923068999502 0.3786028334147533 0.44992672203224227
0.359123954000097 0.38739618954567656 0.4509037616023448
0.3593256919994019 0.3952125061064973 0.4528578407425501
0.35967170399999304 0.4049829018075233 0.4460185637518319
0.35989255200001935 0.40693698094772834 0.4460185637518319
0.3600984189997689 0.40693698094772834 0.4460185637518319
0.36030128599941236 0.4040058622374205 0.44699560332193444
0.3605051349995847 0.3981436248168051 0.44992672203224227
0.3607074649999049 0.3952125061064973 0.4528578407425501
0.36091623899937986 0.38935026868588185 0.4557889594528579
0.36111854999944626 0.3883732291157791 0.4557889594528579
0.3613202509995972 0.3854421104054715 0.457743038593063
0.3615233399996214 0.38641914997557403 0.4528578407425501
0.36172555899975123 0.3952125061064973 0.4538348803126526
0.361926943999606 0.39912066438690763 0.4528578407425501
0.3621287369996935 0.403028822667318 0.45481191988275516
0.3623415299998669 0.4040058622374205 0.45676599902296044
0.36255421199984994 0.39912066438690763 0.4665363947239862
0.3627690969997275 0.3903273082559844 0.467513434294089
0.3629911299995001 0.37957987298485585 0.47239863214460187
0.3632084410000971 0.3756717147044455 0.4733756717147044
0.36343947499972273 0.3756717147044455 0.47142159257449934
0.36365793400000257 0.3756717147044455 0.4684904738641915
0.36387987499983865 0.3854421104054715 0.467513434294089
0.36411183399923175 0.39716658524670256 0.4665363947239862
0.3643436449992805 0.40889106008793363 0.4538348803126526
0.3645930849997967 0.4284318514899854 0.4479726428920372
0.3649512459996913 0.45188080117244755 0.4460185637518319
0.365362627999275 0.4802149487054226 0.441133365901319
0.36564877099954174 0.48998534440644836 0.4430874450415241
0.3659378399997877 0.5056179775280898 0.4401563263312165
0.36617831799958367 0.5163654127992183 0.4401563263312165
0.3664046839994626 0.5290669272105519 0.43722520762090866
0.3666265879992352 0.5417684416218858 0.44211040547142155
0.36686150999958045 0.5476306790425012 0.43917928676111373
0.36711044999992737 0.5378602833414754 0.44406448461162684
0.36733135399936145 0.5300439667806547 0.4460185637518319
0.3675574979997691 0.5232046897899365 0.4509037616023448
0.3677669759999844 0.5202735710796287 0.44992672203224227
0.3679701020000721 0.5232046897899365 0.44992672203224227
0.3681724319994828 0.5300439667806547 0.44992672203224227
0.36837598500005697 0.5280898876404494 0.4528578407425501
0.368578943999637 0.5202735710796287 0.45188080117244755
0.36878592199991544 0.5056179775280898 0.45188080117244755
0.3690108259997942 0.5017098192476794 0.4528578407425501
0.3692125819998182 0.49975574010747437 0.45188080117244755
0.3694154119993982 0.5007327796775769 0.4479726428920372
0.3696180009992531 0.5105031753786029 0.44894968246213973
0.36981960799948865 0.5114802149487054 0.4401563263312165
0.3700261979993229 0.512457254518808 0.44699560332193444
0.3702283049997277 0.512457254518808 0.4401563263312165
0.37043170899960387 0.5144113336590133 0.4352711284807034
0.3706354649993955 0.5212506106497312 0.4382022471910112
0.3708376099993984 0.524181729360039 0.4401563263312165
0.3710398469993379 0.522227650219834 0.43917928676111373
0.37124428799961606 0.5144113336590133 0.4401563263312165
0.37144602599983045 0.5065950170981925 0.4401563263312165
0.371648503999495 0.5017098192476794 0.44406448461162684
0.37185033399964595 0.49975574010747437 0.4401563263312165
0.37205218199960655 0.4938935026868587 0.4430874450415241
0.37225599399971543 0.495847581827064 0.44406448461162684
0.37245847199938 0.4929164631167562 0.4460185637518319
0.37266044999978476 0.4909623839765511 0.44406448461162684
0.3728651869996611 0.4929164631167562 0.4460185637518319
0.37306722099947365 0.4909623839765511 0.4479726428920372
0.3732693289994131 0.4880312652662433 0.45188080117244755
0.3734719359999872 0.48412310698583294 0.45676599902296044
0.37368119199982175 0.47728382999511476 0.46165119687347334
0.373885280999275 0.4665363947239862 0.4606741573033708
0.3740874819995952 0.4538348803126526 0.46165119687347334
0.3742890889998307 0.44211040547142155 0.4587200781631655
0.37449195599947416 0.4323400097703958 0.46262823644357587
0.37469830499958334 0.41963849535906195 0.45969711773326827
0.3749011719992268 0.412799218368344 0.457743038593063
0.37510390899933554 0.40986809965803617 0.457743038593063
0.3753057199992327 0.412799218368344 0.457743038593063
0.37550886499957414 0.4206155349291647 0.4587200781631655
0.37571114000002126 0.42940889106008795 0.45676599902296044
0.37591474700002436 0.42940889106008795 0.457743038593063
0.3761215219992664 0.4206155349291647 0.45676599902296044
0.3763246109992906 0.41670737664875435 0.4538348803126526
0.37652677400001267 0.4137762579384465 0.45188080117244755
0.37672812299933867 0.4137762579384465 0.44992672203224227
0.37695422999968287 0.40986809965803617 0.44211040547142155
0.3771556709998549 0.4079140205178309 0.4382022471910112
0.37735805600004824 0.4059599413776258 0.4352711284807034
0.3775600349999877 0.4049829018075233 0.43722520762090866
0.37776178999956755 0.403028822667318 0.43624816805080613
0.3779633799995281 0.4010747435271129 0.44211040547142155
0.37816544999986945 0.40009770395701016 0.4430874450415241
0.3783681879995129 0.403028822667318 0.44406448461162684
0.37857094399987545 0.4079140205178309 0.4479726428920372
0.37877232899973023 0.412799218368344 0.44699560332193444
0.37898954799948115 0.41182217879824123 0.44894968246213973
0.37919213699933607 0.4059599413776258 0.4509037616023448
0.37939483699938137 0.39912066438690763 0.4479726428920372
0.3795969079992574 0.39423546653639474 0.44894968246213973
0.37979790400004276 0.3883732291157791 0.44894968246213973
0.38000008599919965 0.3834880312652662 0.45481191988275516
0.3802019349996044 0.3805569125549584 0.457743038593063
0.38040837599965016 0.3756717147044455 0.45969711773326827
0.38061570599984407 0.3756717147044455 0.4636052760136786
0.380817386999297 0.3776257938446508 0.4665363947239862
0.3810350869998729 0.3737176355642404 0.467513434294089
0.3812526949996027 0.3756717147044455 0.4684904738641915
0.38149139500001183 0.3805569125549584 0.4665363947239862
0.38177737099977094 0.38446507083536874 0.46165119687347334
0.38205758899948705 0.38935026868588185 0.4557889594528579
0.38232965799943486 0.39228138739618945 0.4509037616023448
0.3826162459999978 0.39716658524670256 0.44406448461162684
0.38296035199982725 0.3961895456765998 0.4479726428920372
0.3832902899994224 0.4010747435271129 0.4528578407425501
0.38352613799997926 0.40986809965803617 0.4479726428920372
0.3837478569994346 0.4186614557889594 0.4460185637518319
0.3839744459992289 0.43624816805080613 0.4460185637518319
0.38420479399974283 0.45188080117244755 0.4460185637518319
0.38442388299972663 0.46458231558378116 0.44894968246213973
0.3846636379994379 0.47728382999511476 0.4479726428920372
0.384922356000061 0.48705422569614076 0.44992672203224227
0.3851713149997522 0.4851001465559355 0.4528578407425501
0.3853932550000536 0.47728382999511476 0.4538348803126526
0.38562334399921383 0.47142159257449934 0.45676599902296044
0.38584900699970603 0.4665363947239862 0.4606741573033708
0.38606648499990115 0.46458231558378116 0.46262823644357587
0.38631177699971886 0.4684904738641915 0.4655593551538837
0.38659029099926556 0.47142159257449934 0.4636052760136786
0.3868371019998449 0.47435271128480694 0.4684904738641915
0.387070541999492 0.4851001465559355 0.46262823644357587
0.38727987199945346 0.4831460674157304 0.4587200781631655
0.38748620199930883 0.49193942354665365 0.45676599902296044
0.3876935499993124 0.5046409379579873 0.457743038593063
0.38790286099992954 0.5173424523693209 0.45481191988275516
0.38811980199989193 0.5232046897899365 0.44699560332193444
0.3883566869999413 0.5310210063507572 0.4450415241817294
0.3885765539998829 0.5427454811919883 0.4382022471910112
0.3887998089994653 0.5544699560332194 0.4333170493404983
0.38903584299987415 0.5681485100146555 0.4303859306301905
0.38926798699958454 0.5749877870053737 0.4333170493404983
0.38949709400003485 0.5740107474352711 0.43917928676111373
0.3897521079998114 0.5603321934538348 0.43917928676111373
0.39000560399927053 0.550561797752809 0.43917928676111373
0.3902600629999142 0.540791402051783 0.43722520762090866
0.39051115099937306 0.533952125061065 0.43722520762090866
0.39076581399967836 0.5183194919394236 0.43722520762090866
0.39123915699929057 0.4831460674157304 0.44406448461162684
0.39154061499993986 0.46946751343429405 0.4509037616023448
0.39177387099971384 0.4606741573033708 0.4528578407425501
0.39201592199970037 0.4538348803126526 0.4606741573033708
0.39225073299985524 0.45188080117244755 0.4528578407425501
0.3924814519996289 0.4528578407425501 0.4509037616023448
0.3928710559994215 0.4538348803126526 0.44699560332193444
0.39321149499937746 0.45188080117244755 0.44894968246213973
0.39347087899932376 0.44992672203224227 0.44894968246213973
0.3937071719992673 0.43917928676111373 0.4509037616023448
0.3939375199997812 0.4323400097703958 0.4528578407425501
0.3941575159997228 0.4255007327796776 0.4528578407425501
0.3943742530000236 0.41963849535906195 0.4538348803126526
0.3946161009998832 0.4176844162188569 0.4538348803126526
0.3948452449994875 0.41670737664875435 0.4538348803126526
0.39507148199936637 0.4157303370786516 0.45481191988275516
0.3953325699994821 0.41670737664875435 0.4528578407425501
0.3955628069998056 0.41670737664875435 0.45481191988275516
0.3957755819992599 0.4255007327796776 0.45676599902296044
0.3959927819996665 0.4206155349291647 0.45969711773326827
0.3962139629993544 0.42159257449926724 0.46458231558378116
0.39641701499931514 0.42452369320957506 0.46262823644357587
0.39661980799974117 0.4235466536394723 0.46165119687347334
0.39682145299957483 0.42452369320957506 0.45969711773326827
0.39706459699937113 0.42745481191988266 0.4606741573033708
0.39727498199954425 0.42940889106008795 0.4636052760136786
0.3974872009994215 0.42940889106008795 0.4606741573033708
0.39772590099983063 0.42940889106008795 0.457743038593063
0.3979656379997323 0.4264777723497801 0.4528578407425501
0.39820304099976056 0.4255007327796776 0.44894968246213973
0.39840829700006 0.4235466536394723 0.44406448461162684
0.3986123859995132 0.41963849535906195 0.43917928676111373
0.3988155309998547 0.4264777723497801 0.4382022471910112
0.39901939799983666 0.42452369320957506 0.43624816805080613
0.399222338999607 0.42256961406936977 0.43917928676111373
0.39942368699939834 0.41670737664875435 0.44211040547142155
0.39962725799978216 0.40889106008793363 0.4450415241817294
0.3998295510000389 0.3961895456765998 0.44992672203224227
0.4000321769999573 0.3834880312652662 0.45188080117244755
0.40023382199979096 0.3688324377137273 0.4557889594528579
0.40043792899996333 0.36199316072300936 0.457743038593063
0.4006405559994164 0.36003908158280407 0.457743038593063
0.40087684799982526 0.3610161211529066 0.4557889594528579
0.40108182599942666 0.3639472398632144 0.4557889594528579
0.40128410099987377 0.37176355642403514 0.45481191988275516
0.4014877079998769 0.3805569125549584 0.44992672203224227
0.40169040899945685 0.39423546653639474 0.44894968246213973
0.4018951459993332 0.4040058622374205 0.4460185637518319
0.40209769800003414 0.4108451392281387 0.4460185637518319
0.4023005089993603 0.4137762579384465 0.4450415241817294
0.40250174699940544 0.4157303370786516 0.441133365901319
0.40270627999962016 0.4137762579384465 0.4401563263312165
0.40291172099932737 0.4108451392281387 0.4382022471910112
0.4031154770000285 0.41182217879824123 0.4382022471910112
0.4033170289994814 0.412799218368344 0.4382022471910112
0.40352172999973845 0.4186614557889594 0.43917928676111373
0.4037245409999741 0.42452369320957506 0.4450415241817294
0.40392570399944816 0.4382022471910112 0.4479726428920372
0.4041269969993664 0.44992672203224227 0.44699560332193444
0.4043320679993485 0.4587200781631655 0.4528578407425501
0.4045332679997955 0.467513434294089 0.4587200781631655
0.4047355429993331 0.4753297508549097 0.45481191988275516
0.4049527979996128 0.4733756717147044 0.45676599902296044
0.4051570729998275 0.47239863214460187 0.45676599902296044
0.4053645139993023 0.4704445530043966 0.4587200781631655
0.40556932499930554 0.47142159257449934 0.45969711773326827
0.40577341399966826 0.467513434294089 0.45969711773326827
0.40597585499926936 0.4655593551538837 0.4587200781631655
0.40617868499975884 0.4684904738641915 0.45676599902296044
0.4063801449992752 0.467513434294089 0.45676599902296044
0.4065817900000184 0.467513434294089 0.457743038593063
0.40678348999972513 0.47142159257449934 0.457743038593063
0.40698452399919915 0.4733756717147044 0.4606741573033708
0.4071875199997521 0.4753297508549097 0.457743038593063
0.4073888689999876 0.486077186126038 0.45676599902296044
0.4075916989995676 0.48900830483634583 0.45676599902296044
0.40779767699950753 0.4978016609672691 0.45481191988275516
0.4080015439994895 0.5046409379579873 0.45481191988275516
0.4082028549992174 0.5144113336590133 0.45481191988275516
0.4084038699993471 0.5202735710796287 0.457743038593063
0.4086060339996038 0.5310210063507572 0.4606741573033708
0.40880984499926853 0.5427454811919883 0.46262823644357587
0.40901372999996966 0.5495847581827065 0.4606741573033708
0.40922880099969916 0.5427454811919883 0.46262823644357587
0.4094551489997684 0.5280898876404494 0.4606741573033708
0.4096814409995204 0.5144113336590133 0.4606741573033708
0.40988853099952394 0.5056179775280898 0.45481191988275516
0.41009187899999233 0.49877870053737183 0.4509037616023448
0.41029422799965687 0.4948705422569615 0.44406448461162684
0.41049664999991364 0.4978016609672691 0.4401563263312165
0.41069897999932437 0.5026868588177822 0.4401563263312165
0.4109007170000041 0.5095261358085001 0.43917928676111373
0.4111064549997536 0.5173424523693209 0.43722520762090866
0.4113081549994604 0.524181729360039 0.43722520762090866
0.4115104109996537 0.5183194919394236 0.4352711284807034
0.41171224099980464 0.5114802149487054 0.4333170493404983
0.4119154599993635 0.5026868588177822 0.431362970200293
0.41211727099926065 0.49877870053737183 0.42940889106008795
0.41232030499941175 0.4938935026868587 0.4333170493404983
0.4125219119996473 0.49682462139716654 0.4323400097703958
0.4127232979999462 0.4929164631167562 0.4303859306301905
0.4129434050000782 0.4831460674157304 0.431362970200293
0.41314777199931996 0.4782608695652173 0.431362970200293
0.41334904699942854 0.47239863214460187 0.43624816805080613
0.4135524319999604 0.45676599902296044 0.43917928676111373
0.4137594469993928 0.4460185637518319 0.44211040547142155
0.413966554999206 0.4430874450415241 0.4450415241817294
0.4141693289993782 0.431362970200293 0.44992672203224227
0.4143719189996773 0.4264777723497801 0.4538348803126526
0.41457369299951097 0.41963849535906195 0.45676599902296044
0.4147768749999159 0.4157303370786516 0.45676599902296044
0.4149775749992841 0.4049829018075233 0.4538348803126526
0.4151798119992236 0.4059599413776258 0.4606741573033708
0.4153814940000302 0.40009770395701016 0.457743038593063
0.4155839539998851 0.40889106008793363 0.4587200781631655
0.41578667299927474 0.4137762579384465 0.45676599902296044
0.4159897800000181 0.4186614557889594 0.4587200781631655
0.4161929809997673 0.4206155349291647 0.45969711773326827
0.41639544000008755 0.41475329750854906 0.457743038593063
0.41659710399926553 0.4137762579384465 0.46262823644357587
0.4167985999993107 0.40986809965803617 0.46165119687347334
0.41700104099982127 0.40889106008793363 0.45969711773326827
0.41720322299988766 0.39912066438690763 0.45969711773326827
0.41740716399999656 0.40009770395701016 0.45676599902296044
0.4176089200000206 0.3932584269662922 0.4538348803126526
0.4178102870000657 0.3952125061064973 0.45188080117244755
0.4180126539995399 0.403028822667318 0.44699560332193444
0.4182137249999869 0.4186614557889594 0.44406448461162684
0.418414942999334 0.4303859306301905 0.43917928676111373
0.41861677299948497 0.441133365901319 0.441133365901319
0.4188187889994879 0.44211040547142155 0.43917928676111373
0.41902178500004084 0.4401563263312165 0.44406448461162684
0.41922437399989576 0.431362970200293 0.44406448461162684
0.419428018999497 0.41963849535906195 0.4460185637518319
0.41962997900009213 0.40889106008793363 0.4509037616023448
0.41983178999998927 0.403028822667318 0.4538348803126526
0.4200328239994633 0.40009770395701016 0.45676599902296044
0.4202346169995508 0.3932584269662922 0.45969711773326827
0.4204362430000401 0.3913043478260869 0.4587200781631655
0.42063779499949305 0.38446507083536874 0.45676599902296044
0.42085864299951936 0.38251099169516367 0.45969711773326827
0.4213481349997892 0.3756717147044455 0.4538348803126526
0.4215810759997112 0.3776257938446508 0.44992672203224227
0.42178784999941854 0.38251099169516367 0.44894968246213973
0.42199023600005603 0.3854421104054715 0.4479726428920372
0.42219189899969933 0.3913043478260869 0.44894968246213973
0.4223930989992368 0.3932584269662922 0.4557889594528579
0.4225955399997474 0.39423546653639474 0.45481191988275516
0.42279631499968673 0.40009770395701016 0.4655593551538837
0.4229988669994782 0.3981436248168051 0.4606741573033708
0.42320077099975606 0.3913043478260869 0.4606741573033708
0.4234024159995897 0.38641914997557403 0.4606741573033708
0.4236037269993176 0.38153395212506114 0.4587200781631655
0.42380503799995495 0.3834880312652662 0.46165119687347334
0.4240064979994713 0.3981436248168051 0.4557889594528579
0.42420780999964336 0.41475329750854906 0.4509037616023448
0.4244088619998365 0.4264777723497801 0.4587200781631655
0.4246113029994376 0.43722520762090866 0.4528578407425501
0.4248125219992289 0.4460185637518319 0.44992672203224227
0.42502142600005755 0.457743038593063 0.4460185637518319
0.42522386699965864 0.46946751343429405 0.44699560332193444
0.4254257519996827 0.4753297508549097 0.4509037616023448
0.42562791499949526 0.4929164631167562 0.4557889594528579
0.42582939299973077 0.49877870053737183 0.457743038593063
0.42603144599979714 0.5105031753786029 0.45969711773326827
0.4262336089996097 0.5232046897899365 0.46262823644357587
0.4264353089993165 0.533952125061065 0.46946751343429405
0.4266370839995943 0.5359062042012701 0.4587200781631655
0.42683959899932233 0.540791402051783 0.4557889594528579
0.4270414289994733 0.5437225207620908 0.45676599902296044
0.42724418499983585 0.5398143624816805 0.44992672203224227
0.42744538499937335 0.540791402051783 0.44699560332193444
0.4276476039995032 0.5388373229115779 0.441133365901319
0.4278495259995907 0.5290669272105519 0.4352711284807034
0.42805183800010127 0.5212506106497312 0.43429408891060084
0.42825363099927927 0.5183194919394236 0.4284318514899854
0.4284547939996628 0.5075720566682951 0.4264777723497801
0.42865625400008867 0.5017098192476794 0.4264777723497801
0.4288791199996922 0.4948705422569615 0.4323400097703958
0.4291510049997669 0.4909623839765511 0.4303859306301905
0.4293583899998339 0.48705422569614076 0.4333170493404983
0.4295654419993298 0.48412310698583294 0.4333170493404983
0.42976903099952324 0.48412310698583294 0.43722520762090866
0.4299733429998014 0.4880312652662433 0.441133365901319
0.43017478399997344 0.4929164631167562 0.4430874450415241
0.43037805799940543 0.495847581827064 0.4450415241817294
0.4305802399994718 0.5075720566682951 0.44699560332193444
0.4307849399992847 0.5310210063507572 0.4430874450415241
0.4309928439997748 0.5476306790425012 0.4450415241817294
0.43119708099948184 0.5593551538837322 0.4460185637518319
0.43139870799950586 0.5622862725940401 0.4479726428920372
0.4316017409992128 0.5486077186126037 0.4450415241817294
0.4318029229998501 0.5232046897899365 0.45188080117244755
0.43200706799962063 0.48998534440644836 0.45188080117244755
0.4322096389996659 0.46262823644357587 0.45481191988275516
0.4324111169999014 0.44211040547142155 0.457743038593063
0.43261239099956583 0.431362970200293 0.457743038593063
0.4328136659996744 0.4255007327796776 0.4538348803126526
0.43302016199959326 0.4264777723497801 0.44894968246213973
0.43322326999987126 0.4323400097703958 0.4450415241817294
0.43342421099987405 0.43917928676111373 0.44211040547142155
0.4336274479992426 0.43917928676111373 0.441133365901319
0.433828555999753 0.4479726428920372 0.44211040547142155
0.43402999699992506 0.4557889594528579 0.43917928676111373
0.4342357899995477 0.4704445530043966 0.441133365901319
0.434441434999826 0.47728382999511476 0.44406448461162684
0.4346429679999346 0.47728382999511476 0.4450415241817294
0.43484387199987395 0.47239863214460187 0.4450415241817294
0.43504638699960196 0.46165119687347334 0.4460185637518319
0.435248013999626 0.4460185637518319 0.4460185637518319
0.43544919499981916 0.4352711284807034 0.44699560332193444
0.4356503029994201 0.4284318514899854 0.44992672203224227
0.43585174399959214 0.42159257449926724 0.44992672203224227
0.4360547409996798 0.4186614557889594 0.44992672203224227
0.4362568119995558 0.4264777723497801 0.44894968246213973
0.43645991899938963 0.42745481191988266 0.4528578407425501
0.4366620829996464 0.4323400097703958 0.44992672203224227
0.43687165299979824 0.43624816805080613 0.4528578407425501
0.43707559399990714 0.4303859306301905 0.457743038593063
0.43727785000010044 0.42452369320957506 0.45676599902296044
0.4374800689993208 0.40986809965803617 0.4538348803126526
0.43768112099951395 0.403028822667318 0.457743038593063
0.437883599000088 0.3903273082559844 0.457743038593063
0.4380848739992871 0.38446507083536874 0.45676599902296044
0.43828812899937475 0.37957987298485585 0.4528578407425501
0.43849255199984327 0.37957987298485585 0.45481191988275516
0.43869401199935965 0.38251099169516367 0.45481191988275516
0.43890548999934254 0.39228138739618945 0.45676599902296044
0.43910754199987423 0.40009770395701016 0.45969711773326827
0.4393102229996657 0.4059599413776258 0.46262823644357587
0.4395123309996052 0.41182217879824123 0.46262823644357587
0.4397146609999254 0.41182217879824123 0.46262823644357587
0.43991615799950523 0.4108451392281387 0.45969711773326827
0.4401186539998889 0.4059599413776258 0.4538348803126526
0.4403228359997229 0.4049829018075233 0.4479726428920372
0.44052401799945073 0.4040058622374205 0.44699560332193444
0.4407256439999401 0.39423546653639474 0.4509037616023448
0.44094154799950047 0.3913043478260869 0.45188080117244755
